EMG1,EMG2,class,user
0.00107346,-1.934754e-05,8,1
0.0009525587,-2.453363e-05,8,1
0.0007747728,-7.678839e-06,8,1
0.0005530673,1.241726e-05,8,1
0.000294573,2.538249e-05,8,1
5.131294e-05,2.716521e-05,8,1
-0.0001094559,2.214118e-05,8,1
-0.000144462,1.436204e-05,8,1
-4.85193e-05,6.582909e-06,8,1
0.0001393144,3.341602e-06,8,1
0.0003519442,4.151929e-06,8,1
0.0005287575,5.286387e-06,8,1
0.0006473894,5.772582e-06,8,1
0.0007099467,1.079661e-05,8,1
0.0007204809,2.149292e-05,8,1
0.0006789921,3.802358e-05,8,1
0.0005966629,5.260946e-05,8,1
0.0005036374,6.281957e-05,8,1
0.0004376768,6.46023e-05,8,1
0.0004269804,5.828175e-05,8,1
0.0004736553,3.769945e-05,8,1
0.0005496639,-3.14101e-06,8,1
0.0006063868,-6.245691e-05,8,1
0.0006054144,-0.0001259865,8,1
0.0005297299,-0.0001750923,8,1
0.0003825745,-0.0002058847,8,1
0.000185341,-0.000226467,8,1
-4.300908e-05,-0.0002420253,8,1
-0.0002932379,-0.0002454286,8,1
-0.0005525423,-0.0002245222,8,1
-0.0007906163,-0.0001749302,8,1
-0.0009523575,-0.0001008664,8,1
-0.0009837981,-1.25408e-05,8,1
-0.0008601423,7.821578e-05,8,1
-0.0005917621,0.0001566554,8,1
-0.0002237119,0.0002018716,8,1
0.0001610312,0.0001981441,8,1
0.0004734932,0.0001561692,8,1
0.0006522514,0.000105929,8,1
0.0006872575,7.57848e-05,8,1
0.000601849,7.756752e-05,8,1
0.0004334631,0.0001046324,8,1
0.0002094887,0.0001388282,8,1
-4.219875e-05,0.0001633001,8,1
-0.0002802727,0.0001691344,8,1
-0.000457248,0.0001623277,8,1
-0.0005522182,0.000153252,8,1
-0.0005967862,0.0001524417,8,1
-0.0006596675,0.0001650828,8,1
-0.0007666306,0.000185503,8,1
-0.0008703524,0.0002081922,8,1
-0.0008946622,0.0002354192,8,1
-0.0008061745,0.0002733424,8,1
-0.0006436231,0.0003274723,8,1
-0.0004890127,0.0003974845,8,1
-0.0004040906,0.0004702519,8,1
-0.0003938804,0.0005279472,8,1
-0.0004214316,0.000559712,8,1
-0.00042759,0.0005660325,8,1
-0.0003561192,0.0005590637,8,1
-0.0001885437,0.000547395,8,1
3.13789e-05,0.0005263265,8,1
0.0002104611,0.000477869,8,1
0.0002670219,0.0003851676,8,1
0.0001921477,0.0002516257,8,1
4.434413e-05,0.0001098185,8,1
-0.0001070249,1.234753e-06,8,1
-0.0002178775,-5.208474e-05,8,1
-0.0002746004,-6.083626e-05,8,1
-0.0002872415,-5.889148e-05,8,1
-0.0002664971,-8.255302e-05,8,1
-0.0002229016,-0.0001553203,8,1
-0.0001757406,-0.0002741142,8,1
-0.0001459206,-0.0004155972,8,1
-0.0001423551,-0.0005497872,8,1
-0.0001710407,-0.0006494574,8,1
-0.0002519113,-0.0007034251,8,1
-0.0004185144,-0.0007147697,8,1
-0.0006920806,-0.000695646,8,1
-0.001055593,-0.0006629088,8,1
-0.001445522,-0.0006334129,8,1
-0.001762684,-0.0006173685,8,1
-0.001918915,-0.0006092652,8,1
-0.00186592,-0.0006039171,8,1
-0.001597701,-0.0005901415,8,1
-0.001154291,-0.0005634008,8,1
-0.0006125065,-0.000519319,8,1
-5.370539e-05,-0.0004653512,8,1
0.0004380009,-0.0004162455,8,1
0.0008011895,-0.0003767015,8,1
0.001017709,-0.0003379679,8,1
0.001110411,-0.0002921034,8,1
0.001115597,-0.0002370013,8,1
0.001062925,-0.000171851,8,1
0.0009833511,-0.0001037836,8,1
0.0009133389,-3.766092e-05,8,1
0.0008844911,1.906194e-05,8,1
0.0008972943,6.427817e-05,8,1
0.0009314902,9.63671e-05,8,1
0.0009651998,0.0001143563,8,1
0.0009870786,0.0001078737,8,1
0.0009942095,5.406805e-05,8,1
0.0009893475,-6.456377e-05,8,1
0.0009750858,-0.0002324634,8,1
0.0009511001,-0.0004049009,8,1
0.0009160939,-0.0005326084,8,1
0.0008695811,-0.0005885208,8,1
0.0008128582,-0.0005718282,8,1
0.0007541905,-0.000501978,8,1
0.0007159431,-0.0004073319,8,1
0.000720643,-0.0003203028,8,1
0.000784983,-0.0002650386,8,1
0.000898915,-0.0002426735,8,1
0.001036184,-0.0002318152,8,1
0.001174102,-0.0002086398,8,1
0.001298407,-0.0001648822,8,1
0.001398563,-9.519411e-05,8,1
0.001466307,3.503668e-06,8,1
0.001483486,0.0001255389,8,1
0.001424494,0.0002532463,8,1
0.001281714,0.0003705817,8,1
0.001079132,0.0004662003,8,1
0.0008583986,0.0005336195,8,1
0.0006379896,0.0005694359,8,1
0.0004013741,0.000577053,8,1
0.0001200286,0.0005666808,8,1
-0.0002160948,0.0005593878,8,1
-0.0005781487,0.000569598,8,1
-0.0009048723,0.0006003904,8,1
-0.001121554,0.000643986,8,1
-0.001184273,0.000688554,8,1
-0.001114585,0.0007292324,8,1
-0.0009894704,0.0007712074,8,1
-0.0008876934,0.0008277682,8,1
-0.0008431255,0.0008971323,8,1
-0.0008392359,0.000950938,8,1
-0.0008363187,0.0009462381,8,1
-0.000812333,0.0008441369,8,1
-0.0007791097,0.0006400964,8,1
-0.0007617687,0.0003762539,8,1
-0.0007716547,0.0001187321,8,1
-0.0008050401,-7.412562e-05,8,1
-0.0008567389,-0.0001746061,8,1
-0.0009246443,-0.0001932436,8,1
-0.001008756,-0.000161965,8,1
-0.00109692,-0.0001092938,8,1
-0.001167094,-5.856735e-05,8,1
-0.001192052,-3.134038e-05,8,1
-0.00116288,-4.722278e-05,8,1
-0.00110243,-0.0001052422,8,1
-0.001066938,-0.0001872472,8,1
-0.001094489,-0.0002707109,8,1
-0.001171956,-0.00033813,8,1
-0.001254771,-0.0003870737,8,1
-0.001287022,-0.0004202971,8,1
-0.001228841,-0.0004386105,8,1
-0.001091572,-0.000444769,8,1
-0.0009322613,-0.0004426621,8,1
-0.0008053642,-0.0004403932,8,1
-0.0007257902,-0.0004397449,8,1
-0.0006727948,-0.0004337485,8,1
-0.0006290372,-0.0004168937,8,1
-0.0005932208,-0.0003880461,8,1
-0.0005630766,-0.0003514194,8,1
-0.0005249913,-0.0003162512,8,1
-0.0004600031,-0.0002911311,8,1
-0.0003525538,-0.000285945,8,1
-0.0002045882,-0.0003141443,8,1
-4.592625e-05,-0.0003786463,8,1
7.254349e-05,-0.0004624341,8,1
0.0001244044,-0.000539091,8,1
0.0001297526,-0.0005920863,8,1
0.0001412592,-0.0006116962,8,1
0.0001939304,-0.000588845,8,1
0.000272208,-0.0005149432,8,1
0.0003349273,-0.0003922598,8,1
0.0003632887,-0.0002319772,8,1
0.0003722023,-6.197072e-05,8,1
0.0003780367,9.182927e-05,8,1
0.0003696093,0.0002154851,8,1
0.000324231,0.0003017039,8,1
0.0002383363,0.0003555096,8,1
0.0001190562,0.0003893813,8,1
-2.42095e-05,0.0004156358,8,1
-0.0001601823,0.0004339493,8,1
-0.0002373254,0.0004352458,8,1
-0.0002034537,0.0004119083,8,1
-4.527799e-05,0.0003686369,8,1
0.0002086784,0.0003237448,8,1
0.0005060683,0.0002989488,8,1
0.0007866036,0.0003089969,8,1
0.00100604,0.0003610198,8,1
0.001154979,0.0004499937,8,1
0.00125708,0.0005569569,8,1
0.001362098,0.0006575995,8,1
0.00150812,0.0007337703,8,1
0.001695305,0.0007817416,8,1
0.001887516,0.000809779,8,1
0.002050716,0.0008253373,8,1
0.002178262,0.0008277682,8,1
0.002280849,0.0008112376,8,1
0.002358965,0.0007648868,8,1
0.002411961,0.0006845024,8,1
0.002432381,0.0005767288,8,1
0.002391865,0.0004564763,8,1
0.002249085,0.0003362238,8,1
0.0019867,0.0002287745,8,1
0.001628534,0.0001417454,8,1
0.001228232,7.448828e-05,8,1
0.0008417058,2.181705e-05,8,1
0.0004906721,-2.583016e-05,8,1
0.0001707551,-7.412562e-05,8,1
-0.0001287416,-0.0001193418,8,1
-0.0004003631,-0.0001648822,8,1
-0.0006275786,-0.0002237119,8,1
-0.0007956403,-0.0003115513,8,1
-0.0008889899,-0.0004306693,8,1
-0.0009029275,-0.0005609698,8,1
-0.0008512287,-0.0006653398,8,1
-0.0007635514,-0.0007092595,8,1
-0.0006737672,-0.0006792775,8,1
-0.0006165582,-0.0005972724,8,1
-0.0006240131,-0.0004992229,8,1
-0.0007052079,-0.0004154351,8,1
-0.0008363187,-0.0003533641,8,1
-0.000968564,-0.0003037722,8,1
-0.001053,-0.0002532078,8,1
-0.001066127,-0.0001998883,8,1
-0.001006487,-0.0001538618,8,1
-0.0008847762,-0.0001240417,8,1
-0.0007287074,-0.0001165867,8,1
-0.0005843072,-0.0001261486,8,1
-0.0004864197,-0.0001412206,8,1
-0.0004366657,-0.0001475412,8,1
-0.0004118697,-0.0001426792,8,1
-0.0003916115,-0.0001363587,8,1
-0.0003771877,-0.0001405724,8,1
-0.0003720016,-0.0001613168,8,1
-0.0003642225,-0.0001961608,8,1
-0.0003340784,-0.0002370013,8,1
-0.0002807589,-0.0002768693,8,1
-0.0002279256,-0.0003143064,8,1
-0.0002193361,-0.0003442885,8,1
-0.0002877277,-0.0003663294,8,1
-0.0004387725,-0.0003862634,8,1
-0.0006479988,-0.0004061974,8,1
-0.0008810487,-0.000422566,8,1
-0.001105509,-0.0004306693,8,1
-0.001294153,-0.0004339106,8,1
-0.001418295,-0.0004305072,8,1
-0.001448277,-0.0004092767,8,1
-0.001369027,-0.0003570916,8,1
-0.001197724,-0.0002682799,8,1
-0.0009701846,-0.0001504584,8,1
-0.0007311383,-1.821308e-05,8,1
-0.000519481,0.0001080358,8,1
-0.00035304,0.0002106232,8,1
-0.0002250084,0.0002848491,8,1
-0.0001204763,0.0003357376,8,1
-3.21507e-05,0.0003657197,8,1
3.267542e-05,0.0003637749,8,1
7.059871e-05,0.0003209897,8,1
9.377406e-05,0.0002459534,8,1
0.0001203528,0.0001438522,8,1
0.0001404489,1.582063e-05,8,1
0.0001138702,-0.0001258245,8,1
3.299956e-05,-0.0002558008,8,1
-7.769106e-05,-0.000342992,8,1
-0.0001776853,-0.000365519,8,1
-0.0002318152,-0.000318358,8,1
-0.000238946,-0.0002131776,8,1
-0.0002295462,-7.380149e-05,8,1
-0.0002405667,7.157111e-05,8,1
-0.0002809209,0.000200413,8,1
-0.0003173856,0.0003034866,8,1
-0.0002945344,0.0003770643,8,1
-0.0001622891,0.0004251977,8,1
9.377406e-05,0.0004564763,8,1
0.0004363802,0.0004794896,8,1
0.0007820658,0.0004963444,8,1
0.001033267,0.0005044477,8,1
0.00113002,0.0004976409,8,1
0.00107038,0.0004738173,8,1
0.0009042631,0.0004415663,8,1
0.0006961711,0.0004190393,8,1
0.0005007202,0.000423415,8,1
0.000349027,0.0004678209,8,1
0.0002521119,0.0005545259,8,1
0.0002078681,0.0006742922,8,1
0.0001889064,0.0008079963,8,1
0.0001501728,0.0009329488,8,1
5.698522e-05,0.001030998,8,1
-7.947377e-05,0.001101983,8,1
-0.000208964,0.001156923,8,1
-0.0002567732,0.001205705,8,1
-0.0001749302,0.001237632,8,1
6.90704e-06,0.001220453,8,1
0.0001872858,0.001123214,8,1
0.0002715597,0.0009467243,8,1
0.0002491947,0.0007243705,8,1
0.0002109473,0.0004971547,8,1
0.0002913317,0.0002901973,8,1
0.0005717048,0.0001127357,8,1
0.001020464,-4.138842e-05,8,1
0.001497909,-0.0001833576,8,1
0.001826741,-0.0003172236,8,1
0.001884436,-0.0004395829,8,1
0.001642634,-0.0005407116,8,1
0.001172482,-0.0006147755,8,1
0.0006050903,-0.000658371,8,1
8.194328e-05,-0.0006752257,8,1
-0.0002904828,-0.0006697156,8,1
-0.0004578962,-0.0006465403,8,1
-0.0004091146,-0.0006073205,8,1
-0.000176713,-0.0005509217,8,1
0.0001441764,-0.0004833405,8,1
0.0004240633,-0.0004277521,8,1
0.0005854804,-0.0004063595,8,1
0.0006154625,-0.0004280762,8,1
0.0005407503,-0.0004849611,8,1
0.0003947294,-0.000554001,8,1
0.0002007372,-0.0006139652,8,1
-2.113026e-05,-0.0006603158,8,1
-0.0002483458,-0.0006966184,8,1
-0.0004437966,-0.0007275729,8,1
-0.0005661559,-0.0007489655,8,1
-0.0006060239,-0.0007497758,8,1
-0.0005909518,-0.0007217386,8,1
-0.0005552975,-0.0006713362,8,1
-0.0005246671,-0.0006099135,8,1
-0.0005000332,-0.0005504355,8,1
-0.0004506033,-0.0005089468,8,1
-0.0003408851,-0.0004919299,8,1
-0.0001637477,-0.0004852853,8,1
5.163707e-05,-0.0004689167,8,1
0.0002568118,-0.0004316416,8,1
0.0004132049,-0.0003788084,8,1
0.0005060683,-0.0003259751,8,1
0.0005334574,-0.0002877277,8,1
0.0004963444,-0.0002713591,8,1
0.0004089912,-0.0002695764,8,1
0.0002914938,-0.0002668213,8,1
0.0001665414,-0.0002556388,8,1
5.212327e-05,-0.0002442942,8,1
-4.625038e-05,-0.0002506147,8,1
-0.0001353863,-0.0002789762,8,1
-0.0002193361,-0.0003160891,8,1
-0.0002916173,-0.0003376438,8,1
-0.0003533641,-0.0003235441,8,1
-0.000419973,-0.0002656868,8,1
-0.0004958195,-0.0001713648,8,1
-0.0005587008,-6.586029e-05,8,1
-0.0005661559,2.311357e-05,8,1
-0.0004906334,7.724339e-05,8,1
-0.0003420196,0.0001046324,8,1
-0.0001671511,0.0001294284,8,1
-2.680255e-05,0.0001762653,8,1
4.191315e-05,0.0002542187,8,1
5.309566e-05,0.0003527545,8,1
4.709924e-05,0.0004530729,8,1
5.714729e-05,0.0005404262,8,1
9.993253e-05,0.0006112488,8,1
0.0001772377,0.0006689441,8,1
0.0002665357,0.0007233981,8,1
0.0003282826,0.0007793107,8,1
0.000329255,0.0008287407,8,1
0.000264753,0.0008530504,8,1
0.0001498487,0.0008397611,8,1
-7.100305e-07,0.0007896828,8,1
-0.0001810887,0.0007177258,8,1
-0.0003758912,0.0006431757,8,1
-0.000556594,0.0005786736,8,1
-0.000700508,0.0005378332,8,1
-0.0008034194,0.0005290816,8,1
-0.0008684076,0.0005480433,8,1
-0.0008933656,0.0005764047,8,1
-0.0008727834,0.0005888838,8,1
-0.0007977472,0.0005585775,8,1
-0.0006638812,0.0004783552,8,1
-0.0004927403,0.0003684748,8,1
-0.0003439643,0.0002621599,8,1
-0.0002823795,0.0001820997,8,1
-0.0003360231,0.0001334801,8,1
-0.0004690787,0.0001112771,8,1
-0.0006079687,0.000108522,8,1
-0.000685436,0.0001164632,8,1
-0.0006740913,0.0001237561,8,1
-0.0005977586,0.0001175977,8,1
-0.000496954,8.307774e-05,8,1
-0.0003982562,1.290346e-05,8,1
-0.0003180339,-8.806324e-05,8,1
-0.0002818933,-0.0002010227,8,1
-0.0002990722,-0.0003068514,8,1
-0.0003384541,-0.0003943667,8,1
-0.0003520676,-0.0004608134,8,1
-0.0003188442,-0.0005057055,8,1
-0.0002619593,-0.0005277464,8,1
-0.0002133397,-0.0005269361,8,1
-0.0001771992,-0.0005089468,8,1
-0.0001253383,-0.0004817198,8,1
-2.550602e-05,-0.0004535205,8,1
0.0001467694,-0.0004309934,8,1
0.0003987811,-0.0004149489,8,1
0.0007188602,-0.0004014975,8,1
0.001071677,-0.0003875599,8,1
0.001391756,-0.0003755671,8,1
0.001609897,-0.0003692465,8,1
0.001682988,-0.0003656811,8,1
0.001616217,-0.0003593606,8,1
0.001460148,-0.0003438023,8,1
0.00128771,-0.0003134961,8,1
0.001160165,-0.0002681178,8,1
0.001089018,-0.0002107467,8,1
0.001035374,-0.0001475412,8,1
0.0009321384,-8.44978e-05,8,1
0.0007178878,-2.874733e-05,8,1
0.0003743092,8.689758e-06,8,1
-5.678463e-05,1.97102e-05,8,1
-0.000489661,6.420843e-06,8,1
-0.0008381014,-2.194059e-05,8,1
-0.001047814,-5.159854e-05,8,1
-0.001096758,-6.926366e-05,8,1
-0.001002922,-6.553616e-05,8,1
-0.0008290258,-4.495386e-05,8,1
-0.0006504298,-1.351319e-05,8,1
-0.0005253154,2.376183e-05,8,1
-0.0004765338,6.022653e-05,8,1
-0.0004974402,9.118101e-05,8,1
-0.000561456,0.0001124116,8,1
-0.0006304958,0.0001226217,8,1
-0.0006580469,0.0001222976,8,1
-0.0006084549,0.0001145184,8,1
-0.0004694029,0.0001044704,8,1
-0.0002588801,9.814982e-05,8,1
-2.356124e-05,9.847395e-05,8,1
0.0001801549,0.0001069013,8,1
0.0003256896,0.0001245665,8,1
0.0004256839,0.0001441764,8,1
0.0005204921,0.000155683,8,1
0.000651441,0.0001548727,8,1
0.0008264717,0.0001441764,8,1
0.001013657,0.0001342904,8,1
0.001170051,0.0001385041,8,1
0.001261131,0.0001551968,8,1
0.001251894,0.0001553589,8,1
0.001113328,0.0001025256,8,1
0.0008577504,-1.156841e-05,8,1
0.0005514466,-0.0001608306,8,1
0.0002726942,-0.0002998826,8,1
5.828175e-05,-0.0003875599,8,1
-9.989401e-05,-0.0004068457,8,1
-0.0002308428,-0.0003666535,8,1
-0.000360333,-0.0002898345,8,1
-0.0005029504,-0.0002005366,8,1
-0.0006515643,-0.0001162626,8,1
-0.0007744097,-4.608832e-05,8,1
-0.0008397221,1.290346e-05,8,1
-0.0008522011,6.751948e-05,8,1
-0.0008601423,0.0001174356,8,1
-0.0009129756,0.000155521,8,1
-0.001020749,0.0001785342,8,1
-0.00114246,0.0001887444,8,1
-0.001210852,0.0001924718,8,1
-0.00116596,0.0001957132,8,1
-0.0009821774,0.0002008992,8,1
-0.0006867325,0.000210299,8,1
-0.0003444506,0.0002303951,8,1
-1.124428e-05,0.0002663737,8,1
0.0003005694,0.0003250413,8,1
0.0005932595,0.0004026706,8,1
0.0008554814,0.0004895377,8,1
0.001062763,0.0005760806,8,1
0.001189985,0.000656303,8,1
0.001225963,0.0007300428,8,1
0.001179612,0.0007955172,8,1
0.001080428,0.0008428403,8,1
0.0009770306,0.0008499712,8,1
0.0009097734,0.0008028102,8,1
0.0008932427,0.0007013571,8,1
0.0009073424,0.0005551741,8,1
0.0009071803,0.0003814401,8,1
0.000834575,0.0001996027,8,1
0.0006622995,2.927205e-05,8,1
0.0004253598,-0.0001157764,8,1
0.0002146748,-0.0002407288,8,1
0.0001329939,-0.0003585502,8,1
0.0002243987,-0.0004724821,8,1
0.0004352458,-0.0005695592,8,1
0.0006537099,-0.0006280648,8,1
0.0007840106,-0.0006394094,8,1
0.0007783383,-0.0006082929,8,1
0.0006355586,-0.000549301,8,1
0.000381278,-0.000479613,8,1
3.60788e-05,-0.0004089525,8,1
-0.0003956632,-0.0003391024,8,1
-0.0008880175,-0.0002708729,8,1
-0.001359303,-0.0002068571,8,1
-0.001703044,-0.0001501342,8,1
-0.001852306,-0.000104756,8,1
-0.001811142,-7.704279e-05,8,1
-0.001639028,-7.363943e-05,8,1
-0.001428667,-9.778715e-05,8,1
-0.001258175,-0.0001507825,8,1
-0.001159153,-0.0002261429,8,1
-0.001106806,-0.0003096065,8,1
-0.001049272,-0.0003846427,8,1
-0.0009476576,-0.0004343968,8,1
-0.0007748959,-0.0004514136,8,1
-0.0005157535,-0.0004306693,8,1
-0.0001890299,-0.0003742705,8,1
0.0001446626,-0.0002943724,8,1
0.000411098,-0.0002143121,8,1
0.000557281,-0.0001511067,8,1
0.0005781874,-0.0001045939,8,1
0.0005131993,-6.326724e-05,8,1
0.0004153117,-1.124428e-05,8,1
0.0003237448,6.330578e-05,8,1
0.000262322,0.0001573037,8,1
0.0002470879,0.0002571359,8,1
0.0002782044,0.0003433547,8,1
0.0003368721,0.0003922984,8,1
0.0003999155,0.0003869503,8,1
0.0004535592,0.0003252034,8,1
0.0004950479,0.0002156472,8,1
0.0005261644,8.226741e-05,8,1
0.0005460985,-3.976777e-05,8,1
0.0005485295,-0.000117235,8,1
0.0005279472,-0.0001391138,8,1
0.0004744656,-0.0001067007,8,1
0.0003856538,-2.566809e-05,8,1
0.0002762596,9.037068e-05,8,1
0.0001707551,0.0002059233,8,1
9.085688e-05,0.0002683184,8,1
5.390598e-05,0.0002422259,8,1
7.124698e-05,0.0001443384,8,1
0.0001404489,2.441009e-05,8,1
0.0002422259,-6.796714e-05,8,1
0.000349027,-0.0001081593,8,1
0.0004328148,-0.0001011905,8,1
0.0004767345,-6.39155e-05,8,1
0.0004615004,-1.497178e-05,8,1
0.0003409237,3.18651e-05,8,1
6.654708e-05,6.654708e-05,8,1
-0.000343154,8.129502e-05,8,1
-0.0007878611,7.011252e-05,8,1
-0.001147484,2.748934e-05,8,1
-0.0013465,-4.333321e-05,8,1
-0.001372431,-0.0001339277,8,1
-0.00125234,-0.0002321393,8,1
-0.001029825,-0.0003264613,8,1
-0.0007565826,-0.000410087,8,1
-0.0004873921,-0.0004830164,8,1
-0.0002608248,-0.0005512458,8,1
-8.82253e-05,-0.000613803,8,1
4.142696e-05,-0.0006578848,8,1
0.0001462832,-0.0006620985,8,1
0.0002287745,-0.0006048895,8,1
0.0002754493,-0.0004755614,8,1
0.0002641047,-0.0002848105,8,1
0.0001817755,-5.59743e-05,8,1
2.76514e-05,0.0001867996,8,1
-0.0001828714,0.0004248736,8,1
-0.0004193247,0.0006451205,8,1
-0.000643461,0.000832306,8,1
-0.0008066607,0.0009673066,8,1
-0.0008813728,0.001025326,8,1
-0.0008687317,0.0009839993,8,1
-0.0007880232,0.000839437,8,1
-0.0006645294,0.000621621,8,1
-0.0005254775,0.0003864641,8,1
-0.0004021458,0.000187934,8,1
-0.0003068514,5.909208e-05,8,1
-0.0002196603,3.503668e-06,8,1
-0.0001013526,-2.168618e-06,8,1
8.210535e-05,1.403791e-05,8,1
0.0003616681,2.992031e-05,8,1
0.0007499768,3.688912e-05,8,1
0.001212674,3.283749e-05,8,1
0.001665485,2.084466e-05,8,1
0.002012144,7.879432e-06,8,1
0.002180369,1.002961e-07,8,1
0.002138718,-2.330684e-06,8,1
0.001904046,-2.42095e-05,8,1
0.001543612,-0.0001089697,8,1
0.001147523,-0.0002789762,8,1
0.0007997309,-0.0005063537,8,1
0.0005501501,-0.0007241695,8,1
0.000396188,-0.000859494,8,1
0.0002989488,-0.0008755385,8,1
0.0002133783,-0.0007817027,8,1
0.000121001,-0.000616072,8,1
1.776542e-05,-0.0004196489,8,1
-9.260107e-05,-0.0002222533,8,1
-0.0002094502,-3.944364e-05,8,1
-0.000328082,0.0001141943,8,1
-0.0004493068,0.0002122438,8,1
-0.0005820383,0.0002394708,8,1
-0.0007329211,0.0002107852,8,1
-0.0009030896,0.0001636242,8,1
-0.001084279,0.0001363972,8,1
-0.001256554,0.0001485521,8,1
-0.001394472,0.0001986303,8,1
-0.001464484,0.0002741528,8,1
-0.001446981,0.0003613439,8,1
-0.001357359,0.0004509661,8,1
-0.001230624,0.0005485295,8,1
-0.001098378,0.0006710509,8,1
-0.0009546264,0.0008259855,8,1
-0.0007711684,0.001001502,8,1
-0.0005270981,0.001171023,8,1
-0.0002094502,0.001310886,8,1
0.000180479,0.001409908,8,1
0.0005947181,0.001467603,8,1
0.0009566103,0.001497099,8,1
0.00119274,0.001510226,8,1
0.001275393,0.001500989,8,1
0.001224343,0.001445076,8,1
0.001090314,0.001308617,8,1
0.0009340832,0.001073135,8,1
0.0007908173,0.0007556491,8,1
0.0006465791,0.0004000776,8,1
0.0004608521,5.536457e-05,8,1
0.000210299,-0.0002426735,8,1
-7.995997e-05,-0.0004812336,8,1
-0.0003345645,-0.0006619364,8,1
-0.0004632444,-0.0007864026,8,1
-0.0004128421,-0.000852039,8,1
-0.0002023193,-0.0008630594,8,1
0.0001015532,-0.000832267,8,1
0.0004363802,-0.0007766787,8,1
0.0007520836,-0.0007149318,8,1
0.001004744,-0.0006684191,8,1
0.001154492,-0.0006505919,8,1
0.001184799,-0.0006661501,8,1
0.001112355,-0.0007078009,8,1
0.0009908061,-0.0007564205,8,1
0.0008822222,-0.0007966127,8,1
0.0008204753,-0.0008189777,8,1
0.0007960034,-0.0008210845,8,1
0.0007666696,-0.0008040677,8,1
0.0006900126,-0.0007718167,8,1
0.0005485295,-0.000730328,8,1
0.0003691231,-0.0006898117,8,1
0.0001965235,-0.0006564262,8,1
5.52025e-05,-0.0006254718,8,1
-6.197072e-05,-0.0005877105,8,1
-0.0001712027,-0.0005458977,8,1
-0.0002844864,-0.000509595,8,1
-0.0004018217,-0.0004903093,8,1
-0.0005160777,-0.0004904714,8,1
-0.0006129927,-0.0005000332,8,1
-0.0006719845,-0.000509595,8,1
-0.0006773326,-0.0005138087,8,1
-0.0006291993,-0.0005146191,8,1
-0.0005504355,-0.000516888,8,1
-0.0004789647,-0.000519319,8,1
-0.0004369898,-0.0005151053,8,1
-0.000405225,-0.0004914437,8,1
-0.0003447747,-0.0004345588,8,1
-0.0002345703,-0.0003426678,8,1
-8.482193e-05,-0.0002306807,8,1
5.811968e-05,-0.0001191798,8,1
0.0001235941,-1.918548e-05,8,1
5.325772e-05,6.687121e-05,8,1
-0.0001626133,0.0001423936,8,1
-0.0004729683,0.0002094887,8,1
-0.0007860785,0.0002611876,8,1
-0.001013294,0.0002892249,8,1
-0.001111019,0.000292142,8,1
-0.001071313,0.0002726942,8,1
-0.000923996,0.0002372019,8,1
-0.0007295177,0.0001968476,8,1
-0.0005522182,0.0001628139,8,1
-0.0004214316,0.0001453108,8,1
-0.0003164132,0.0001453108,8,1
-0.0002113949,0.0001560072,8,1
-0.0001185315,0.0001688103,8,1
-6.958779e-05,0.0001825859,8,1
-8.790117e-05,0.0002012234,8,1
-0.0001796301,0.0002231022,8,1
-0.0003373197,0.00024255,8,1
-0.0005403875,0.0002564877,8,1
-0.0007591756,0.000264753,8,1
-0.0009570573,0.0002709115,8,1
-0.001108264,0.000272208,8,1
-0.001192538,0.0002639427,8,1
-0.001188973,0.0002428742,8,1
-0.001103402,0.000217754,8,1
-0.0009731018,0.0002041406,8,1
-0.0008343739,0.000210137,8,1
-0.0006922426,0.0002282883,8,1
-0.0004982505,0.0002487085,8,1
-0.000166827,0.0002705873,8,1
0.0003598854,0.000299435,8,1
0.001035698,0.0003248792,8,1
0.001712646,0.0003177483,8,1
0.002210189,0.0002579462,8,1
0.002389272,0.0001517934,8,1
0.002216023,2.76514e-05,8,1
0.001790924,-7.931171e-05,8,1
0.001292896,-0.0001417068,8,1
0.000884167,-0.0001528894,8,1
0.0006434998,-0.0001233935,8,1
0.0005676532,-7.315322e-05,8,1
0.0005982835,-2.031993e-05,8,1
0.0006600305,2.133085e-05,8,1
0.0006969814,4.839576e-05,8,1
0.0006919574,6.346784e-05,8,1
0.0006580857,7.092284e-05,8,1
0.0006156246,7.740546e-05,8,1
0.000572191,8.46984e-05,8,1
0.0005268127,9.458438e-05,8,1
0.0004802999,0.000106091,8,1
0.0004320045,0.0001182459,8,1
0.0003853296,0.0001304008,8,1
0.0003440029,0.0001422316,8,1
0.000297004,0.0001569795,8,1
0.0002180782,0.0001796687,8,1
8.680524e-05,0.0002128921,8,1
-0.0001058904,0.0002571359,8,1
-0.0003459091,0.0003028383,8,1
-0.0006009999,0.0003397893,8,1
-0.0008500942,0.0003668542,8,1
-0.001082496,0.0003944053,8,1
-0.001281512,0.0004362182,8,1
-0.001422023,0.0004935893,8,1
-0.001485552,0.0005417228,8,1
-0.001472263,0.0005443158,8,1
-0.001396092,0.0004814344,8,1
-0.001270816,0.0003597233,8,1
-0.00110875,0.0002106232,8,1
-0.0009252926,7.076078e-05,8,1
-0.0007424829,-3.279896e-05,8,1
-0.0005758798,-9.033215e-05,8,1
-0.0004314796,-0.0001091317,8,1
-0.000315765,-0.0001065387,8,1
-0.0002391081,-9.746302e-05,8,1
-0.0002024813,-9.632857e-05,8,1
-0.0001934057,-0.0001190177,8,1
-0.0001872472,-0.0001707166,8,1
-0.0001579134,-0.0002473734,8,1
-8.887356e-05,-0.0003329439,8,1
2.181705e-05,-0.0004096008,8,1
0.0001714034,-0.000459679,8,1
0.0003446512,-0.0004760476,8,1
0.0005141716,-0.0004569239,8,1
0.0006472273,-0.0004063595,8,1
0.0007067053,-0.0003352128,8,1
0.0006725095,-0.000256287,8,1
0.0005618189,-0.0001789819,8,1
0.0004193634,-0.0001114006,8,1
0.000289387,-5.516398e-05,8,1
0.0001961994,-8.975362e-06,8,1
0.0001385041,2.781346e-05,8,1
0.0001004187,5.406805e-05,8,1
7.092284e-05,6.995045e-05,8,1
4.45062e-05,8.113296e-05,8,1
9.500085e-06,9.280167e-05,8,1
-3.814712e-05,0.0001017153,8,1
-8.07703e-05,0.0001030118,8,1
-7.623246e-05,9.393612e-05,8,1
1.857574e-05,8.323981e-05,8,1
0.0002030061,8.486046e-05,8,1
0.0004328148,0.0001083599,8,1
0.0006477135,0.0001584381,8,1
0.0007836864,0.0002360674,8,1
0.0007960034,0.0003370341,8,1
0.0006964952,0.0004530729,8,1
0.0005475571,0.000574622,8,1
0.0004130428,0.0006896885,8,1
0.0003294171,0.000784983,8,1
0.000289387,0.0008554814,8,1
0.0002577842,0.0008922703,8,1
0.0002128921,0.0008806016,8,1
0.0001594105,0.0008068618,8,1
0.0001193804,0.0006626236,8,1
0.0001114392,0.0004521006,8,1
0.0001399627,0.0001871237,8,1
0.0001955511,-0.0001081593,8,1
0.0002543808,-0.000400039,8,1
0.0002853353,-0.000648485,8,1
0.0002579462,-0.0008227052,8,1
0.0001611932,-0.0009102205,8,1
1.776542e-05,-0.0009150825,8,1
-0.0001259865,-0.0008573871,8,1
-0.000228898,-0.0007598239,8,1
-0.0002720074,-0.0006392473,8,1
-0.0002820554,-0.0005045711,8,1
-0.0003168994,-0.0003664914,8,1
-0.0004144627,-0.0002344082,8,1
-0.0005653456,-0.0001240417,8,1
-0.000717849,-4.85193e-05,8,1
-0.0008118468,-9.947754e-06,8,1
-0.000822219,-2.492749e-06,8,1
-0.0007645238,-1.886135e-05,8,1
-0.0006552918,-4.965376e-05,8,1
-0.0004744269,-8.498399e-05,8,1
-0.0001906506,-0.000114804,8,1
0.0001667035,-0.0001327933,8,1
0.0004864584,-0.0001329553,8,1
0.0006533858,-0.0001144799,8,1
0.0006274553,-8.854943e-05,8,1
0.0004593935,-7.396356e-05,8,1
0.0002513016,-8.174268e-05,8,1
9.16672e-05,-0.0001057284,8,1
1.533444e-05,-0.0001276072,8,1
2.149292e-05,-0.0001259865,8,1
9.750156e-05,-9.956988e-05,8,1
0.0002205092,-7.023606e-05,8,1
0.0003642611,-7.833932e-05,8,1
0.00051012,-0.0001486757,8,1
0.0006546823,-0.0002734659,8,1
0.0008029722,-0.0004146248,8,1
0.0009489932,-0.0005371462,8,1
0.001067625,-0.000616072,8,1
0.001123862,-0.0006397335,8,1
0.001094852,-0.0006149375,8,1
0.0009835132,-0.0005682627,8,1
0.0008185305,-0.0005355255,8,1
0.0006337758,-0.0005364979,8,1
0.0004501558,-0.000559025,8,1
0.0002668598,-0.0005747453,8,1
7.789165e-05,-0.0005548113,8,1
-0.0001117248,-0.0004847991,8,1
-0.0002898345,-0.0003697327,8,1
-0.0004442827,-0.0002376495,8,1
-0.0005608077,-0.0001274451,8,1
-0.0006290372,-6.148453e-05,8,1
-0.0006561021,-3.247483e-05,8,1
-0.0006802498,-1.788895e-05,8,1
-0.0007434553,4.80019e-06,8,1
-0.0008546321,4.82337e-05,8,1
-0.0009948185,0.000113546,8,1
-0.001130791,0.0001809652,8,1
-0.001233217,0.0002159713,8,1
-0.001284915,0.0002036544,8,1
-0.001271788,0.0001602208,8,1
-0.001192862,0.0001158149,8,1
-0.001065641,9.733949e-05,8,1
-0.0009149204,0.0001195424,8,1
-0.0007479931,0.0001842065,8,1
-0.000551732,0.0002806354,8,1
-0.0003147926,0.0003903536,8,1
-6.618442e-05,0.0004895377,8,1
0.0001312112,0.000564574,8,1
0.000230071,0.0006138419,8,1
0.0002412535,0.0006422033,8,1
0.0002120818,0.0006541961,8,1
0.0001846927,0.0006556547,8,1
0.0001843686,0.0006587339,8,1
0.0002196988,0.0006631098,8,1
0.0002927903,0.0006566271,8,1
0.0004007258,0.0006219451,8,1
0.0005264886,0.0005543638,8,1
0.0006255105,0.0004734932,8,1
0.0006480376,0.0004096394,8,1
0.0005648981,0.0003897054,8,1
0.0003841952,0.0004255218,8,1
0.0001524417,0.0005068787,8,1
-4.997789e-05,0.0006062248,8,1
-0.0001449482,0.0006916333,8,1
-0.0001081593,0.0007425218,8,1
2.846173e-05,0.0007608352,8,1
0.0002021958,0.00076278,8,1
0.0003425444,0.0007619697,8,1
0.0003966742,0.0007486803,8,1
0.0003370341,0.0007021675,8,1
0.000177886,0.0006060627,8,1
-2.988179e-05,0.0004647417,8,1
-0.0002250084,0.0003013798,8,1
-0.0003648708,0.0001449867,8,1
-0.0004136524,1.987227e-05,8,1
-0.0003447747,-6.861539e-05,8,1
-0.0001695821,-0.0001285796,8,1
6.865393e-05,-0.0001746061,8,1
0.0003052694,-0.0002258187,8,1
0.0004931031,-0.0002966413,8,1
0.0006177314,-0.0003932322,8,1
0.0006845024,-0.0005068399,8,1
0.0007092984,-0.0006193133,8,1
0.0007026537,-0.0007133111,8,1
0.0006666752,-0.0007789475,8,1
0.0006013628,-0.0008108745,8,1
0.000507689,-0.0008082814,8,1
0.0003952156,-0.0007747339,8,1
0.0002798251,-0.0007256281,8,1
0.0001563313,-0.000683005,8,1
6.096713e-06,-0.0006577228,8,1
-0.0001757406,-0.0006442713,8,1
-0.000362926,-0.0006327647,8,1
-0.0005074882,-0.0006168823,8,1
-0.0005703696,-0.0005993792,8,1
-0.0005444391,-0.0005800935,8,1
-0.0004629203,-0.000556594,8,1
-0.0003723258,-0.0005293671,8,1
-0.0002956689,-0.0004941989,8,1
-0.0002382978,-0.0004457413,8,1
-0.0002023193,-0.0003861013,8,1
-0.0001835197,-0.0003266234,8,1
-0.0001746061,-0.0002814071,8,1
-0.0001851404,-0.0002520733,8,1
-0.0002233878,-0.0002282497,8,1
-0.0002700626,-0.0001948643,8,1
-0.0002966413,-0.0001431655,8,1
-0.0002943724,-7.736692e-05,8,1
-0.0002937241,-7.354709e-06,8,1
-0.0003444506,6.03886e-05,8,1
-0.0004603272,0.0001198666,8,1
-0.0006034309,0.0001683241,8,1
-0.000730328,0.0002067336,8,1
-0.0008233535,0.0002417397,8,1
-0.0008729455,0.0002754493,8,1
-0.0008509046,0.000302028,8,1
-0.0007183352,0.0003180725,8,1
-0.0004624341,0.0003200173,8,1
-0.000127283,0.0003088348,8,1
0.0002008992,0.0002901973,8,1
0.0004415663,0.000274639,8,1
0.000564574,0.000267346,8,1
0.0005848321,0.0002639427,8,1
0.0005388056,0.0002466017,8,1
0.0004624728,0.0001863134,8,1
0.0003710679,6.800567e-05,8,1
0.0002624841,-9.146661e-05,8,1
0.0001409351,-0.0002472114,8,1
1.501031e-05,-0.0003494746,8,1
-0.0001068628,-0.0003694086,8,1
-0.0001981056,-0.000310903,8,1
-0.0002060468,-0.0002029675,8,1
-0.0001036215,-7.850138e-05,8,1
6.962632e-05,4.158902e-05,8,1
0.0002287745,0.0001470936,8,1
0.0002944109,0.0002393087,8,1
0.0002341226,0.0003221241,8,1
6.573675e-05,0.0003893813,8,1
-0.0001634236,0.0004300596,8,1
-0.0003880461,0.0004391353,8,1
-0.0005420081,0.0004243874,8,1
-0.0005896553,0.0003979707,8,1
-0.0005332566,0.000373985,8,1
-0.0004068457,0.000361506,8,1
-0.000248832,0.0003666921,8,1
-8.660465e-05,0.0003901916,8,1
6.249545e-05,0.000433301,8,1
0.0001895547,0.0004966686,8,1
0.0002924662,0.0005730013,8,1
0.0003736609,0.0006480376,8,1
0.0004367043,0.0007031399,8,1
0.0004884033,0.0007365254,8,1
0.0005332953,0.0007661834,8,1
0.0005759185,0.0008151271,8,1
0.0006174073,0.0008809257,8,1
0.0006537099,0.0009282488,8,1
0.0006749405,0.0009073424,8,1
0.0006751026,0.0007882243,8,1
0.0006503066,0.0005777013,8,1
0.0006024973,0.000314345,8,1
0.0005345919,4.580272e-05,8,1
0.0004577728,-0.0001854645,8,1
0.0004002396,-0.0003569296,8,1
0.0003987811,-0.0004624341,8,1
0.000475438,-0.0005128364,8,1
0.0006269692,-0.000529205,8,1
0.0008212856,-0.0005272602,8,1
0.001003447,-0.0005180225,8,1
0.001105549,-0.0005097571,8,1
0.001078808,-0.0005087847,8,1
0.0009165801,-0.0005212637,8,1
0.0006684579,-0.0005463839,8,1
0.0004093153,-0.000573935,8,1
0.0001822617,-0.0005917621,8,1
-2.09682e-05,-0.0005941931,8,1
-0.0002172293,-0.0005792832,8,1
-0.0004074939,-0.000549301,8,1
-0.0005924104,-0.0005105674,8,1
-0.0007706822,-0.0004728062,8,1
-0.000943768,-0.0004415277,8,1
-0.001108102,-0.0004209454,8,1
-0.001239375,-0.0004096008,8,1
-0.001319759,-0.0003964735,8,1
-0.001347635,-0.0003749188,8,1
-0.00132138,-0.0003418575,8,1
-0.001236458,-0.0002987481,8,1
-0.001099351,-0.0002472114,8,1
-0.0009329096,-0.0001888679,8,1
-0.0007672789,-0.000127121,8,1
-0.0006194753,-6.667062e-05,8,1
-0.0004757234,-1.805102e-05,8,1
-0.0002942103,1.630683e-05,8,1
-2.84232e-05,4.402e-05,8,1
0.0003221241,6.525056e-05,8,1
0.0006846645,5.260946e-05,8,1
0.0009575827,-1.643037e-05,8,1
0.001082535,-0.0001361966,8,1
0.001075404,-0.000268766,8,1
0.0009870786,-0.0003741085,8,1
0.0008700673,-0.0004206212,8,1
0.0007652109,-0.0003987424,8,1
0.0006929298,-0.0003190063,8,1
0.0006430136,-0.0002057227,8,1
0.0005859666,-8.44978e-05,8,1
0.0005089855,2.197911e-05,8,1
0.0004204978,9.296373e-05,8,1
0.0003461098,0.0001240803,8,1
0.0003106175,0.0001287802,8,1
0.0003098072,0.0001289422,8,1
0.0003017039,0.0001360731,8,1
0.00022764,0.0001508211,8,1
5.747142e-05,0.000162976,8,1
-0.0001885437,0.0001657311,8,1
-0.0004510895,0.0001611932,8,1
-0.0006562641,0.0001561692,8,1
-0.000752693,0.0001545486,8,1
-0.0007332452,0.0001626518,8,1
-0.0006317923,0.000187934,8,1
-0.0004997091,0.0002313675,8,1
-0.0003875599,0.0002830664,8,1
-0.0003214373,0.0003295791,8,1
-0.0002948586,0.000368961,8,1
-0.0002741142,0.0004106118,8,1
-0.0002319772,0.0004621486,8,1
-0.000169258,0.0005167646,8,1
-0.0001078352,0.000552419,8,1
-7.493595e-05,0.0005441537,8,1
-0.0001011905,0.0004864584,8,1
-0.0002258187,0.0003903536,8,1
-0.000459841,0.0002801492,8,1
-0.0007641996,0.0001812893,8,1
-0.001060617,0.0001072255,8,1
-0.001271788,6.687121e-05,8,1
-0.001344231,5.876794e-05,8,1
-0.001258337,7.756752e-05,8,1
-0.001023828,0.0001171115,8,1
-0.0006883531,0.0001654069,8,1
-0.0003290543,0.000205275,8,1
-3.863332e-05,0.0002088404,8,1
0.0001287802,0.0001571416,8,1
0.000192958,5.487838e-05,8,1
0.0002310434,-6.91016e-05,8,1
0.0003357376,-0.0001810887,8,1
0.0005603603,-0.0002609869,8,1
0.0008875704,-0.0003037722,8,1
0.001257566,-0.0003191683,8,1
0.001596445,-0.0003211132,8,1
0.001831603,-0.0003156029,8,1
0.001915877,-0.0003062031,8,1
0.001847647,-0.0002979378,8,1
0.001659975,-0.0002980999,8,1
0.001408449,-0.0003113892,8,1
0.001142013,-0.0003397507,8,1
0.0008749293,-0.0003695707,8,1
0.0006002283,-0.0003788084,8,1
0.0003078624,-0.0003579019,8,1
5.610517e-06,-0.0003168994,8,1
-0.0002817312,-0.0002731418,8,1
-0.0005206155,-0.0002370013,8,1
-0.0006820326,-0.0002099363,8,1
-0.0007432932,-0.0001809267,8,1
-0.0007027769,-0.0001392759,8,1
-0.0005873864,-7.995997e-05,8,1
-0.0004465517,-4.761664e-06,8,1
-0.0003394265,6.995045e-05,8,1
-0.0003097686,0.0001276457,8,1
-0.0003515814,0.000158114,8,1
-0.0004238625,0.0001652449,8,1
-0.0004835025,0.0001616794,8,1
-0.0004993849,0.000160707,8,1
-0.0004638926,0.0001676758,8,1
-0.0003888564,0.0001757791,8,1
-0.0002953447,0.0001689724,8,1
-0.000199078,0.0001445005,8,1
-0.0001050801,0.0001143563,8,1
-1.464765e-05,8.291568e-05,8,1
8.145709e-05,4.191315e-05,8,1
0.0001932822,-1.594417e-05,8,1
0.0003114278,-7.898758e-05,8,1
0.0004127187,-0.0001274451,8,1
0.0004674968,-0.0001412206,8,1
0.0004504799,-0.000112373,8,1
0.0003503235,-4.106429e-05,8,1
0.0001816135,6.395404e-05,8,1
-2.599222e-05,0.0001876099,8,1
-0.0002475355,0.000307052,8,1
-0.0004554653,0.0004008879,8,1
-0.000623527,0.0004522626,8,1
-0.0007426449,0.0004540453,8,1
-0.0008194639,0.0004154738,8,1
-0.0008735937,0.0003598854,8,1
-0.0009197823,0.0003156415,8,1
-0.0009619193,0.000299597,8,1
-0.001000653,0.0003106175,8,1
-0.001038252,0.0003328204,8,1
-0.001073582,0.0003503235,8,1
-0.00111653,0.0003522683,8,1
-0.001163204,0.0003352514,8,1
-0.00118249,0.0003046211,8,1
-0.001133384,0.0002694529,8,1
-0.0009969254,0.0002372019,8,1
-0.0007982334,0.000205275,8,1
-0.0005932208,0.0001731861,8,1
-0.0004386105,0.0001501728,8,1
-0.0003721637,0.0001534141,8,1
-0.000410087,0.0001911753,8,1
-0.0005345531,0.000250005,8,1
-0.0006935392,0.0002987867,8,1
-0.0008154123,0.0003041349,8,1
-0.0008379394,0.0002527602,8,1
-0.0007340555,0.0001519555,8,1
-0.0005149432,2.748934e-05,8,1
-0.0002272773,-9.065628e-05,8,1
7.465034e-05,-0.0001788198,8,1
0.0003697714,-0.0002258187,8,1
0.0006728336,-0.0002355427,8,1
0.0009857821,-0.000221443,8,1
0.001282686,-0.0002052365,8,1
0.001522057,-0.0002024813,8,1
0.001678613,-0.0002193361,8,1
0.001751704,-0.0002506147,8,1
0.001757052,-0.0002922655,8,1
0.001716212,-0.0003412093,8,1
0.001640041,-0.000400201,8,1
0.001532105,-0.0004791268,8,1
0.00140537,-0.0005875485,8,1
0.001290952,-0.0007160662,8,1
0.001217536,-0.0008384255,8,1
0.001178316,-0.0009217271,8,1
0.001134396,-0.0009470092,8,1
0.001062439,-0.0009105446,8,1
0.0009804339,-0.0008178432,8,1
0.0009300316,-0.0006841394,8,1
0.0009332729,-0.0005339049,8,1
0.0009765443,-0.0003943667,8,1
0.001009282,-0.0002865932,8,1
0.0009838373,-0.0002219292,8,1
0.0008827084,-0.0001943781,8,1
0.000725667,-0.0001846542,8,1
0.0005482053,-0.0001677994,8,1
0.0003754436,-0.0001319829,8,1
0.0002206712,-8.303922e-05,8,1
8.939829e-05,-3.21507e-05,8,1
-1.3027e-05,9.338019e-06,8,1
-8.952183e-05,3.202716e-05,8,1
-0.0001647201,2.992031e-05,8,1
-0.0002606628,2.084466e-05,8,1
-0.0003721637,4.418206e-05,8,1
-0.0004784786,0.0001261871,8,1
-0.000554001,0.0002616738,8,1
-0.0005778245,0.0004140152,8,1
-0.0005407116,0.0005290816,8,1
-0.0004565997,0.0005683015,8,1
-0.0003533641,0.000532485,8,1
-0.0002498044,0.000458259,8,1
-0.0001511067,0.0003926226,8,1
-6.715681e-05,0.0003631267,8,1
-2.404744e-05,0.0003553475,8,1
-6.342931e-05,0.0003277964,8,1
-0.0002092881,0.0002540567,8,1
-0.0004309934,0.0001419075,8,1
-0.0006543194,2.505836e-05,8,1
-0.0008053642,-6.456377e-05,8,1
-0.0008505805,-0.000112373,8,1
-0.000799854,-0.0001251762,8,1
-0.0006890013,-0.0001161005,8,1
-0.0005578905,-9.811128e-05,8,1
-0.000439907,-7.979791e-05,8,1
-0.0003528779,-6.180866e-05,8,1
-0.0002896725,-4.155049e-05,8,1
-0.0002347323,-7.678839e-06,8,1
-0.0001853024,4.239934e-05,8,1
-0.0001535376,0.0001033359,8,1
-0.0001605064,0.0001667035,8,1
-0.000231329,0.0002323399,8,1
-0.0003841565,0.0003036487,8,1
-0.0005963,0.0003824125,8,1
-0.0008214086,0.0004657141,8,1
-0.001012808,0.0005516087,8,1
-0.001135977,0.0006441481,8,1
-0.001162718,0.0007462493,8,1
-0.001067748,0.0008493229,8,1
-0.0008466908,0.0009337591,8,1
-0.0005282326,0.0009762202,8,1
-0.0001677994,0.0009574206,8,1
0.0001611932,0.0008762258,8,1
0.0003953777,0.0007537043,8,1
0.0005208163,0.0006200004,8,1
0.0005681394,0.0004992616,8,1
0.0005900182,0.0004026706,8,1
0.000629238,0.0003227724,8,1
0.0006775336,0.0002333123,8,1
0.0006817472,0.0001070634,8,1
0.0005807805,-6.553616e-05,8,1
0.0003519442,-0.000266011,8,1
2.829966e-05,-0.0004580583,8,1
-0.0003165753,-0.0006044033,8,1
-0.0005963,-0.0006810602,8,1
-0.0007525309,-0.0006846256,8,1
-0.0007614446,-0.0006342233,8,1
-0.0006176926,-0.0005572423,8,1
-0.0003308371,-0.0004804233,8,1
5.876794e-05,-0.0004235384,8,1
0.0004785172,-0.0003922598,8,1
0.0008433265,-0.0003830221,8,1
0.001083346,-0.0003895047,8,1
0.001170051,-0.0004023079,8,1
0.001112841,-0.0004173799,8,1
0.0009472105,-0.0004376381,8,1
0.0007300428,-0.0004619479,8,1
0.000530054,-0.0004890127,8,1
0.0003991052,-0.0005178604,8,1
0.0003558337,-0.0005429805,8,1
0.000381278,-0.000549139,8,1
0.0004355699,-0.0005283947,8,1
0.0004702519,-0.0004919299,8,1
0.0004501558,-0.0004653512,8,1
0.000368799,-0.0004695649,8,1
0.0002485465,-0.0005035987,8,1
0.0001200286,-0.000541684,8,1
7.23117e-06,-0.0005480045,8,1
-9.065628e-05,-0.0004950092,8,1
-0.0001825473,-0.0003822118,8,1
-0.0002564491,-0.0002352185,8,1
-0.0002805968,-9.341139e-05,8,1
-0.0002271153,6.744974e-06,8,1
-0.0001126972,4.758544e-05,8,1
2.531276e-06,3.510641e-05,8,1
5.649903e-05,-1.189254e-05,8,1
1.857574e-05,-7.169464e-05,8,1
-0.0001000561,-0.0001201522,8,1
-0.0002608248,-0.0001405724,8,1
-0.0004190006,-0.0001426792,8,1
-0.0005455735,-0.0001559686,8,1
-0.0006334129,-0.0001951884,8,1
-0.0006904599,-0.0002494803,8,1
-0.0007329211,-0.0002895104,8,1
-0.0007745718,-0.0002968033,8,1
-0.0008103882,-0.000266011,8,1
-0.0008264327,-0.0002010227,8,1
-0.0008024471,-0.0001081593,8,1
-0.0007116905,2.04508e-06,8,1
-0.0005463839,0.0001179218,8,1
-0.0003335922,0.0002245608,8,1
-0.0001277692,0.0002971661,8,1
1.679302e-05,0.000311914,8,1
7.643307e-05,0.0002649151,8,1
5.487838e-05,0.0001872858,8,1
-4.203669e-05,0.0001232699,8,1
-0.0002029675,0.0001088461,8,1
-0.0003980942,0.0001637863,8,1
-0.0005833348,0.0002804733,8,1
-0.0007141214,0.0004363802,8,1
-0.0007658203,0.0005966629,8,1
-0.0007483172,0.000738146,8,1
-0.0006966184,0.0008558056,8,1
-0.0006548056,0.0009528828,8,1
-0.0006499436,0.001027757,8,1
-0.0006667984,0.001063736,8,1
-0.0006499436,0.001047205,8,1
-0.000526774,0.0009912923,8,1
-0.0002525595,0.0009267902,8,1
0.0001602208,0.0008835187,8,1
0.0006349103,0.0008632605,8,1
0.001074918,0.0008404093,8,1
0.001399374,0.0007781762,8,1
0.001569218,0.0006535479,8,1
0.001598876,0.0004709002,8,1
0.00152303,0.0002615117,8,1
0.001369715,7.221937e-05,8,1
0.001165027,-6.213279e-05,8,1
0.0009687652,-0.0001340898,8,1
0.0008579124,-0.0001627754,8,1
0.0008606675,-0.000176875,8,1
0.0009300316,-0.0001930815,8,1
0.0009742755,-0.0002173914,8,1
0.000918687,-0.0002489941,8,1
0.0007584042,-0.0002781658,8,1
0.0005478812,-0.0002940482,8,1
0.0003658818,-0.0002906449,8,1
0.0002650771,-0.0002731418,8,1
0.0002365536,-0.0002501286,8,1
0.0002221298,-0.0002350565,8,1
0.0001501728,-0.000233922,8,1
-2.161646e-05,-0.0002452666,8,1
-0.0002757348,-0.0002585559,8,1
-0.0005429805,-0.0002697385,8,1
-0.0007646859,-0.0002807589,8,1
-0.0009110308,-0.0002874036,8,1
-0.0009862292,-0.0002804347,8,1
-0.001017994,-0.0002509389,8,1
-0.001039711,-0.0002037779,8,1
-0.001072124,-0.0001559686,8,1
-0.00110794,-0.0001293899,8,1
-0.001116854,-0.0001319829,8,1
-0.001056727,-0.0001554824,8,1
-0.0009022792,-0.000186761,8,1
-0.0006595054,-0.0002152845,8,1
-0.0003695707,-0.0002350565,8,1
-9.049421e-05,-0.0002472114,8,1
0.000130887,-0.0002533699,8,1
0.0002751252,-0.0002540181,8,1
0.0003532407,-0.0002481838,8,1
0.0004025085,-0.0002348944,8,1
0.0004618245,-0.0002099363,8,1
0.0005514466,-0.0001741199,8,1
0.0006682958,-0.0001300382,8,1
0.0007932483,-8.158062e-05,8,1
0.0009021563,-3.247483e-05,8,1
0.0009666584,1.322759e-05,8,1
0.0009616343,5.957827e-05,8,1
0.000884167,0.0001080358,8,1
0.000752894,0.0001573037,8,1
0.0005911527,0.0002062474,8,1
0.0004104497,0.0002592428,8,1
0.0002078681,0.000324393,8,1
-1.432352e-05,0.0004096394,8,1
-0.0002219292,0.0005144958,8,1
-0.0003645466,0.0006221072,8,1
-0.0004078181,0.000708326,8,1
-0.000343154,0.0007525698,8,1
-0.0001859507,0.0007392805,8,1
3.089271e-05,0.0006679717,8,1
0.0002670219,0.0005490156,8,1
0.0004882411,0.0004041292,8,1
0.0006846645,0.0002613496,8,1
0.0008650433,0.0001401247,8,1
0.001030836,4.320967e-05,8,1
0.00116373,-3.587821e-05,8,1
0.001235687,-0.0001005423,8,1
0.001219967,-0.0001408965,8,1
0.001105549,-0.0001572651,8,1
0.0009018321,-0.0001750923,8,1
0.0006387999,-0.0002311669,8,1
0.0003543751,-0.0003358611,8,1
8.648112e-05,-0.000467134,8,1
-0.0001506204,-0.0005896553,8,1
-0.00036795,-0.0006736051,8,1
-0.0005950035,-0.0007022907,8,1
-0.0008654904,-0.0006734431,8,1
-0.001186056,-0.0005974344,8,1
-0.001520721,-0.0004914437,8,1
-0.001815679,-0.0003728119,8,1
-0.002031551,-0.0002582318,8,1
-0.002155531,-0.0001608306,8,1
-0.00219232,-9.389759e-05,8,1
-0.002154072,-6.245691e-05,8,1
-0.002046299,-6.342931e-05,8,1
-0.001885692,-8.40116e-05,8,1
-0.001699641,-0.0001071869,8,1
-0.001514238,-0.0001233935,8,1
-0.001342935,-0.0001306864,8,1
-0.001193835,-0.0001340898,8,1
-0.001057214,-0.0001363587,8,1
-0.0009081136,-0.0001295519,8,1
-0.0007270867,-0.0001010285,8,1
-0.0005227224,-4.511593e-05,8,1
-0.0003227338,3.170304e-05,8,1
-0.0001609926,0.0001137081,8,1
-6.035007e-05,0.0001970097,8,1
-1.124428e-05,0.0002927903,8,1
1.614476e-05,0.0004175806,8,1
4.693717e-05,0.0005760806,8,1
9.231547e-05,0.0007460872,8,1
0.0001608691,0.0008794671,8,1
0.0002705873,0.0009203076,8,1
0.0004498317,0.0008357094,8,1
0.0007084881,0.0006384758,8,1
0.001023057,0.0003780367,8,1
0.001345081,0.0001146805,8,1
0.0016274,-0.00010978,8,1
0.001845216,-0.0002773555,8,1
0.001995613,-0.0003942046,8,1
0.002091881,-0.0004710235,8,1
0.002142769,-0.0005202913,8,1
0.002117811,-0.0005510838,8,1
0.001950883,-0.0005645352,8,1
0.00160228,-0.0005630766,8,1
0.001101335,-0.000554163,8,1
0.0005339436,-0.0005429805,8,1
4.47606e-06,-0.0005305015,8,1
-0.0003980942,-0.0005129984,8,1
-0.0006280648,-0.0004859335,8,1
-0.0006817085,-0.0004502792,8,1
-0.0005698834,-0.0004118697,8,1
-0.0003141443,-0.0003700569,8,1
4.531652e-05,-0.0003204649,8,1
0.0004435111,-0.0002647144,8,1
0.0008094548,-0.0002042641,8,1
0.001087397,-0.0001417068,8,1
0.001244115,-8.44978e-05,8,1
0.001272638,-4.462973e-05,8,1
0.001197764,-2.291298e-05,8,1
0.001061305,-1.562004e-05,8,1
0.0008969702,-1.448558e-05,8,1
0.0007224257,-1.62683e-05,8,1
0.0005413986,-2.194059e-05,8,1
0.0003551855,-3.409549e-05,8,1
0.0001673517,-6.261898e-05,8,1
-2.307504e-05,-0.0001216107,8,1
-0.0002188499,-0.000209126,8,1
-0.0004118697,-0.0003045825,8,1
-0.0005802555,-0.0003760533,8,1
-0.000710556,-0.000400201,8,1
-0.0008081193,-0.0003702189,8,1
-0.0008765109,-0.0002961551,8,1
-0.0009038999,-0.0001911368,8,1
-0.0008664628,-7.444975e-05,8,1
-0.0007457242,4.126489e-05,8,1
-0.0005381186,0.0001513072,8,1
-0.0002629317,0.0002483844,8,1
3.640293e-05,0.0003248792,8,1
0.0002927903,0.0003794953,8,1
0.000440756,0.0004130428,8,1
0.0004618245,0.0004269804,8,1
0.0003900295,0.000428277,8,1
0.0002537325,0.0004264942,8,1
3.640293e-05,0.0004277907,8,1
-0.0002793003,0.0004376768,8,1
-0.0006562641,0.0004574487,8,1
-0.001011349,0.0004884033,8,1
-0.001263685,0.0005341057,8,1
-0.001378751,0.0005940699,8,1
-0.001370648,0.0006592202,8,1
-0.001279567,0.0007217774,8,1
-0.001143757,0.0007807693,8,1
-0.0009857429,0.0008483506,8,1
-0.0008026091,0.0009345694,8,1
-0.0005796073,0.001038778,8,1
-0.0003261372,0.001124672,8,1
-8.44978e-05,0.001130831,8,1
8.939829e-05,0.001013333,8,1
0.0001574657,0.0007721797,8,1
0.0001163011,0.0004537212,8,1
3.989864e-06,0.000128456,8,1
-0.0001112386,-0.0001391138,8,1
-0.0001810887,-0.0003118754,8,1
-0.0001932436,-0.0003873979,8,1
-0.0001540238,-0.0003899909,8,1
-8.806324e-05,-0.0003527159,8,1
-2.583016e-05,-0.0003071755,8,1
1.727922e-05,-0.0002771934,8,1
4.175109e-05,-0.0002721694,8,1
5.828175e-05,-0.0002921034,8,1
7.789165e-05,-0.0003251648,8,1
0.0001065772,-0.0003645466,8,1
0.000145635,-0.0004053871,8,1
0.000187934,-0.0004454172,8,1
0.0002284504,-0.0004864197,8,1
0.0002611876,-0.0005293671,8,1
0.0002723701,-0.0005711799,8,1
0.0002509774,-0.0006008379,8,1
0.0001957132,-0.0006100755,8,1
0.0001197045,-0.0005945173,8,1
3.380988e-05,-0.0005548113,8,1
-5.062615e-05,-0.0004953333,8,1
-0.000122097,-0.0004240246,8,1
-0.0001699062,-0.0003519055,8,1
-0.0001883817,-0.0002914552,8,1
-0.0001794681,-0.0002412149,8,1
-0.0001467309,-0.0001857886,8,1
-9.065628e-05,-0.0001141558,8,1
-1.497178e-05,-3.425755e-05,8,1
6.995045e-05,2.748934e-05,8,1
0.0001401247,5.050261e-05,8,1
0.0001726999,3.073064e-05,8,1
0.0001650828,-1.464765e-05,8,1
0.0001367214,-6.116039e-05,8,1
0.0001188942,-8.692878e-05,8,1
0.0001320215,-8.676672e-05,8,1
0.0001762653,-6.780507e-05,8,1
0.0002404432,-4.122636e-05,8,1
0.0003049452,-1.772689e-05,8,1
0.0003470822,-2.006553e-06,8,1
0.0003548613,6.90704e-06,8,1
0.0003253654,1.565857e-05,8,1
0.0002582704,2.959619e-05,8,1
0.0001579519,5.228533e-05,8,1
3.786152e-05,8.178122e-05,8,1
-9.114248e-05,0.0001182459,8,1
-0.0002151224,0.0001613553,8,1
-0.0003165753,0.0002099749,8,1
-0.0003773498,0.0002555152,8,1
-0.0003966356,0.0002832284,8,1
-0.0003924218,0.0002882525,8,1
-0.0003940425,0.0002754493,8,1
-0.0004267797,0.0002513016,8,1
-0.000507002,0.0002227781,8,1
-0.0006334129,0.0001973338,8,1
-0.0007919128,0.0001795066,8,1
-0.0009564091,0.0001762653,8,1
-0.001097244,0.0001947408,8,1
-0.001197886,0.0002336365,8,1
-0.001248289,0.0002926282,8,1
-0.001239861,0.0003645853,8,1
-0.001173739,0.0004414042,8,1
-0.001055917,0.0005106062,8,1
-0.0008943381,0.0005629533,8,1
-0.0006990494,0.0005900182,8,1
-0.0004784786,0.0005960147,8,1
-0.0002590421,0.0005955285,8,1
-7.979791e-05,0.0006013628,8,1
3.721326e-05,0.0006140039,8,1
0.0001193804,0.0006190279,8,1
0.0002219677,0.0005971491,8,1
0.0003879227,0.0005404262,8,1
0.0006190279,0.0004548557,8,1
0.0008904876,0.0003593992,8,1
0.001154006,0.0002699391,8,1
0.001350754,0.0001820997,8,1
0.001443941,8.388807e-05,8,1
0.001434056,-3.393342e-05,8,1
0.001351078,-0.0001630995,8,1
0.001235849,-0.0002865932,8,1
0.001128724,-0.0003904771,8,1
0.001049798,-0.0004713477,8,1
0.000975572,-0.0005463839,8,1
0.0008583986,-0.0006343853,8,1
0.0006840162,-0.0007582033,8,1
0.000500396,-0.0009431197,8,1
0.0003747954,-0.001197238,8,1
0.0003410858,-0.001497545,8,1
0.0003728506,-0.00179299,8,1
0.0004119083,-0.002026526,8,1
0.0004059119,-0.002164606,8,1
0.0003410858,-0.002196371,8,1
0.0002467637,-0.002128142,8,1
0.0001642725,-0.001968993,8,1
0.0001274836,-0.001727354,8,1
0.0001508211,-0.001422023,8,1
0.0002334744,-0.001087844,8,1
0.000361506,-0.0007688995,8,1
0.0005117406,-0.0004988988,8,1
0.0006601926,-0.0002820554,8,1
0.0007990826,-0.0001063766,8,1
0.0009517483,4.628891e-05,8,1
0.001163568,0.0001850168,8,1
0.001452855,0.0003075383,8,1
0.00179141,0.0004067223,8,1
0.002107115,0.0004819206,8,1
0.002326552,0.0005446399,8,1
0.002398834,0.0006106006,8,1
0.002314721,0.0006926056,8,1
0.002090908,0.0007880622,8,1
0.001758025,0.0008883807,8,1
0.001351888,0.0009789753,8,1
0.0008984288,0.001051905,8,1
0.0004242253,0.001110248,8,1
-4.090223e-05,0.001163406,8,1
-0.0004627582,0.001210567,8,1
-0.0008282154,0.001236173,8,1
-0.001141974,0.001214133,8,1
-0.001409382,0.001131479,8,1
-0.001616015,0.001002961,8,1
-0.001739347,0.0008590469,8,1
-0.001778404,0.0007311772,8,1
-0.001765115,0.0006371793,8,1
-0.001736592,0.0005799701,8,1
-0.001711634,0.0005529052,8,1
-0.001681651,0.0005480433,8,1
-0.001627684,0.0005550121,8,1
-0.001544058,0.0005589016,8,1
-0.001435798,0.0005488536,8,1
-0.001317329,0.0005238955,8,1
-0.001200479,0.0004811103,8,1
-0.001090275,0.0004204978,8,1
-0.000990929,0.0003508097,8,1
-0.0009045482,0.0002864697,8,1
-0.0008306464,0.0002441707,8,1
-0.0007685754,0.0002265056,8,1
-0.0007186593,0.0002265056,8,1
-0.0006716604,0.0002354192,8,1
-0.0006227166,0.000239957,8,1
-0.0005700454,0.0002205092,8,1
-0.0005155915,0.0001665414,8,1
-0.0004600031,8.939829e-05,8,1
-0.0004039285,1.209313e-05,8,1
-0.0003569296,-4.414354e-05,8,1
-0.0003300267,-7.201877e-05,8,1
-0.0003264613,-7.493595e-05,8,1
-0.0003363473,-6.667062e-05,8,1
-0.0003446126,-6.002594e-05,8,1
-0.0003457471,-6.81292e-05,8,1
-0.0003412093,-9.519411e-05,8,1
-0.0003342404,-0.000129714,8,1
-0.0003284061,-0.0001509446,8,1
-0.0003220855,-0.0001475412,8,1
-0.0003073376,-0.0001195039,8,1
-0.0002682799,-8.060823e-05,8,1
-0.0001883817,-4.981582e-05,8,1
-6.893953e-05,-3.944364e-05,8,1
6.330578e-05,-5.743289e-05,8,1
0.0001608691,-0.0001045939,8,1
0.000155521,-0.0001726613,8,1
-2.46957e-05,-0.0002459149,8,1
-0.0003908012,-0.0003089583,8,1
-0.0008434496,-0.0003523917,8,1
-0.001227382,-0.0003763774,8,1
-0.001419754,-0.0003839945,8,1
-0.001384424,-0.0003750809,8,1
-0.001170659,-0.0003483401,8,1
-0.0008635456,-0.0003104168,8,1
-0.0005361738,-0.000266011,8,1
-0.0002274394,-0.0002125294,8,1
5.244739e-05,-0.0001507825,8,1
0.0003021901,-9.632857e-05,8,1
0.0005107683,-7.380149e-05,8,1
0.000656465,-9.973194e-05,8,1
0.0007222636,-0.0001689338,8,1
0.0007117294,-0.0002561249,8,1
0.000663758,-0.0003326198,8,1
0.0006444722,-0.0003812394,8,1
0.0007071915,-0.0003989045,8,1
0.000861802,-0.0003849669,8,1
0.001071191,-0.0003509331,8,1
0.001262104,-0.0003115513,8,1
0.001360154,-0.0002796244,8,1
0.001323527,-0.0002580697,8,1
0.001156113,-0.0002408908,8,1
0.0008921082,-0.0002211189,8,1
0.0005867769,-0.0001955125,8,1
0.0003117519,-0.0001639098,8,1
0.00013818,-0.0001266348,8,1
8.891209e-05,-8.757704e-05,8,1
0.0001310491,-5.289507e-05,8,1
0.0002038164,-2.84232e-05,8,1
0.0002628082,-2.161646e-05,8,1
0.0002960316,-3.117831e-05,8,1
0.0003107795,-4.592625e-05,8,1
0.0003286068,-4.965376e-05,8,1
0.000366368,-3.425755e-05,8,1
0.0004281149,-2.168618e-06,8,1
0.0004924549,3.915804e-05,8,1
0.0005292437,8.567078e-05,8,1
0.0005323229,0.0001354248,8,1
0.0005396159,0.0001845306,8,1
0.000616597,0.0002281262,8,1
0.0008107513,0.000259729,8,1
0.001124348,0.000272208,8,1
0.001500178,0.0002663737,8,1
0.001842137,0.0002490327,8,1
0.002058819,0.0002287745,8,1
0.002097715,0.000210299,8,1
0.001963524,0.0001973338,8,1
0.001703409,0.0001908512,8,1
0.001364043,0.0001887444,8,1
0.0009754099,0.0001890685,8,1
0.0005584154,0.0001885823,8,1
0.0001435281,0.0001814514,8,1
-0.0002256567,0.0001618415,8,1
-0.0005037607,0.0001315353,8,1
-0.0006716604,9.831188e-05,8,1
-0.000755286,6.881599e-05,8,1
-0.000807471,4.969229e-05,8,1
-0.0008700282,4.337174e-05,8,1
-0.0009521954,4.920609e-05,8,1
-0.001045059,5.730935e-05,8,1
-0.001134843,4.564065e-05,8,1
-0.001207286,-3.627206e-06,8,1
-0.001243913,-9.098041e-05,8,1
-0.001221386,-0.0002000504,8,1
-0.001124309,-0.0003053928,8,1
-0.0009635399,-0.0003830221,8,1
-0.000777651,-0.0004215936,8,1
-0.000608617,-0.0004183523,8,1
-0.0004851232,-0.0003849669,8,1
-0.0004224039,-0.0003361852,8,1
-0.0004261314,-0.0002833519,8,1
-0.0004933886,-0.0002277635,8,1
-0.0006044033,-0.0001660166,8,1
-0.0007274108,-0.000102325,8,1
-0.0008256224,-4.462973e-05,8,1
-0.0008633836,-9.947754e-06,8,1
-0.000817195,-9.947754e-06,8,1
-0.000680574,-4.203669e-05,8,1
-0.0004739407,-9.098041e-05,8,1
-0.0002439701,-0.0001384655,8,1
-5.451572e-05,-0.0001818991,8,1
3.332369e-05,-0.0002191741,8,1
8.851824e-06,-0.0002316531,8,1
-7.509801e-05,-0.0002021572,8,1
-0.0001488377,-0.0001326312,8,1
-0.0001749302,-4.414354e-05,8,1
-0.0001556445,3.705119e-05,8,1
-0.0001128592,0.0001020394,8,1
-5.743289e-05,0.000163138,8,1
2.165498e-05,0.0002370398,8,1
0.0001436902,0.0003208276,8,1
0.0003109416,0.000383709,8,1
0.0005023408,0.0003875985,8,1
0.0006845024,0.0003130485,8,1
0.0008186926,0.0001725378,8,1
0.0008747673,1.396819e-06,8,1
0.0008386266,-0.0001522411,8,1
0.0007203188,-0.0002545043,8,1
0.0005514466,-0.0003037722,8,1
0.0003675024,-0.0003264613,8,1
0.0001934442,-0.0003415334,8,1
3.93201e-05,-0.0003525538,8,1
-9.162867e-05,-0.0003467195,8,1
-0.0001934057,-0.0003120375,8,1
-0.0002580697,-0.0002441321,8,1
-0.0002848105,-0.0001447861,8,1
-0.000300855,-1.740276e-05,8,1
-0.000350447,0.0001344524,8,1
-0.0004616237,0.0002957075,8,1
-0.000616072,0.0004516144,8,1
-0.0007573929,0.0005892079,8,1
-0.0008348601,0.0006919574,8,1
-0.0008270809,0.0007413874,8,1
-0.0007322728,0.0007246946,8,1
-0.0005693972,0.0006472273,8,1
-0.0003608192,0.0005379952,8,1
-0.0001327933,0.0004298976,8,1
8.097089e-05,0.0003472443,8,1
0.0002454672,0.0003017039,8,1
0.0003378445,0.0002867939,8,1
0.0003412479,0.0002801492,8,1
0.0002370398,0.0002657254,8,1
3.413401e-05,0.0002368777,8,1
-0.0002204706,0.0002025199,8,1
-0.0004663236,0.0001741585,8,1
-0.000653347,0.0001587623,8,1
-0.0007547998,0.0001636242,8,1
-0.000767603,0.0002030061,8,1
-0.0007090974,0.0002851732,8,1
-0.0006225546,0.0003950536,8,1
-0.0005575664,0.0004956961,8,1
-0.0005468701,0.0005465847,8,1
-0.0005971103,0.0005240576,8,1
-0.0006894876,0.0004298976,8,1
-0.000787537,0.0002939248,8,1
-0.0008440978,0.0001522796,8,1
-0.0008115227,3.251336e-05,8,1
-0.0006573986,-5.2733e-05,8,1
-0.0003801049,-0.0001045939,8,1
-3.951337e-06,-0.0001292278,8,1
0.0004211461,-0.0001384655,8,1
0.000824689,-0.0001425172,8,1
0.001147361,-0.0001504584,8,1
0.001351726,-0.0001676373,8,1
0.001422063,-0.0001930815,8,1
0.001369067,-0.0002246843,8,1
0.001231635,-0.0002577456,8,1
0.001072487,-0.0002857829,8,1
0.0009554758,-0.0003021515,8,1
0.0009180387,-0.0003078238,8,1
0.000953207,-0.0003100927,8,1
0.001012199,-0.0003178718,8,1
0.001036184,-0.0003339163,8,1
0.0009963163,-0.000353202,8,1
0.0009034528,-0.0003697327,8,1
0.0007762314,-0.0003846427,8,1
0.0006302104,-0.0004008493,8,1
0.0004683071,-0.0004215936,8,1
0.000302028,-0.0004436345,8,1
0.0001589243,-0.0004606514,8,1
6.606088e-05,-0.0004690787,8,1
2.781346e-05,-0.0004668098,8,1
2.538249e-05,-0.0004541688,8,1
2.084466e-05,-0.0004355313,8,1
-2.631635e-05,-0.0004141386,8,1
-0.0001396,-0.0003963114,8,1
-0.0003214373,-0.0003835083,8,1
-0.000541684,-0.0003741085,8,1
-0.0007408622,-0.0003647087,8,1
-0.0008646801,-0.0003502849,8,1
-0.000891745,-0.0003311612,8,1
-0.0008314567,-0.0003087962,8,1
-0.0006977529,-0.0002846485,8,1
-0.0005076503,-0.0002590421,8,1
-0.0002755728,-0.0002334358,8,1
-2.210265e-05,-0.0002086398,8,1
0.00022764,-0.0001833576,8,1
0.0004558281,-0.0001551583,8,1
0.0006533858,-0.0001201522,8,1
0.0008180443,-7.590833e-05,8,1
0.0009512621,-2.728874e-05,8,1
0.001050608,1.695509e-05,8,1
0.001110735,5.341979e-05,8,1
0.001113976,8.226741e-05,8,1
0.00104445,0.0001039842,8,1
0.0009018321,0.0001193804,8,1
0.0007008709,0.0001299146,8,1
0.000463121,0.0001362352,8,1
0.0002030061,0.0001402868,8,1
-6.359137e-05,0.0001496866,8,1
-0.0003254889,0.0001686482,8,1
-0.0005732867,0.0001950649,8,1
-0.0007870508,0.0002239125,8,1
-0.0009220513,0.000247412,8,1
-0.0009286959,0.0002636185,8,1
-0.0007833233,0.0002718839,8,1
-0.0005089468,0.0002782044,8,1
-0.000166827,0.0002897111,8,1
0.0001636242,0.0003033245,8,1
0.0004059119,0.0003132105,8,1
0.000520168,0.0003140208,8,1
0.0005159543,0.000304297,8,1
0.0004404318,0.0002867939,8,1
0.0003375204,0.0002645909,8,1
0.0002269918,0.0002402811,8,1
0.0001026876,0.0002169437,8,1
-3.506788e-05,0.0001994406,8,1
-0.0001614788,0.0001892305,8,1
-0.0002394322,0.0001861513,8,1
-0.0002321393,0.0001898788,8,1
-0.0001091317,0.0002007372,8,1
0.0001255389,0.000215161,8,1
0.000406074,0.0002328261,8,1
0.0006238899,0.0002519498,8,1
0.0006882299,0.0002691288,8,1
0.0005781874,0.0002817699,8,1
0.0003530786,0.0002879283,8,1
0.0001143563,0.0002863077,8,1
-6.06742e-05,0.0002806354,8,1
-0.0001540238,0.0002757735,8,1
-0.0001994021,0.0002717218,8,1
-0.000246239,0.0002645909,8,1
-0.0003199787,0.0002478982,8,1
-0.000420135,0.0002158093,8,1
-0.0005285567,0.0001689724,8,1
-0.000628551,0.0001148425,8,1
-0.0007139594,6.395404e-05,8,1
-0.0007935334,2.133085e-05,8,1
-0.000881697,-2.226472e-05,8,1
-0.0009802326,-7.769106e-05,8,1
-0.001072934,-0.0001391138,8,1
-0.001131602,-0.0001938919,8,1
-0.001134033,-0.0002266291,8,1
-0.001079093,-0.000231491,8,1
-0.0009859049,-0.0002167431,8,1
-0.0008808867,-0.0001945401,8,1
-0.0007872129,-0.0001750923,8,1
-0.0007173628,-0.0001601823,8,1
-0.0006749016,-0.0001468929,8,1
-0.0006625847,-0.0001310105,8,1
-0.00067085,-0.0001102662,8,1
-0.000675712,-8.82253e-05,8,1
-0.0006530228,-6.893953e-05,8,1
-0.0005966241,-5.078821e-05,8,1
-0.0005139708,-3.26369e-05,8,1
-0.0004227281,-1.335113e-05,8,1
-0.0003428299,5.772582e-06,8,1
-0.0002882139,2.068259e-05,8,1
-0.0002622834,2.684107e-05,8,1
-0.0002640662,2.165498e-05,8,1
-0.0002911311,1.241726e-05,8,1
-0.0003410472,1.193106e-05,8,1
-0.0004023079,2.910999e-05,8,1
-0.0004488206,5.860588e-05,8,1
-0.0004530343,8.340187e-05,8,1
-0.0004021458,8.729144e-05,8,1
-0.0002982619,6.768154e-05,8,1
-0.0001554824,3.575467e-05,8,1
-5.247859e-06,1.014835e-05,8,1
0.0001145184,5.86492e-07,8,1
0.0001843686,-2.238346e-07,8,1
0.000217592,-1.318906e-05,8,1
0.0002535705,-5.856735e-05,8,1
0.0003166139,-0.0001400862,8,1
0.0003965121,-0.0002408908,8,1
0.0004723587,-0.0003335922,8,1
0.0005355643,-0.0004045768,8,1
0.0005892079,-0.0004535205,8,1
0.0006498204,-0.0004828543,8,1
0.0007402529,-0.0004922541,8,1
0.0008906497,-0.0004766958,8,1
0.001117379,-0.0004259694,8,1
0.001383491,-0.0003395886,8,1
0.001609087,-0.0002297083,8,1
0.001715402,-0.0001143178,8,1
0.001679261,-1.335113e-05,8,1
0.001524974,5.811968e-05,8,1
0.001296786,9.458438e-05,8,1
0.00103586,0.0001017153,8,1
0.0007809313,9.21534e-05,8,1
0.0005694359,8.04847e-05,8,1
0.0004355699,7.562274e-05,8,1
0.0003841952,8.291568e-05,8,1
0.0003833848,0.0001039842,8,1
0.0003841952,0.0001355869,8,1
0.0003495132,0.0001743205,8,1
0.0002610255,0.0002135403,8,1
0.0001146805,0.0002477361,8,1
-8.271508e-05,0.0002775562,8,1
-0.0003011791,0.0002997591,8,1
-0.000496954,0.0002961937,8,1
-0.0006327647,0.0002406053,8,1
-0.000685598,0.0001325077,8,1
-0.0006449196,5.86492e-07,8,1
-0.0005110537,-0.0001161005,8,1
-0.0003139823,-0.0001880575,8,1
-0.0001118868,-0.0002063709,8,1
3.624086e-05,-0.0001754164,8,1
0.0001064152,-0.0001065387,8,1
0.0001114392,-1.108221e-05,8,1
8.777764e-05,9.16672e-05,8,1
8.194328e-05,0.0001814514,8,1
0.000135749,0.0002428742,8,1
0.0002582704,0.0002731804,8,1
0.00041596,0.0002791768,8,1
0.0005657084,0.0002713977,8,1
0.0006749405,0.0002589186,8,1
0.0007349047,0.0002456293,8,1
0.0007564594,0.0002367157,8,1
0.000750625,0.0002362295,8,1
0.0007266394,0.0002495189,8,1
0.000688554,0.0002756114,8,1
0.0006285898,0.0003117519,8,1
0.0005159543,0.0003512959,8,1
0.0003117519,0.0003866261,8,1
1.014835e-05,0.0004065602,8,1
-0.0003378059,0.0004039671,8,1
-0.000653347,0.0003900295,8,1
-0.0008745661,0.0003856538,8,1
-0.0009797465,0.0004025085,8,1
-0.0009888222,0.0004242253,8,1
-0.0009450645,0.0004086671,8,1
-0.0009011448,0.0003171001,8,1
-0.0008992,0.0001422316,8,1
-0.0009444162,-8.07703e-05,8,1
-0.001006811,-0.0002870794,8,1
-0.001051055,-0.000420135,8,1
-0.0010577,-0.000464703,8,1
-0.001026421,-0.0004455793,8,1
-0.0009588401,-0.000407656,8,1
-0.0008549562,-0.0003963114,8,1
-0.0007128249,-0.0004366657,8,1
-0.0005327704,-0.0005211017,8,1
-0.0003219235,-0.0006196374,8,1
-8.984595e-05,-0.0006998597,8,1
0.0001483901,-0.0007405381,8,1
0.0003749574,-0.0007351899,8,1
0.0005856425,-0.0006868945,8,1
0.0007900069,-0.0006044033,8,1
0.0009942095,-0.0004985746,8,1
0.00118804,-0.0003786463,8,1
0.00135043,-0.0002652006,8,1
0.001469224,-0.000191785,8,1
0.001533402,-0.0001838438,8,1
0.001528378,-0.0002350565,8,1
0.0014501,-0.0003139823,8,1
0.001320772,-0.0003809152,8,1
0.001169564,-0.000405063,8,1
0.001014954,-0.0003741085,8,1
0.0008639088,-0.000290969,8,1
0.0007128638,-0.0001666649,8,1
0.0005470709,-2.09682e-05,8,1
0.0003616681,0.0001252147,8,1
0.0001688103,0.0002561635,8,1
-2.81688e-06,0.0003632887,8,1
-0.0001324691,0.0004452938,8,1
-0.000209126,0.0005060683,8,1
-0.0002365151,0.0005530673,8,1
-0.0002382978,0.0005888838,8,1
-0.0002498044,0.0006214589,8,1
-0.0002903207,0.0006603546,8,1
-0.000367788,0.0007088122,8,1
-0.0004927403,0.0007517595,8,1
-0.0006776568,0.0007624559,8,1
-0.0009176755,0.000720805,8,1
-0.00117779,0.0006323173,8,1
-0.001409868,0.0005258403,8,1
-0.001571447,0.0004349216,8,1
-0.001639352,0.0003746333,8,1
-0.001612125,0.0003425444,8,1
-0.001507431,0.0003311998,8,1
-0.001354603,0.0003357376,8,1
-0.00118719,0.0003529166,8,1
-0.0010342,0.0003731747,8,1
-0.0009105446,0.0003743092,8,1
-0.0008087676,0.0003307136,8,1
-0.0007116905,0.000234933,8,1
-0.0006118583,0.0001023635,8,1
-0.0005206155,-4.138842e-05,8,1
-0.0004504412,-0.0001713648,8,1
-0.0003925839,-0.0002733039,8,1
-0.0003327818,-0.0003403989,8,1
-0.0002627696,-0.0003794566,8,1
-0.0001773612,-0.0004029561,8,1
-7.979791e-05,-0.0004222419,8,1
2.262738e-05,-0.0004418518,8,1
0.000121001,-0.0004591928,8,1
0.0002096508,-0.0004695649,8,1
0.0002835526,-0.0004695649,8,1
0.0003352514,-0.0004574101,8,1
0.0003545372,-0.0004303451,8,1
0.0003370341,-0.0003924218,8,1
0.0002866318,-0.000350609,8,1
0.0002172679,-0.0003120375,8,1
0.0001470936,-0.0002818933,8,1
9.199134e-05,-0.0002627696,8,1
5.909208e-05,-0.0002566112,8,1
4.790957e-05,-0.0002588801,8,1
5.439218e-05,-0.0002674695,8,1
6.735741e-05,-0.0002838381,8,1
7.951231e-05,-0.0003102548,8,1
9.020862e-05,-0.0003423437,8,1
0.0001065772,-0.0003685983,8,1
0.0001313732,-0.0003809152,8,1
0.0001603829,-0.0003750809,8,1
0.0001918236,-0.00035304,8,1
0.0002213195,-0.0003178718,8,1
0.0002409294,-0.0002728177,8,1
0.0002438466,-0.0002225774,8,1
0.0002284504,-0.0001699062,8,1
0.000192796,-0.0001190177,8,1
0.0001474177,-7.396356e-05,8,1
0.0001078737,-3.782299e-05,8,1
8.242948e-05,-9.137427e-06,8,1
6.41161e-05,1.371378e-05,8,1
3.786152e-05,3.024445e-05,8,1
-1.497178e-05,4.418206e-05,8,1
-9.600444e-05,5.309566e-05,8,1
-0.000181737,5.423012e-05,8,1
-0.0002407288,4.807163e-05,8,1
-0.0002517492,3.98063e-05,8,1
-0.0002084778,3.705119e-05,8,1
-0.0001233935,4.580272e-05,8,1
-2.064406e-05,6.379197e-05,8,1
7.999851e-05,8.534666e-05,8,1
0.0001573037,0.0001062531,8,1
0.0001838824,0.0001268354,8,1
0.0001436902,0.0001467694,8,1
4.499239e-05,0.0001618415,8,1
-7.137051e-05,0.000170431,8,1
-0.0001695821,0.0001748067,8,1
-0.0002287359,0.0001751309,8,1
-0.0002331117,0.0001715654,8,1
-0.0001746061,0.0001660552,8,1
-4.90055e-05,0.0001610312,8,1
0.0001354248,0.0001537382,8,1
0.0003568061,0.0001425557,8,1
0.0005840218,0.0001331559,8,1
0.0007854691,0.0001320215,8,1
0.0009355418,0.0001438522,8,1
0.001040722,0.0001714034,8,1
0.001122079,0.0002164575,8,1
0.001198736,0.0002713977,8,1
0.001278959,0.0003274723,8,1
0.001358371,0.0003725265,8,1
0.001421576,0.0003919743,8,1
0.001457717,0.0003725265,8,1
0.001477489,0.0003099692,8,1
0.00149483,0.0002135403,8,1
0.001499368,0.0001117633,8,1
0.001467117,3.672706e-05,8,1
0.001376036,1.720949e-06,8,1
0.001214457,6.744974e-06,8,1
0.0009802718,3.899597e-05,8,1
0.0006718613,8.291568e-05,8,1
0.0003030004,0.0001276457,8,1
-8.984595e-05,0.0001696206,8,1
-0.0004535205,0.0002104611,8,1
-0.0007437794,0.0002467637,8,1
-0.000939068,0.0002736666,8,1
-0.001054297,0.0002835526,8,1
-0.001127874,0.0002777182,8,1
-0.0011927,0.000262322,8,1
-0.001245372,0.0002469258,8,1
-0.001243103,0.0002360674,8,1
-0.001135005,0.0002256952,8,1
-0.0009056826,0.0002111094,8,1
-0.0005830107,0.0001906891,8,1
-0.0002298704,0.0001654069,8,1
7.57848e-05,0.0001402868,8,1
0.0002765838,0.000121001,8,1
0.0003508097,0.0001125736,8,1
0.0003073762,0.0001122495,8,1
0.0001950649,0.0001128978,8,1
8.810177e-05,0.0001103047,8,1
4.304761e-05,0.0001091703,8,1
6.573675e-05,0.0001106288,8,1
0.0001122495,0.0001132219,8,1
0.0001406109,0.0001158149,8,1
0.0001278078,0.0001138702,8,1
6.897806e-05,0.0001004187,8,1
-2.858527e-05,6.735741e-05,8,1
-0.0001561307,7.393236e-06,8,1
-0.0003086341,-7.266703e-05,8,1
-0.0004789647,-0.0001600202,8,1
-0.0006538332,-0.0002423494,8,1
-0.0008136295,-0.0003073376,8,1
-0.0009350164,-0.000350609,8,1
-0.0009967634,-0.000372974,8,1
-0.0009969254,-0.0003781601,8,1
-0.0009555988,-0.0003708672,8,1
-0.0009003344,-0.0003548227,8,1
-0.0008400462,-0.0003335922,8,1
-0.0007530171,-0.0003125237,8,1
-0.0006155858,-0.0002948586,8,1
-0.0004288866,-0.0002825416,8,1
-0.0002167431,-0.0002690902,8,1
-1.270286e-05,-0.0002535319,8,1
0.0001443384,-0.0002344082,8,1
0.0002219677,-0.0002130156,8,1
0.0002005751,-0.0001937298,8,1
8.486046e-05,-0.0001799543,8,1
-9.162867e-05,-0.0001690959,8,1
-0.0002733039,-0.000159372,8,1
-0.0004104111,-0.0001493239,8,1
-0.0004708614,-0.0001397621,8,1
-0.0004455793,-0.0001324691,8,1
-0.0003569296,-0.000127283,8,1
-0.0002528836,-0.0001206384,8,1
-0.0001854645,-0.0001099421,8,1
-0.0001929195,-9.211487e-05,8,1
-0.0002843243,-6.650855e-05,8,1
-0.0004329382,-3.63644e-05,8,1
-0.0005917621,-9.785688e-06,8,1
-0.0007180111,8.689758e-06,8,1
-0.0007868888,1.857574e-05,8,1
-0.0007907783,1.9224e-05,8,1
-0.0007348658,1.322759e-05,8,1
-0.0006463782,7.879432e-06,8,1
-0.0005719902,1.1769e-05,8,1
-0.000544277,2.684107e-05,8,1
-0.0005572423,4.969229e-05,8,1
-0.0005617801,7.448828e-05,8,1
-0.0005032745,9.31258e-05,8,1
-0.0003572537,0.0001002567,8,1
-0.0001232314,8.664318e-05,8,1
0.000177886,4.564065e-05,8,1
0.0005072028,-1.562004e-05,8,1
0.0008332785,-7.979791e-05,8,1
0.001145255,-0.0001255003,8,1
0.001445886,-0.0001400862,8,1
0.001738091,-0.0001227452,8,1
0.002008416,-8.222889e-05,8,1
0.002218778,-3.053005e-05,8,1
0.002319908,2.181705e-05,8,1
0.002265453,6.622294e-05,8,1
0.00204715,0.0001000946,8,1
0.001701626,0.0001226217,8,1
0.001290789,0.0001385041,8,1
0.0008676364,0.0001498487,8,1
0.0004674968,0.0001568175,8,1
0.0001114392,0.0001598967,8,1
-0.0001809267,0.0001633001,8,1
-0.0003989045,0.0001731861,8,1
-0.0005449253,0.0001893926,8,1
-0.0006217443,0.0002043026,8,1
-0.0006157478,0.0002125679,8,1
-0.0005113778,0.000210299,8,1
-0.0003342404,0.000200251,8,1
-0.0001724993,0.0001850168,8,1
-0.0001373311,0.0001689724,8,1
-0.0002770314,0.0001561692,8,1
-0.0005389289,0.0001462832,8,1
-0.0008069849,0.0001380179,8,1
-0.0009747224,0.0001318594,8,1
-0.0009928738,0.000130725,8,1
-0.0008745661,0.0001367214,8,1
-0.0006651777,0.0001365593,8,1
-0.0004086284,0.000110953,8,1
-0.0001404103,4.272347e-05,8,1
0.0001088461,-6.278104e-05,8,1
0.0003148312,-0.0001799543,8,1
0.0004666864,-0.0002802727,8,1
0.0005634395,-0.0003434782,8,1
0.0006131936,-0.0003640605,8,1
0.0006232416,-0.0003459091,8,1
0.0005999042,-0.0003074997,8,1
0.0005477191,-0.0002695764,8,1
0.0004725208,-0.0002585559,8,1
0.0003814401,-0.0002914552,8,1
0.0002843629,-0.0003621157,8,1
0.0001908512,-0.0004437966,8,1
0.0001091703,-0.0004988988,8,1
5.001642e-05,-0.0005048952,8,1
1.744129e-05,-0.0004638926,8,1
4.244267e-07,-0.0003896668,8,1
-1.724069e-05,-0.0002974516,8,1
-4.219875e-05,-0.0001985918,8,1
-6.667062e-05,-9.778715e-05,8,1
-7.963584e-05,2.623614e-07,8,1
-8.044617e-05,8.534666e-05,8,1
-8.320128e-05,0.0001475797,8,1
-0.000102325,0.0001859892,8,1
-0.0001428413,0.0002020337,8,1
-0.0001961608,0.0002017096,8,1
-0.0002412149,0.0001965235,8,1
-0.0002600145,0.0002007372,8,1
-0.0002423494,0.0002266676,8,1
-0.0001804405,0.0002785285,8,1
-8.190475e-05,0.0003456236,8,1
2.81376e-05,0.0004128807,8,1
0.0001222976,0.0004704139,8,1
0.0001867996,0.0005157923,8,1
0.0002248849,0.0005485295,8,1
0.000244981,0.00056976,8,1
0.000250005,0.0005892079,8,1
0.0002360674,0.0006127074,8,1
0.0001963614,0.0006345862,8,1
0.0001329939,0.0006404206,8,1
3.721326e-05,0.0006128695,8,1
-0.0001081593,0.0005391297,8,1
-0.0003096065,0.0004200116,8,1
-0.0005637249,0.000274801,8,1
-0.0008679214,0.0001310491,8,1
-0.001201452,1.64689e-05,8,1
-0.001507269,-4.884343e-05,8,1
-0.001712768,-6.521203e-05,8,1
-0.001763981,-5.467778e-05,8,1
-0.0016588,-4.576419e-05,8,1
-0.001445198,-5.970181e-05,8,1
-0.001194321,-0.0001016767,8,1
-0.0009739121,-0.0001600202,8,1
-0.0008170329,-0.000213988,8,1
-0.0007146077,-0.0002447804,8,1
-0.0006353577,-0.0002480217,8,1
-0.0005604835,-0.0002298704,8,1
-0.000484475,-0.0002044261,8,1
-0.0004044147,-0.0001807646,8,1
-0.0003160891,-0.0001689338,8,1
-0.0002110708,-0.0001809267,8,1
-7.720486e-05,-0.0002237119,8,1
9.118101e-05,-0.0002930758,8,1
0.0002830664,-0.0003685983,8,1
0.0004673347,-0.0004288866,8,1
0.0006110868,-0.0004549791,8,1
0.0006937401,-0.0004467137,8,1
0.0007237222,-0.0004133283,8,1
0.0007340944,-0.0003660052,8,1
0.0007595387,-0.0003125237,8,1
0.0008311716,-0.0002598524,8,1
0.0009592033,-0.0002136638,8,1
0.00113391,-0.0001734716,8,1
0.001320448,-0.0001381414,8,1
0.00147911,-0.000107349,8,1
0.001578456,-8.093236e-05,8,1
0.001601469,-5.613637e-05,8,1
0.001544909,-2.129233e-05,8,1
0.001425952,3.056858e-05,8,1
0.001274097,9.458438e-05,8,1
0.001110897,0.0001539003,8,1
0.0009467243,0.0001914995,8,1
0.0007862795,0.0002038164,8,1
0.0006329655,0.0001997648,8,1
0.0004935893,0.0001914995,8,1
0.0003679886,0.000187772,8,1
0.0002537325,0.0001921477,8,1
0.0001487142,0.0002068957,8,1
5.309566e-05,0.0002287745,8,1
-3.085418e-05,0.0002527602,8,1
-9.584238e-05,0.0002712356,8,1
-0.0001387897,0.0002825802,8,1
-0.0001592099,0.0002853353,8,1
-0.0001616409,0.0002743149,8,1
-0.0001583996,0.000237526,8,1
-0.000161965,0.000160707,8,1
-0.0001810887,4.094075e-05,8,1
-0.0002152845,-0.0001135075,8,1
-0.0002559629,-0.0002846485,8,1
-0.0002938862,-0.0004418518,8,1
-0.0003199787,-0.0005543251,8,1
-0.0003288923,-0.0006032689,8,1
-0.000320789,-0.0005933828,8,1
-0.000303286,-0.0005457356,8,1
-0.0002833519,-0.0004839888,8,1
-0.0002676316,-0.0004261314,8,1
-0.0002583939,-0.000385291,8,1
-0.0002580697,-0.0003723258,8,1
-0.0002527216,-0.0003857772,8,1
-0.0002219292,-0.0004144627,8,1
-0.0001530514,-0.0004389346,8,1
-5.775702e-05,-0.0004457413,8,1
3.883391e-05,-0.0004295348,8,1
0.0001099806,-0.0003904771,8,1
0.0001394765,-0.0003292164,8,1
0.0001227837,-0.0002485079,8,1
6.249545e-05,-0.0001549962,8,1
-3.117831e-05,-6.0188e-05,8,1
-0.0001360346,2.473423e-05,8,1
-0.0002248464,9.426025e-05,8,1
-0.0002812451,0.0001509831,8,1
-0.0002987481,0.0001949028,8,1
-0.0002793003,0.000232502,8,1
-0.0002353806,0.0002681563,8,1
-0.0001809267,0.0003052694,8,1
-0.0001298761,0.0003438409,8,1
-9.098041e-05,0.0003816021,8,1
-6.780507e-05,0.0004119083,8,1
-6.310517e-05,0.0004289252,8,1
-7.60704e-05,0.0004310321,8,1
-0.0001039456,0.0004255218,8,1
-0.0001407345,0.0004217943,8,1
-0.0001655305,0.0004286011,8,1
-0.0001543479,0.0004478869,8,1
-9.713889e-05,0.0004770586,8,1
-4.923729e-06,0.0005130371,8,1
9.620504e-05,0.0005577672,8,1
0.0001793446,0.0006135177,8,1
0.000225209,0.0006705648,8,1
0.0002312055,0.000710757,8,1
0.0002099749,0.000713188,8,1
0.000187772,0.0006729957,8,1
0.0001806411,0.0005979594,8,1
0.0001889064,0.0004932652,8,1
0.0001950649,0.000356482,8,1
0.0001785342,0.0001945787,8,1
0.0001239182,3.040651e-05,8,1
3.18651e-05,-0.0001075111,8,1
-8.806324e-05,-0.0002000504,8,1
-0.0002229016,-0.0002467252,8,1
-0.0003527159,-0.0002577456,8,1
-0.0004536825,-0.000243808,8,1
-0.000519481,-0.00021415,8,1
-0.0005582146,-0.0001796301,8,1
-0.0005901415,-0.0001462447,8,1
-0.0006481609,-0.0001180453,8,1
-0.0007604721,-9.746302e-05,8,1
-0.0009275614,-8.433573e-05,8,1
-0.001112154,-7.461182e-05,8,1
-0.001270005,-6.39155e-05,8,1
-0.001366596,-5.613637e-05,8,1
-0.001373727,-4.932962e-05,8,1
-0.001274867,-4.041603e-05,8,1
-0.00108363,-3.036798e-05,8,1
-0.0008368049,-2.210265e-05,8,1
-0.0005645352,-1.189254e-05,8,1
-0.0002864312,3.179537e-06,8,1
-2.0482e-05,2.522042e-05,8,1
0.0002222919,5.277153e-05,8,1
0.0004472386,8.696731e-05,8,1
0.0006616511,0.0001302388,8,1
0.0008726604,0.0001819376,8,1
0.001076701,0.0002394708,8,1
0.001261942,0.0002892249,8,1
0.00141169,0.0003054314,8,1
0.001512495,0.0002683184,8,1
0.001551067,0.0001785342,8,1
0.001504878,5.811968e-05,8,1
0.001349943,-6.342931e-05,8,1
0.001085776,-0.0001609926,8,1
0.0007593766,-0.0002212809,8,1
0.0004316803,-0.0002410529,8,1
0.0001493625,-0.0002272773,8,1
-7.104638e-05,-0.0001963229,8,1
-0.0002253326,-0.0001645581,8,1
-0.000318196,-0.0001417068,8,1
-0.0003728119,-0.0001374932,8,1
-0.0004230522,-0.0001489998,8,1
-0.0004899852,-0.0001676373,8,1
-0.0005693972,-0.0001810887,8,1
-0.0006358439,-0.0001836818,8,1
-0.0006562641,-0.0001741199,8,1
-0.0006146134,-0.0001566169,8,1
-0.000519319,-0.0001349001,8,1
-0.0004013355,-0.000112373,8,1
-0.0002896725,-9.389759e-05,8,1
-0.0002028055,-8.158062e-05,8,1
-0.0001467309,-7.623246e-05,8,1
-0.0001076731,-7.914964e-05,8,1
-6.731888e-05,-9.146661e-05,8,1
-2.031993e-05,-0.0001126972,8,1
1.695509e-05,-0.0001389517,8,1
1.630683e-05,-0.0001624512,8,1
-4.38194e-05,-0.0001708786,8,1
-0.0001530514,-0.0001598582,8,1
-0.0002616352,-0.0001350622,8,1
-0.0002993964,-0.000104918,8,1
-0.0002243602,-7.60704e-05,8,1
-5.386745e-05,-4.949169e-05,8,1
0.0001564933,-2.761287e-05,8,1
0.0003462718,-8.165035e-06,8,1
0.0004822447,1.112074e-05,8,1
0.0005707325,3.299956e-05,8,1
0.0006410689,5.244739e-05,8,1
0.0007174017,6.800567e-05,8,1
0.0008007033,7.967438e-05,8,1
0.0008729845,8.988449e-05,8,1
0.0009019942,0.0001000946,8,1
0.0008647192,0.0001088461,8,1
0.0007681281,0.0001127357,8,1
0.0006379896,0.0001073875,8,1
0.0005031512,9.16672e-05,8,1
0.0003819262,6.444023e-05,8,1
0.0002799871,2.862379e-05,8,1
0.0001812893,-1.124428e-05,8,1
6.735741e-05,-5.22468e-05,8,1
-6.748094e-05,-8.757704e-05,8,1
-0.0002169052,-0.0001139937,8,1
-0.0003611433,-0.0001303623,8,1
-0.00047702,-0.0001381414,8,1
-0.0005371462,-0.0001423551,8,1
-0.000516888,-0.0001491618,8,1
-0.000419973,-0.000156941,8,1
-0.0002757348,-0.0001614788,8,1
-0.0001219349,-0.000159534,8,1
9.66215e-06,-0.0001512687,8,1
9.231547e-05,-0.000137169,8,1
9.831188e-05,-0.0001224211,8,1
1.533444e-05,-0.0001144799,8,1
-0.0001232314,-0.0001280934,8,1
-0.0002486699,-0.0001729855,8,1
-0.0003060411,-0.0002467252,8,1
-0.0002791382,-0.0003301888,8,1
-0.0001789819,-0.0003990665,8,1
-2.031993e-05,-0.0004339106,8,1
0.0001832341,-0.000432452,8,1
0.0004041292,-0.00039777,8,1
0.0005802943,-0.0003402368,8,1
0.0006407447,-0.0002689281,8,1
0.0005577672,-0.0001951884,8,1
0.000363937,-0.0001253383,8,1
0.000130887,-6.342931e-05,8,1
-6.375344e-05,-9.461558e-06,8,1
-0.0001655305,3.98063e-05,8,1
-0.0001562927,8.550872e-05,8,1
-5.257093e-05,0.0001274836,8,1
9.26396e-05,0.0001644345,8,1
0.0002232643,0.0001974959,8,1
0.0002968419,0.0002260194,8,1
0.0002876042,0.0002466017,8,1
0.0001947408,0.0002581083,8,1
4.499239e-05,0.0002660495,8,1
-0.0001088076,0.0002728562,8,1
-0.0002047502,0.0002809595,8,1
-0.0002010227,0.0002918179,8,1
-9.66527e-05,0.0003041349,8,1
7.027458e-05,0.0003208276,8,1
0.0002466017,0.0003462718,8,1
0.0003916502,0.0003825745,8,1
0.0004867825,0.0004292493,8,1
0.0005269747,0.0004862963,8,1
0.0005234093,0.0005485295,8,1
0.0004812723,0.0006052523,8,1
0.0003934329,0.0006383138,8,1
0.0002545429,0.0006258347,8,1
7.935024e-05,0.0005480433,8,1
-9.649064e-05,0.0003982949,8,1
-0.0002348944,0.0002049509,8,1
-0.000318358,1.290346e-05,8,1
-0.0003543365,-0.0001391138,8,1
-0.0003595226,-0.0002324634,8,1
-0.000350609,-0.0002718453,8,1
-0.0003389403,-0.0002692523,8,1
-0.0003322956,-0.0002365151,8,1
-0.0003324577,-0.0001825473,8,1
-0.0003428299,-0.0001157764,8,1
-0.0003622777,-4.560212e-05,8,1
-0.0003856151,1.679302e-05,8,1
-0.0004112214,6.330578e-05,8,1
-0.0004360174,9.814982e-05,8,1
-0.000457248,0.0001219734,8,1
-0.000467296,0.0001338042,8,1
-0.0004587066,0.000135911,8,1
-0.0004332623,0.000130725,8,1
-0.0004006872,0.0001229458,8,1
-0.000372974,0.0001124116,8,1
-0.0003553089,9.847395e-05,8,1
-0.0003525538,8.46984e-05,8,1
-0.0003635742,7.6271e-05,8,1
-0.0003898288,7.708133e-05,8,1
-0.0004329382,9.004655e-05,8,1
-0.0004825302,0.0001158149,8,1
-0.000524181,0.0001526038,8,1
-0.0005402254,0.00019782,8,1
-0.0005181845,0.0002415777,8,1
-0.0004476861,0.0002683184,8,1
-0.000330675,0.0002707494,8,1
-0.0001815749,0.000252274,8,1
-2.404744e-05,0.0002149989,8,1
0.0001086841,0.0001527658,8,1
0.0001923098,6.006447e-05,8,1
0.0002167816,-5.64605e-05,8,1
0.0001838824,-0.0001771992,8,1
0.000106091,-0.0002794623,8,1
-3.858999e-07,-0.0003483401,8,1
-0.0001120489,-0.0003838324,8,1
-0.0002070192,-0.0003955011,8,1
-0.0002746004,-0.000402794,8,1
-0.00030831,-0.0004204592,8,1
-0.0003062031,-0.0004502792,8,1
-0.0002729798,-0.0004835025,8,1
-0.0002206326,-0.0005113778,8,1
-0.0001700683,-0.0005275843,8,1
-0.0001454344,-0.0005275843,8,1
-0.0001739578,-0.0005097571,8,1
-0.0002742763,-0.00047702,8,1
-0.0004382863,-0.0004369898,8,1
-0.0006291993,-0.0003898288,8,1
-0.000797261,-0.0003340784,8,1
-0.0009055205,-0.0002694143,8,1
-0.0009384198,-0.0001953505,8,1
-0.0009014689,-0.0001125351,8,1
-0.0008139537,-1.99958e-05,8,1
-0.0006985632,7.935024e-05,8,1
-0.0005732867,0.0001811273,8,1
-0.0004431483,0.0002694529,8,1
-0.0003128478,0.0003229345,8,1
-0.0001778474,0.0003171001,8,1
-3.020592e-05,0.0002428742,8,1
0.0001412592,0.0001177597,8,1
0.000339141,-2.258885e-05,8,1
0.0005483674,-0.000142031,8,1
0.0007488423,-0.000216581,8,1
0.0009172284,-0.0002386219,8,1
0.001041857,-0.0002180396,8,1
0.001127913,-0.0001731475,8,1
0.001192578,-0.0001277692,8,1
0.00124768,-9.519411e-05,8,1
0.001301,-7.979791e-05,8,1
0.001357236,-7.65566e-05,8,1
0.001418335,-7.509801e-05,8,1
0.00147441,-6.504996e-05,8,1
0.001504554,-4.236082e-05,8,1
0.001488185,-5.409925e-06,8,1
0.001402453,4.742337e-05,8,1
0.001239739,0.0001081979,8,1
0.001018519,0.0001683241,8,1
0.000777528,0.0002172679,8,1
0.0005525811,0.0002454672,8,1
0.0003559958,0.0002503292,8,1
0.0001872858,0.0002393087,8,1
3.915804e-05,0.0002266676,8,1
-0.0001011905,0.0002172679,8,1
-0.0002590421,0.0002085163,8,1
-0.0004726442,0.0001923098,8,1
-0.0007572309,0.0001710792,8,1
-0.001081037,0.0001461212,8,1
-0.00137632,0.0001224596,8,1
-0.001567882,0.0001091703,8,1
-0.001602888,0.0001101427,8,1
-0.001459136,0.0001226217,8,1
-0.001143108,0.0001370455,8,1
-0.000685436,0.000145635,8,1
-0.0001454344,0.0001461212,8,1
0.0003958639,0.0001385041,8,1
0.0008656915,0.0001315353,8,1
0.001220453,0.0001326697,8,1
0.001439242,0.0001433661,8,1
0.001517843,0.0001603829,8,1
0.001472141,0.0001761032,8,1
0.001337951,0.0001820997,8,1
0.001162758,0.0001717275,8,1
0.0009877268,0.0001504969,8,1
0.0008501333,0.000130887,8,1
0.0007676419,0.0001205148,8,1
0.000718374,0.0001205148,8,1
0.0006606788,0.0001271595,8,1
0.000569598,0.0001414213,8,1
0.0004376768,0.0001584381,8,1
0.0002688046,0.0001722137,8,1
7.837785e-05,0.0001791825,8,1
-0.0001109144,0.0001759412,8,1
-0.0002653627,0.0001503349,8,1
-0.0003561192,9.361199e-05,8,1
-0.0003676259,4.80019e-06,8,1
-0.0002982619,-0.0001068628,8,1
-0.0001736337,-0.0002198223,8,1
-3.069211e-05,-0.0003149546,8,1
9.717743e-05,-0.0003812394,8,1
0.0001795066,-0.0004108973,8,1
0.0001910133,-0.0004023079,8,1
0.0001260251,-0.0003582261,8,1
1.720949e-06,-0.0002906449,8,1
-0.0001541859,-0.000221605,8,1
-0.0003091203,-0.0001663408,8,1
-0.0004337485,-0.000129714,8,1
-0.0005040849,-0.0001110765,8,1
-0.0005102433,-0.0001055663,8,1
-0.0004739407,-0.0001024871,8,1
-0.0004379622,-9.535618e-05,8,1
-0.0004415277,-8.44978e-05,8,1
-0.0004977643,-6.893953e-05,8,1
-0.0006022964,-5.192267e-05,8,1
-0.0007300039,-3.393342e-05,8,1
-0.0008415048,-1.562004e-05,8,1
-0.0009060067,1.095867e-05,8,1
-0.0009050344,5.260946e-05,8,1
-0.000842153,0.0001069013,8,1
-0.000740376,0.0001569795,8,1
-0.0006334129,0.0001858272,8,1
-0.0005476804,0.0001874478,8,1
-0.000487068,0.000170593,8,1
-0.0004322899,0.0001475797,8,1
-0.0003630881,0.0001300767,8,1
-0.0002663351,0.0001229458,8,1
-0.0001522411,0.0001250527,8,1
-4.009191e-05,0.0001352628,8,1
6.298164e-05,0.0001479039,8,1
0.0001550348,0.0001558451,8,1
0.0002239125,0.0001576278,8,1
0.0002478982,0.0001537382,8,1
0.000217754,0.0001425557,8,1
0.000143204,0.0001206769,8,1
3.98063e-05,9.118101e-05,8,1
-8.368748e-05,5.406805e-05,8,1
-0.0002232257,8.203562e-06,8,1
-0.0003647087,-4.997789e-05,8,1
-0.0004847991,-0.0001167488,8,1
-0.0005530285,-0.0001757406,8,1
-0.0005458977,-0.000206533,8,1
-0.0004726442,-0.0001925954,8,1
-0.0003741085,-0.0001408965,8,1
-0.0002942103,-8.060823e-05,8,1
-0.0002583939,-4.43056e-05,8,1
-0.0002624455,-4.754691e-05,8,1
-0.0002865932,-8.838737e-05,8,1
-0.0003091203,-0.0001525652,8,1
-0.0003044204,-0.0002177155,8,1
-0.0002535319,-0.0002635799,8,1
-0.0001652063,-0.0002781658,8,1
-7.477388e-05,-0.0002621213,8,1
-2.955766e-05,-0.0002235498,8,1
-5.548811e-05,-0.00016942,8,1
-0.0001319829,-0.0001041077,8,1
-0.0002131776,-3.247483e-05,8,1
-0.0002632558,4.223728e-05,8,1
-0.0002729798,0.0001146805,8,1
-0.000243808,0.0001785342,8,1
-0.000186761,0.0002237505,8,1
-0.0001109144,0.0002456293,8,1
-1.221667e-05,0.0002367157,8,1
0.0001198666,0.000195389,8,1
0.0002863077,0.0001294284,8,1
0.0004756001,5.698522e-05,8,1
0.0006626236,-4.275467e-06,8,1
0.0008212856,-4.252288e-05,8,1
0.0009446174,-5.824322e-05,8,1
0.001030188,-6.213279e-05,8,1
0.001065032,-6.342931e-05,8,1
0.001018357,-6.342931e-05,8,1
0.0008608295,-6.326724e-05,8,1
0.0006059006,-7.007399e-05,8,1
0.0003109416,-9.632857e-05,8,1
4.35338e-05,-0.0001397621,8,1
-0.0001485136,-0.000191785,8,1
-0.0002535319,-0.0002376495,8,1
-0.0002880518,-0.0002653627,8,1
-0.0002635799,-0.0002713591,8,1
-0.0001904885,-0.0002579077,8,1
-9.600444e-05,-0.0002316531,8,1
-8.489166e-06,-0.0002005366,8,1
5.747142e-05,-0.0001665028,8,1
0.0001039842,-0.0001232314,8,1
0.0001467694,-6.683268e-05,8,1
0.0002062474,-7.100305e-07,8,1
0.0002931144,6.914012e-05,8,1
0.0003999155,0.0001360731,8,1
0.0005065545,0.0001945787,8,1
0.0005905044,0.0002430362,8,1
0.0006370172,0.0002824181,8,1
0.0006407447,0.000311914,8,1
0.0006101143,0.0003368721,8,1
0.000564736,0.0003603715,8,1
0.0005191956,0.0003726885,8,1
0.000475438,0.0003568061,8,1
0.0004274666,0.0003046211,8,1
0.0003722023,0.0002289366,8,1
0.0003166139,0.0001566554,8,1
0.0002678322,0.0001154908,8,1
0.0002336365,0.0001222976,8,1
0.0002146748,0.0001790204,8,1
0.0002064095,0.0002645909,8,1
0.0001999268,0.0003495132,8,1
0.0001858272,0.0004093153,8,1
0.0001561692,0.0004337872,8,1
0.0001072255,0.0004193634,8,1
3.089271e-05,0.0003670162,8,1
-8.02841e-05,0.0002817699,8,1
-0.0002183637,0.0001793446,8,1
-0.0003601709,8.486046e-05,8,1
-0.0004797751,1.744129e-05,8,1
-0.0005593491,-1.902341e-05,8,1
-0.0005935449,-2.923353e-05,8,1
-0.0005847933,-2.388537e-05,8,1
-0.0005400634,-1.562004e-05,8,1
-0.0004778303,-1.124428e-05,8,1
-0.0004230522,-1.189254e-05,8,1
-0.0003943667,-1.464765e-05,8,1
-0.000387722,-2.015787e-05,8,1
-0.0003752429,-2.988179e-05,8,1
-0.0003337542,-4.155049e-05,8,1
-0.0002575835,-4.916756e-05,8,1
-0.0001579134,-4.835724e-05,8,1
-5.451572e-05,-3.26369e-05,8,1
2.910999e-05,-8.651231e-06,8,1
7.562274e-05,-6.176923e-08,8,1
8.810177e-05,-2.242678e-05,8,1
8.129502e-05,-6.667062e-05,8,1
6.281957e-05,-0.0001120489,8,1
3.753739e-05,-0.0001418689,8,1
9.013889e-06,-0.0001538618,8,1
-3.279896e-05,-0.0001498101,8,1
-0.0001029732,-0.0001363587,8,1
-0.0001919471,-0.0001169109,8,1
-0.0002723315,-9.146661e-05,8,1
-0.0003160891,-5.905355e-05,8,1
-0.0003016653,-2.388537e-05,8,1
-0.0002263049,5.286387e-06,8,1
-0.0001211246,1.825161e-05,8,1
-2.42095e-05,1.59827e-05,8,1
2.943412e-05,1.209313e-05,8,1
1.582063e-05,1.744129e-05,8,1
-6.310517e-05,2.181705e-05,8,1
-0.0001789819,4.80019e-06,8,1
-0.0002953447,-4.171256e-05,8,1
-0.0003846427,-0.000104756,8,1
-0.0004410415,-0.0001613168,8,1
-0.0004690787,-0.0001898403,8,1
-0.0004676201,-0.0001809267,8,1
-0.0004243487,-0.0001428413,8,1
-0.0003313232,-9.260107e-05,8,1
-0.00019924,-4.365734e-05,8,1
-6.261898e-05,2.531276e-06,8,1
3.332369e-05,5.504044e-05,8,1
4.936815e-05,0.0001235941,8,1
-2.42095e-05,0.0001999268,8,1
-0.0001546721,0.0002529222,8,1
-0.0002989102,0.000244981,8,1
-0.0004298589,0.0001579519,8,1
-0.0005332566,1.355172e-05,8,1
-0.0005993792,-0.0001481895,8,1
-0.0006170443,-0.0002921034,8,1
-0.0005786349,-0.0003985804,8,1
-0.0004856094,-0.0004629203,8,1
-0.0003494746,-0.0004899852,8,1
-0.0001904885,-0.0004882024,8,1
-3.085418e-05,-0.000467296,8,1
0.0001104668,-0.0004322899,8,1
0.0002195368,-0.0003867496,8,1
0.000299435,-0.0003318095,8,1
0.0003628026,-0.000268604,8,1
0.0004274666,-0.0001971332,8,1
0.0005020167,-0.0001191798,8,1
0.0005932595,-3.749886e-05,8,1
0.0007060571,4.385793e-05,8,1
0.0008292268,0.0001120874,8,1
0.0009298695,0.0001492004,8,1
0.0009668204,0.000138342,8,1
0.0009099355,7.983644e-05,8,1
0.0007631041,-3.858999e-07,8,1
0.000567005,-7.056019e-05,8,1
0.0003806297,-0.0001105903,8,1
0.0002534084,-0.0001203142,8,1
0.0002130541,-0.000112373,8,1
0.0002634565,-0.0001007043,8,1
0.0003901916,-9.098041e-05,8,1
0.0005702463,-7.979791e-05,8,1
0.0007687764,-6.310517e-05,8,1
0.0009345694,-3.863332e-05,8,1
0.001023219,-1.335113e-05,8,1
0.001020788,3.989864e-06,8,1
0.0009355418,7.393236e-06,8,1
0.0007997309,-2.978945e-06,8,1
0.0006532237,-2.0482e-05,8,1
0.0005336195,-3.668853e-05,8,1
0.0004600418,-4.252288e-05,8,1
0.0004302217,-3.279896e-05,8,1
0.0004281149,-4.275467e-06,8,1
0.000420984,3.915804e-05,8,1
0.0003741471,9.101894e-05,8,1
0.0002629703,0.0001420695,8,1
8.064677e-05,0.0001835583,8,1
-0.0001524032,0.0002017096,8,1
-0.000395339,0.0001880961,8,1
-0.0006026206,0.0001492004,8,1
-0.0007436173,9.960841e-05,8,1
-0.0008137916,5.536457e-05,8,1
-0.0008287016,2.505836e-05,8,1
-0.0008092538,1.355172e-05,8,1
-0.0007701961,1.727922e-05,8,1
-0.0007233592,2.878586e-05,8,1
-0.0006818705,4.35338e-05,8,1
-0.0006496195,6.055066e-05,8,1
-0.0006249856,8.631905e-05,8,1
-0.0006154237,0.0001227837,8,1
-0.0006347094,0.0001660552,8,1
-0.0006940254,0.0002070577,8,1
-0.0007854302,0.0002367157,8,1
-0.0008836418,0.0002440086,8,1
-0.0009575436,0.0002312055,8,1
-0.0009902808,0.0002099749,8,1
-0.0009854188,0.0001939304,8,1
-0.0009500885,0.000187934,8,1
-0.0008865589,0.0001918236,8,1
-0.0008017988,0.000200413,8,1
-0.0007074767,0.0002070577,8,1
-0.0006103997,0.0002099749,8,1
-0.0005055434,0.0002099749,8,1
-0.000387884,0.0002093267,8,1
-0.0002603387,0.0002090025,8,1
-0.0001290658,0.0002073819,8,1
1.558884e-06,0.000210137,8,1
0.0001211631,0.0002222919,8,1
0.0002190506,0.0002466017,8,1
0.0002885766,0.0002795009,8,1
0.0003303894,0.0003138588,8,1
0.0003451374,0.0003360618,8,1
0.0003357376,0.0003320101,8,1
0.0002961937,0.0002929524,8,1
0.0002182402,0.0002185644,8,1
0.000115977,0.0001182459,8,1
2.133085e-05,6.744974e-06,8,1
-3.117831e-05,-9.276313e-05,8,1
-2.339918e-05,-0.0001674752,8,1
3.737532e-05,-0.0002243602,8,1
0.0001253768,-0.0002891863,8,1
0.0002196988,-0.0003757291,8,1
0.0003091589,-0.0004758855,8,1
0.0003822504,-0.0005653456,8,1
0.0004190393,-0.0006199615,8,1
0.0004023465,-0.0006257959,8,1
0.000336548,-0.0005891691,8,1
0.0002433604,-0.0005207775,8,1
0.0001553589,-0.0004335865,8,1
0.0001046324,-0.0003384541,8,1
0.0001064152,-0.0002472114,8,1
0.0001615174,-0.000166827,8,1
0.000257298,-0.0001002181,8,1
0.0003717161,-4.722278e-05,8,1
0.0004775448,-2.330684e-06,8,1
0.0005566327,4.158902e-05,8,1
0.0006015248,9.069481e-05,8,1
0.0006175694,0.0001487142,8,1
0.0006013628,0.0002140265,8,1
0.0005383193,0.0002803113,8,1
0.0004157979,0.0003397893,8,1
0.0002427121,0.0003874365,8,1
5.957827e-05,0.0004240633,8,1
-7.963584e-05,0.000458097,8,1
-0.0001279313,0.0004942376,8,1
-6.407757e-05,0.00052503,8,1
7.870197e-05,0.0005430193,8,1
0.0002305572,0.0005441537,8,1
0.0003336308,0.0005391297,8,1
0.0003760919,0.0005394538,8,1
0.0003897054,0.0005470709,8,1
0.0004089912,0.0005433434,8,1
0.0004394595,0.0005026649,8,1
0.0004734932,0.000408505,8,1
0.0004971547,0.0002665357,8,1
0.0004982892,0.0001051186,8,1
0.0004678209,-4.349527e-05,8,1
0.0004028327,-0.000156941,8,1
0.000311914,-0.0002253326,8,1
0.0002133783,-0.0002546664,8,1
0.000125863,-0.0002592042,8,1
5.374392e-05,-0.0002523975,8,1
-9.299493e-06,-0.0002457528,8,1
-7.671866e-05,-0.0002468872,8,1
-0.0001498101,-0.000261149,8,1
-0.0002198223,-0.0002924276,8,1
-0.0002729798,-0.0003327818,8,1
-0.0003016653,-0.0003684362,8,1
-0.0003168994,-0.0003841565,8,1
-0.0003562813,-0.0003724878,8,1
-0.0004554653,-0.0003392644,8,1
-0.0006005137,-0.0002958309,8,1
-0.0007376209,-0.0002530457,8,1
-0.0008016367,-0.0002133397,8,1
-0.0007517206,-0.0001713648,8,1
-0.0005930586,-0.0001208004,8,1
-0.0003702189,-6.294311e-05,8,1
-0.0001407345,-6.544382e-06,8,1
4.320967e-05,3.672706e-05,8,1
0.000155683,6.379197e-05,8,1
0.0002055991,7.740546e-05,8,1
0.0002218057,8.972242e-05,8,1
0.0002381743,0.0001146805,8,1
0.0002658874,0.0001561692,8,1
0.0002923041,0.0002033302,8,1
0.0002987867,0.0002396328,8,1
0.0002654013,0.0002534084,8,1
0.0001786963,0.0002394708,8,1
3.948217e-05,0.0002031682,8,1
-0.0001279313,0.0001524417,8,1
-0.0002817312,9.31258e-05,8,1
-0.0003899909,2.214118e-05,8,1
-0.0004509274,-6.48879e-05,8,1
-0.0004841508,-0.0001663408,8,1
-0.0005154294,-0.000276059,8,1
-0.0005530285,-0.0003843186,8,1
-0.0005812279,-0.0004859335,8,1
-0.0005847933,-0.0005771763,8,1
-0.0005621043,-0.000650916,8,1
-0.0005189948,-0.0007013183,8,1
-0.0004603272,-0.000727897,8,1
-0.0003964735,-0.0007361624,8,1
-0.0003493125,-0.0007332452,8,1
-0.0003340784,-0.0007220627,8,1
-0.0003509331,-0.000707963,8,1
-0.0003958252,-0.0006904599,8,1
-0.0004553032,-0.0006645294,8,1
-0.0005068399,-0.0006282268,8,1
-0.00051705,-0.0005854416,8,1
-0.0004556273,-0.000541846,8,1
-0.0003190063,-0.0005039228,8,1
-0.0001295519,-0.0004726442,8,1
6.849186e-05,-0.0004416897,8,1
0.000227478,-0.0004036044,8,1
0.0003172622,-0.0003438023,8,1
0.0003354135,-0.0002588801,8,1
0.0002923041,-0.0001543479,8,1
0.0002017096,-4.673658e-05,8,1
8.74535e-05,5.050261e-05,8,1
-1.20546e-05,0.0001320215,8,1
-5.791909e-05,0.0002038164,8,1
-3.474375e-05,0.0002760976,8,1
4.207521e-05,0.0003503235,8,1
0.0001459591,0.0004179048,8,1
0.0002595669,0.0004746277,8,1
0.000376416,0.0005222749,8,1
0.0004971547,0.0005674912,8,1
0.0006164349,0.0006127074,8,1
0.0007305289,0.000661327,8,1
0.0008366818,0.0007081639,8,1
0.0009258178,0.0007462493,8,1
0.0009770306,0.0007762314,8,1
0.0009574206,0.0007997309,8,1
0.0008477023,0.0008253373,8,1
0.0006593822,0.0008579124,8,1
0.0004261701,0.0008981046,8,1
0.0001816135,0.0009366762,8,1
-5.030202e-05,0.000950938,8,1
-0.0002472114,0.0009183628,8,1
-0.0003869116,0.000839599,8,1
-0.0004556273,0.0007331221,8,1
-0.0004538446,0.0006200004,8,1
-0.0004042526,0.0005196818,8,1
-0.0003447747,0.0004412422,8,1
-0.0003141443,0.0003825745,8,1
-0.0003347266,0.0003375204,8,1
-0.0003971218,0.0002986247,8,1
-0.0004685925,0.0002556773,8,1
-0.0005063537,0.0002054371,8,1
-0.0004752372,0.000158114,8,1
-0.000367788,0.0001276457,8,1
-0.0002057227,0.0001190562,8,1
-2.647842e-05,0.0001253768,8,1
0.0001305629,0.0001331559,8,1
0.0002331503,0.0001278078,8,1
0.0002688046,9.53947e-05,8,1
0.0002466017,3.429608e-05,8,1
0.000187772,-4.365734e-05,8,1
0.000121001,-0.0001214487,8,1
6.897806e-05,-0.0001865989,8,1
4.564065e-05,-0.0002350565,8,1
6.46023e-05,-0.0002619593,8,1
0.0001511452,-0.0002666592,8,1
0.0003305515,-0.0002543422,8,1
0.0006060627,-0.0002319772,8,1
0.0009370004,-0.0002099363,8,1
0.001242818,-0.0001969711,8,1
0.001442969,-0.0001982676,8,1
0.001490941,-0.0002109087,8,1
0.001383005,-0.0002282497,8,1
0.00115822,-0.0002480217,8,1
0.0008848152,-0.0002695764,8,1
0.000629076,-0.0002942103,8,1
0.0004213082,-0.0003199787,8,1
0.0002610255,-0.0003389403,8,1
0.0001459591,-0.000345585,8,1
7.870197e-05,-0.0003415334,8,1
5.163707e-05,-0.0003322956,8,1
4.888196e-05,-0.000320789,8,1
5.163707e-05,-0.0003086341,8,1
4.158902e-05,-0.0002958309,8,1
7.485573e-07,-0.0002809209,8,1
-6.81292e-05,-0.000258718,8,1
-0.0001350622,-0.0002292221,8,1
-0.0001629374,-0.0002047502,8,1
-0.0001392759,-0.000213988,8,1
-7.574627e-05,-0.0002778417,8,1
8.851824e-06,-0.0003891806,8,1
9.831188e-05,-0.0005147812,8,1
0.0001788584,-0.0006165582,8,1
0.0002435224,-0.0006635571,8,1
0.0002807975,-0.0006455678,8,1
0.0002668598,-0.0005708557,8,1
0.0001846927,-0.0004643789,8,1
3.867184e-05,-0.0003622777,8,1
-0.0001499722,-0.0002924276,8,1
-0.0003407231,-0.0002564491,8,1
-0.0004835025,-0.0002386219,8,1
-0.0005454115,-0.0002209568,8,1
-0.0005373082,-0.0001906506,8,1
-0.0004946851,-0.0001478653,8,1
-0.0004557894,-9.503204e-05,8,1
-0.0004382863,-3.701266e-05,8,1
-0.0004470379,2.246531e-05,8,1
-0.0004784786,7.789165e-05,8,1
-0.0005219121,0.000128456,8,1
-0.0005687489,0.0001769136,8,1
-0.0006249856,0.0002294227,8,1
-0.0006984011,0.0002937627,8,1
-0.0007797579,0.0003717161,8,1
-0.000839398,0.0004546936,8,1
-0.0008452323,0.0005313505,8,1
-0.000780082,0.0005927734,8,1
-0.0006590193,0.0006391241,8,1
-0.0005277464,0.0006798024,8,1
-0.0004425001,0.0007172396,8,1
-0.0004277521,0.0007413874,8,1
-0.0004612996,0.0007319876,8,1
-0.0004971161,0.0006781818,8,1
-0.0005060296,0.0005853184,8,1
-0.0004835025,0.0004773828,8,1
-0.0004352071,0.0003799815,8,1
-0.0003767015,0.0003114278,8,1
-0.0003326198,0.0002790148,8,1
-0.0003267854,0.0002819319,8,1
-0.0003674638,0.0003127243,8,1
-0.0004322899,0.0003587509,8,1
-0.00048723,0.0004089912,8,1
-0.0005155915,0.0004538833,8,1
-0.0005394151,0.0004747897,8,1
-0.0006039171,0.0004585832,8,1
-0.0007559343,0.0004031568,8,1
-0.001008432,0.0003182346,8,1
-0.001324621,0.0002193747,8,1
-0.001621363,0.0001227837,8,1
-0.001801256,3.786152e-05,8,1
-0.001795745,-3.377136e-05,8,1
-0.001598026,-8.628052e-05,8,1
-0.001261578,-0.0001169109,8,1
-0.0008834797,-0.0001290658,8,1
-0.0005570802,-0.0001282554,8,1
-0.0003295405,-0.0001146419,8,1
-0.0001848162,-8.563225e-05,8,1
-5.743289e-05,-4.284701e-05,8,1
0.0001235941,4.962256e-06,8,1
0.0003945674,3.769945e-05,8,1
0.000740577,3.008238e-05,8,1
0.001105549,-2.550602e-05,8,1
0.001413311,-0.000114804,8,1
0.001610707,-0.0002122053,8,1
0.001693523,-0.0002921034,8,1
0.001706326,-0.0003397507,8,1
0.001710053,-0.0003591985,8,1
0.001748463,-0.0003674638,8,1
0.001826255,-0.0003796187,8,1
0.001906963,-0.0004084663,8,1
0.001940835,-0.0004549791,8,1
0.001891243,-0.0005074882,8,1
0.001749435,-0.0005502735,8,1
0.001541019,-0.0005729626,8,1
0.001299541,-0.0005736109,8,1
0.001055956,-0.0005557837,8,1
0.0008340888,-0.0005264499,8,1
0.0006400964,-0.0004941989,8,1
0.0004540453,-0.0004648651,8,1
0.0002540567,-0.0004402311,8,1
3.591673e-05,-0.0004146248,8,1
-0.0001794681,-0.000387722,8,1
-0.0003570916,-0.0003606571,8,1
-0.0004786406,-0.0003403989,8,1
-0.0005387668,-0.0003313232,8,1
-0.0005258016,-0.0003246786,8,1
-0.0004284004,-0.000310741,8,1
-0.0002561249,-0.0002841623,8,1
-4.90055e-05,-0.000248832,8,1
0.0001406109,-0.0002094502,8,1
0.0002842008,-0.0001726613,8,1
0.0003866261,-0.0001408965,8,1
0.0004741415,-0.0001131834,8,1
0.0005715428,-8.465986e-05,8,1
0.0006817472,-5.240886e-05,8,1
0.0007861174,-1.464765e-05,8,1
0.0008525642,2.975825e-05,8,1
0.0008571021,8.080883e-05,8,1
0.0007961654,0.0001380179,8,1
0.0006869333,0.0001958752,8,1
0.0005577672,0.0002508154,8,1
0.0004298976,0.0003078624,8,1
0.000309483,0.0003751195,8,1
0.0001843686,0.0004428628,8,1
4.564065e-05,0.0004794896,8,1
-0.0001096179,0.0004566384,8,1
-0.0002746004,0.0003722023,8,1
-0.0004353692,0.0002475741,8,1
-0.0005706937,0.0001145184,8,1
-0.000658371,2.623614e-07,8,1
-0.0006962943,-7.412562e-05,8,1
-0.0006985632,-0.0001008664,8,1
-0.000675874,-8.611845e-05,8,1
-0.0006317923,-4.187462e-05,8,1
-0.0005781487,1.501031e-05,8,1
-0.0005395772,7.157111e-05,8,1
-0.0005403875,0.000118408,8,1
-0.0005860899,0.0001535762,8,1
-0.0006572366,0.0001822617,8,1
-0.00072028,0.0002088404,8,1
-0.0007536653,0.0002388225,8,1
-0.0007586894,0.0002689667,8,1
-0.0007518827,0.0002918179,8,1
-0.0007523688,0.0003026763,8,1
-0.0007607963,0.0003046211,8,1
-0.0007546378,0.0003039728,8,1
-0.000708125,0.000309483,8,1
-0.0006097514,0.0003237448,8,1
-0.0004664857,0.0003480546,8,1
-0.0003053928,0.0003816021,8,1
-0.0001611547,0.000418391,8,1
-6.245691e-05,0.0004488593,8,1
-2.404744e-05,0.0004684692,8,1
-4.236082e-05,0.0004772207,8,1
-0.000104918,0.0004749518,8,1
-0.0001908126,0.0004524247,8,1
-0.0002768693,0.000391164,8,1
-0.000338292,0.0002765838,8,1
-0.0003533641,0.0001154908,8,1
-0.0003156029,-6.667062e-05,8,1
-0.0002428356,-0.0002297083,8,1
-0.0001629374,-0.0003394265,8,1
-9.649064e-05,-0.0003818876,8,1
-5.775702e-05,-0.0003645466,8,1
-4.38194e-05,-0.0003152788,8,1
-3.749886e-05,-0.0002642282,8,1
-1.902341e-05,-0.0002311669,8,1
2.068259e-05,-0.0002193361,8,1
7.90261e-05,-0.0002222533,8,1
0.0001524417,-0.0002310048,8,1
0.0002359054,-0.0002370013,8,1
0.0003182346,-0.0002361909,8,1
0.0003840331,-0.0002282497,8,1
0.0004242253,-0.000216419,8,1
0.0004323286,-0.0002029675,8,1
0.0004038051,-0.0001911368,8,1
0.0003469201,-0.0001848162,8,1
0.0002751252,-0.0001901644,8,1
0.0002036544,-0.0002076674,8,1
0.0001483901,-0.0002329496,8,1
0.0001206769,-0.0002601766,8,1
0.0001281319,-0.0002856209,8,1
0.0001576278,-0.0003039342,8,1
0.0001840444,-0.0003131719,8,1
0.0001918236,-0.0003053928,8,1
0.0001795066,-0.0002721694,8,1
0.0001569795,-0.0002128535,8,1
0.0001321835,-0.0001386276,8,1
0.0001112771,-6.423963e-05,8,1
9.928428e-05,-8.489166e-06,8,1
0.000108522,1.22552e-05,8,1
0.0001501728,-5.89612e-06,8,1
0.0002184023,-4.932962e-05,8,1
0.0002974902,-9.357346e-05,8,1
0.0003647473,-0.0001133454,8,1
0.0003963501,-9.730096e-05,8,1
0.0003816021,-4.932962e-05,8,1
0.0003221241,1.047248e-05,8,1
0.0002261814,5.747142e-05,8,1
0.0001094944,8.307774e-05,8,1
-1.140634e-05,9.247754e-05,8,1
-0.0001235555,9.426025e-05,8,1
-0.0002175534,9.782569e-05,8,1
-0.0002857829,0.0001081979,8,1
-0.0003235441,0.0001226217,8,1
-0.0003334301,0.0001376938,8,1
-0.0003347266,0.000150659,8,1
-0.0003541745,0.0001594105,8,1
-0.0003904771,0.000163138,8,1
-0.0004186764,0.0001616794,8,1
-0.000420135,0.000155683,8,1
-0.000402794,0.0001445005,8,1
-0.0003841565,0.0001320215,8,1
-0.0003681121,0.0001276457,8,1
-0.0003535262,0.0001342904,8,1
-0.0003454229,0.0001517934,8,1
-0.0003538503,0.000175455,8,1
-0.0003750809,0.0002031682,8,1
-0.0003959873,0.000232502,8,1
-0.0003922598,0.0002615117,8,1
-0.0003308371,0.0002916559,8,1
-0.0001912988,0.0003274723,8,1
1.241726e-05,0.0003684748,8,1
0.0002313675,0.0004098015,8,1
0.0004115842,0.0004371906,8,1
0.0005294057,0.0004365423,8,1
0.0005940699,0.0004101256,8,1
0.000629076,0.0003730126,8,1
0.000654034,0.0003399513,8,1
0.0006663511,0.0003140208,8,1
0.0006571133,0.0002929524,8,1
0.0006337758,0.0002749631,8,1
0.0006221072,0.0002631324,8,1
0.0006410689,0.0002568118,8,1
0.0006864472,0.0002493568,8,1
0.0007374978,0.00022764,8,1
0.000777528,0.000180479,8,1
0.0007987585,0.0001083599,8,1
0.0008117238,1.938607e-05,8,1
0.0008407335,-8.206682e-05,8,1
0.0008947013,-0.0001982676,8,1
0.0009616343,-0.0003238683,8,1
0.00100993,-0.0004402311,8,1
0.001021599,-0.0005311498,8,1
0.001013009,-0.0005951655,8,1
0.001014306,-0.0006340612,8,1
0.001047691,-0.0006400577,8,1
0.0011143,-0.0006024585,8,1
0.00118885,-0.0005223983,8,1
0.001216239,-0.0004180282,8,1
0.001145903,-0.0003121996,8,1
0.0009614723,-0.0002220912,8,1
0.000686123,-0.0001528894,8,1
0.0003723644,-9.924574e-05,8,1
6.978839e-05,-5.240886e-05,8,1
-0.0002062088,-8.165035e-06,8,1
-0.0004635685,2.959619e-05,8,1
-0.0006977529,5.179914e-05,8,1
-0.0008844521,5.115087e-05,8,1
-0.0009991943,2.489629e-05,8,1
-0.001038252,-2.453363e-05,8,1
-0.00101767,-9.19528e-05,8,1
-0.0009692122,-0.000159534,8,1
-0.000921565,-0.0002023193,8,1
-0.0008957966,-0.0002057227,8,1
-0.0008957966,-0.0001712027,8,1
-0.0009045482,-0.0001133454,8,1
-0.0008946622,-5.143648e-05,8,1
-0.0008449082,6.582909e-06,8,1
-0.0007533412,6.525056e-05,8,1
-0.0006345474,0.0001360731,8,1
-0.0005123502,0.0002169437,8,1
-0.0004113835,0.000294573,8,1
-0.0003496366,0.0003485408,8,1
-0.0003327818,0.0003676645,8,1
-0.000350609,0.0003519442,8,1
-0.0003929081,0.0003085106,8,1
-0.0004494688,0.0002516257,8,1
-0.0005097571,0.0001921477,8,1
-0.0005656697,0.0001352628,8,1
-0.0006146134,8.113296e-05,8,1
-0.0006549676,3.170304e-05,8,1
-0.0006849497,-1.140634e-05,8,1
-0.0007027769,-4.252288e-05,8,1
-0.0007043975,-5.791909e-05,8,1
-0.0006924047,-6.099833e-05,8,1
-0.0006742534,-5.22468e-05,8,1
-0.000653347,-3.198864e-05,8,1
-0.0006181788,9.106227e-07,8,1
-0.0005603215,4.061663e-05,8,1
-0.0004839888,7.643307e-05,8,1
-0.0004010113,0.0001052807,8,1
-0.0003269475,0.0001244044,8,1
-0.0002718453,0.0001347766,8,1
-0.0002365151,0.0001378558,8,1
-0.0002149604,0.0001362352,8,1
-0.0002063709,0.000130725,8,1
-0.0002292221,0.0001206769,8,1
-0.0003019894,9.960841e-05,8,1
-0.000400201,6.606088e-05,8,1
-0.0004651892,2.34377e-05,8,1
-0.0004536825,-2.210265e-05,8,1
-0.0003692465,-6.116039e-05,8,1
-0.0002606628,-8.336335e-05,8,1
-0.0001765509,-8.465986e-05,8,1
-0.0001323071,-6.926366e-05,8,1
-0.000119666,-5.111234e-05,8,1
-0.0001224211,-4.138842e-05,8,1
-0.000112211,-4.171256e-05,8,1
-6.877746e-05,-4.754691e-05,8,1
2.369211e-06,-5.046408e-05,8,1
7.432621e-05,-4.317115e-05,8,1
0.0001240803,-3.053005e-05,8,1
0.0001513072,-3.458168e-05,8,1
0.0001723757,-7.65566e-05,8,1
0.0002057612,-0.0001540238,8,1
0.0002624841,-0.0002472114,8,1
0.00033671,-0.0003285682,8,1
0.0004138531,-0.0003781601,8,1
0.0004840274,-0.0003911253,8,1
0.0005363746,-0.0003765395,8,1
0.0005520949,-0.0003465574,8,1
0.0005110924,-0.0003063652,8,1
0.0003965121,-0.000263742,8,1
0.0002174299,-0.0002261429,8,1
9.106227e-07,-0.0002010227,8,1
-0.0002172293,-0.0001994021,8,1
-0.0003964735,-0.0002243602,8,1
-0.0004964678,-0.0002652006,8,1
-0.0004810716,-0.0003045825,8,1
-0.0003486642,-0.000328244,8,1
-0.0001361966,-0.0003235441,8,1
9.63671e-05,-0.0002875656,8,1
0.0002931144,-0.000231329,8,1
0.0004256839,-0.0001637477,8,1
0.0004858102,-8.547019e-05,8,1
0.0004786793,5.772582e-06,8,1
0.0004221185,0.0001052807,8,1
0.0003414099,0.0002057612,8,1
0.0002595669,0.0002979764,8,1
0.0001817755,0.0003781987,8,1
0.0001051186,0.0004519385,8,1
2.651694e-05,0.0005272989,8,1
-5.354332e-05,0.0006054144,8,1
-0.0001248521,0.0006639201,8,1
-0.0001775233,0.0006752646,8,1
-0.0002028055,0.0006250244,8,1
-0.0002019951,0.0005238955,8,1
-0.0001854645,0.0003997535,8,1
-0.0001642339,0.0002874421,8,1
-0.0001452723,0.000215161,8,1
-0.000127283,0.000192796,8,1
-0.0001039456,0.0002135403,8,1
-5.69467e-05,0.0002613496,8,1
2.829966e-05,0.000319369,8,1
0.0001644345,0.0003757678,8,1
0.0003519442,0.0004245494,8,1
0.000577215,0.0004618245,8,1
0.0008143168,0.0004840274,8,1
0.001028243,0.0004861343,8,1
0.001187716,0.0004516144,8,1
0.001274907,0.0003579406,8,1
0.001285603,0.0001960373,8,1
0.001224829,-1.221667e-05,8,1
0.001107979,-0.0002138259,8,1
0.0009626067,-0.0003606571,8,1
0.0008196649,-0.0004402311,8,1
0.0007003848,-0.0004755614,8,1
0.0006180556,-0.0004987367,8,1
0.0005741358,-0.0005264499,8,1
0.0005598741,-0.0005543251,8,1
0.0005558224,-0.0005687489,8,1
0.0005401021,-0.0005617801,8,1
0.000500234,-0.0005258016,8,1
0.0004436732,-0.0004611376,8,1
0.000381278,-0.0003755671,8,1
0.0003136967,-0.000285945,8,1
0.0002315296,-0.0002036158,8,1
0.0001318594,-0.0001332795,8,1
1.841368e-05,-7.412562e-05,8,1
-0.0001045939,-2.583016e-05,8,1
-0.0002263049,1.014835e-05,8,1
-0.0003322956,3.364782e-05,8,1
-0.0004118697,5.212327e-05,8,1
-0.00047232,7.270556e-05,8,1
-0.0005313118,0.0001051186,8,1
-0.000606348,0.0001524417,8,1
-0.0006969426,0.0002172679,8,1
-0.0007881853,0.0002986247,8,1
-0.0008573871,0.0003908399,8,1
-0.0008781315,0.0004875929,8,1
-0.0008298361,0.0005867769,8,1
-0.0007066664,0.0006823955,8,1
-0.0005238568,0.0007622938,8,1
-0.00032322,0.0008195029,8,1
-0.00015451,0.000849485,8,1
-3.879538e-05,0.0008480264,8,1
3.640293e-05,0.0008104272,8,1
9.814982e-05,0.0007316634,8,1
0.0001639484,0.0006060627,8,1
0.0002297469,0.0004341113,8,1
0.0002877662,0.0002337985,8,1
0.0003414099,3.591673e-05,8,1
0.0003960259,-0.0001326312,8,1
0.0004563143,-0.0002596904,8,1
0.0005200059,-0.0003465574,8,1
0.0005824011,-0.0003992286,8,1
0.0006253485,-0.0004269418,8,1
0.0006156246,-0.0004394208,8,1
0.0005272989,-0.0004433104,8,1
0.0003765781,-0.0004450931,8,1
0.0002141886,-0.0004501171,8,1
7.999851e-05,-0.0004575721,8,1
-2.372331e-05,-0.0004653512,8,1
-0.000122259,-0.0004749131,8,1
-0.0002402425,-0.000487068,8,1
-0.0003873979,-0.0005006815,8,1
-0.0005499493,-0.0005151053,8,1
-0.0006919185,-0.0005266119,8,1
-0.0007765166,-0.0005326084,8,1
-0.0007842957,-0.0005290429,8,1
-0.0007100698,-0.000516888,8,1
-0.0005708557,-0.0005026262,8,1
-0.0004042526,-0.0004924161,8,1
-0.0002481838,-0.0004877163,8,1
-0.0001190177,-0.0004833405,8,1
-1.788895e-05,-0.0004718339,8,1
6.119892e-05,-0.0004512515,8,1
0.0001268354,-0.0004198109,8,1
0.0001806411,-0.0003767015,8,1
0.0002073819,-0.0003225718,8,1
0.0001838824,-0.0002642282,8,1
0.0001018773,-0.0002105846,8,1
-2.923353e-05,-0.0001639098,8,1
-0.000186761,-0.0001240417,8,1
-0.000345585,-9.081835e-05,8,1
-0.0004841508,-6.618442e-05,8,1
-0.0005857658,-5.2733e-05,8,1
-0.0006330888,-5.030202e-05,8,1
-0.000616234,-5.062615e-05,8,1
-0.0005437909,-4.462973e-05,8,1
-0.000437314,-2.664048e-05,8,1
-0.0003180339,4.151929e-06,8,1
-0.0002024813,4.320967e-05,8,1
-9.66527e-05,7.772959e-05,8,1
-6.706447e-06,9.458438e-05,8,1
6.200925e-05,9.182927e-05,8,1
0.0001117633,8.080883e-05,8,1
0.0001467694,7.52986e-05,8,1
0.0001641104,8.84259e-05,8,1
0.0001548727,0.000125863,8,1
0.0001154908,0.0001799928,8,1
6.768154e-05,0.0002383363,8,1
4.839576e-05,0.0002884145,8,1
7.983644e-05,0.000324393,8,1
0.0001662173,0.0003509718,8,1
0.0002910076,0.0003760919,8,1
0.000425846,0.0004028327,8,1
0.0005439916,0.0004264942,8,1
0.0006188659,0.0004409181,8,1
0.0006311828,0.0004425387,8,1
0.0005773771,0.0004329769,8,1
0.0004721967,0.0004125566,8,1
0.0003371962,0.0003841952,8,1
0.0001949028,0.0003508097,8,1
6.508849e-05,0.0003156415,8,1
-3.782299e-05,0.0002809595,8,1
-0.0001063766,0.0002504913,8,1
-0.000142031,0.0002289366,8,1
-0.0001522411,0.000220023,8,1
-0.0001580754,0.0002192126,8,1
-0.0001874093,0.0002159713,8,1
-0.0002528836,0.0002041406,8,1
-0.0003457471,0.0001816135,8,1
-0.0004416897,0.0001503349,8,1
-0.00051705,0.000113546,8,1
-0.0005557837,7.20573e-05,8,1
-0.000559187,2.732727e-05,8,1
-0.0005413599,-1.643037e-05,8,1
-0.0005181845,-5.257093e-05,8,1
-0.0005040849,-7.542214e-05,8,1
-0.0005078124,-8.887356e-05,8,1
-0.0005345531,-9.940781e-05,8,1
-0.0005836589,-0.000112373,8,1
-0.0006360059,-0.0001323071,8,1
-0.0006544815,-0.0001618029,8,1
-0.0006099135,-0.0001989159,8,1
-0.0004980884,-0.0002366771,8,1
-0.0003421817,-0.0002682799,8,1
-0.0001674752,-0.0002872415,8,1
9.986281e-06,-0.0002937241,8,1
0.0001795066,-0.0002872415,8,1
0.0003269861,-0.0002684419,8,1
0.0004352458,-0.0002371633,8,1
0.0005026649,-0.0001963229,8,1
0.0005402642,-0.000151917,8,1
0.0005601982,-0.0001115627,8,1
0.0005666808,-8.465986e-05,8,1
0.0005631154,-7.056019e-05,8,1
0.000544964,-6.326724e-05,8,1
0.0004994237,-5.710876e-05,8,1
0.0004214702,-4.592625e-05,8,1
0.0003245551,-2.583016e-05,8,1
0.0002360674,1.002961e-07,8,1
0.0001775618,2.586868e-05,8,1
0.0001616794,4.612685e-05,8,1
0.0001892305,5.601284e-05,8,1
0.000250005,5.779555e-05,8,1
0.0003195311,5.390598e-05,8,1
0.0003551855,4.855783e-05,8,1
0.0003130485,4.418206e-05,8,1
0.0001788584,4.288554e-05,8,1
-1.67545e-05,4.790957e-05,8,1
-0.0002185258,5.698522e-05,8,1
-0.0003805911,6.427817e-05,8,1
-0.00047702,6.525056e-05,8,1
-0.000509433,6.395404e-05,8,1
-0.0005040849,6.589881e-05,8,1
-0.0004982505,7.416415e-05,8,1
-0.0005228845,9.16672e-05,8,1
-0.0005975965,0.0001132219,8,1
-0.0007191455,0.000133318,8,1
-0.0008515528,0.0001474177,8,1
-0.000943768,0.0001561692,8,1
-0.0009565711,0.0001626518,8,1
-0.0008860728,0.0001709172,8,1
-0.0007458862,0.0001848548,8,1
-0.0005437909,0.0002049509,8,1
-0.0002831898,0.0002292607,8,1
1.403791e-05,0.0002504913,8,1
0.0003013798,0.0002602152,8,1
0.0005230852,0.0002547049,8,1
0.0006481997,0.0002357433,8,1
0.0006796404,0.0002120818,8,1
0.0006509548,0.0001931201,8,1
0.0005999042,0.0001811273,8,1
0.000552419,0.0001722137,8,1
0.0005148199,0.0001663793,8,1
0.0004756001,0.0001598967,8,1
0.0004070464,0.0001519555,8,1
0.0002835526,0.0001420695,8,1
0.0001120874,0.0001281319,8,1
-7.056019e-05,0.0001094944,8,1
-0.0002263049,8.74535e-05,8,1
-0.0003212752,6.589881e-05,8,1
-0.0003441264,4.953022e-05,8,1
-0.0003152788,4.110282e-05,8,1
-0.0002744383,3.672706e-05,8,1
-0.0002441321,3.121684e-05,8,1
-0.0002133397,2.457216e-05,8,1
-0.0001588858,1.97102e-05,8,1
-7.65566e-05,1.760335e-05,8,1
3.283749e-05,1.468618e-05,8,1
0.0001772377,9.500085e-06,8,1
0.000371392,4.244267e-07,8,1
0.0006187038,-1.237873e-05,8,1
0.000898915,-2.696461e-05,8,1
0.001166485,-3.911951e-05,8,1
0.001388029,-4.80331e-05,8,1
0.001557225,-5.808115e-05,8,1
0.001671158,-7.153257e-05,8,1
0.001717184,-8.660465e-05,8,1
0.001684771,-0.0001021629,8,1
0.00157878,-0.0001162626,8,1
0.001418497,-0.0001284175,8,1
0.001227908,-0.0001436516,8,1
0.001026947,-0.0001652063,8,1
0.0008340888,-0.0001904885,8,1
0.0006697544,-0.0002075054,8,1
0.0005538776,-0.0002039399,8,1
0.0004969927,-0.0001810887,8,1
0.0004861343,-0.0001608306,8,1
0.0004798138,-0.0001587237,8,1
0.0004239012,-0.0001809267,8,1
0.0002756114,-0.0002211189,8,1
1.792748e-05,-0.0002716832,8,1
-0.0003253268,-0.0003297026,8,1
-0.0006925668,-0.0003882082,8,1
-0.00101767,-0.0004361795,8,1
-0.001253475,-0.0004617858,8,1
-0.001375672,-0.0004591928,8,1
-0.001384099,-0.0004322899,8,1
-0.001283943,-0.0003880461,8,1
-0.001093192,-0.000340561,8,1
-0.0008499322,-0.000303286,8,1
-0.000608779,-0.0002924276,8,1
-0.0004130042,-0.0003243544,8,1
-0.000285945,-0.0003984183,8,1
-0.0002284118,-0.0004880404,8,1
-0.0002182017,-0.0005587008,8,1
-0.0002225774,-0.0005851175,8,1
-0.0002170672,-0.0005585388,8,1
-0.0002029675,-0.000484637,8,1
-0.0001959987,-0.0003812394,8,1
-0.0002075054,-0.0002681178,8,1
-0.0002394322,-0.0001564548,8,1
-0.0002830278,-4.754691e-05,8,1
-0.0003284061,6.087479e-05,8,1
-0.0003661673,0.0001723757,8,1
-0.0003807532,0.0002882525,8,1
-0.0003637363,0.0004081808,8,1
-0.0003220855,0.0005305402,8,1
-0.0002758969,0.0006501445,8,1
-0.0002457528,0.0007537043,8,1
-0.0002433218,0.0008217718,8,1
-0.0002627696,0.0008384645,8,1
-0.0002854588,0.0008037825,8,1
-0.0002908069,0.0007402529,8,1
-0.0002700626,0.0006807749,8,1
-0.0002295462,0.0006553305,8,1
-0.0001807646,0.000676237,8,1
-0.000127121,0.0007350668,8,1
-6.407757e-05,0.000812372,8,1
-1.196227e-06,0.0008966461,8,1
4.612685e-05,0.0009857821,8,1
6.751948e-05,0.00107589,8,1
5.925414e-05,0.001146713,8,1
2.441009e-05,0.001164054,8,1
-2.777494e-05,0.001102793,8,1
-7.947377e-05,0.0009569344,8,1
-0.0001141558,0.0007464114,8,1
-0.0001277692,0.000512551,8,1
-0.0001232314,0.000304297,8,1
-0.0001157764,0.0001584381,8,1
-0.0001126972,8.04847e-05,8,1
-0.000112211,5.341979e-05,8,1
-0.0001099421,5.374392e-05,8,1
-0.0001034594,5.974033e-05,8,1
-9.114248e-05,5.747142e-05,8,1
-6.958779e-05,3.737532e-05,8,1
-4.041603e-05,-2.168618e-06,8,1
-9.299493e-06,-5.467778e-05,8,1
9.013889e-06,-0.0001135075,8,1
-2.238346e-07,-0.0001780095,8,1
-4.252288e-05,-0.000246401,8,1
-0.0001154523,-0.0003188442,8,1
-0.0002036158,-0.00039777,8,1
-0.0002895104,-0.0004813957,8,1
-0.0003588744,-0.0005632387,8,1
-0.0003989045,-0.0006361681,8,1
-0.0003963114,-0.0006922426,8,1
-0.0003468815,-0.0007332452,8,1
-0.0002663351,-0.0007666306,8,1
-0.0001781716,-0.0008019609,8,1
-0.0001055663,-0.0008428013,8,1
-7.120844e-05,-0.0008881796,8,1
-8.725291e-05,-0.0009295062,8,1
-0.0001397621,-0.0009554367,8,1
-0.0001912988,-0.0009565711,8,1
-0.0002044261,-0.000933882,8,1
-0.000166827,-0.0008949863,8,1
-9.405965e-05,-0.0008489598,8,1
-1.318906e-05,-0.0008014747,8,1
5.601284e-05,-0.0007473448,8,1
0.0001080358,-0.0006815463,8,1
0.000148228,-0.0006082929,8,1
0.0001905271,-0.0005384427,8,1
0.000244981,-0.0004865818,8,1
0.0003081865,-0.0004627582,8,1
0.0003684748,-0.0004687546,8,1
0.0004169324,-0.0004977643,8,1
0.000450642,-0.0005280706,8,1
0.0004747897,-0.0005382806,8,1
0.0004932652,-0.0005141329,8,1
0.0005094717,-0.0004577342,8,1
0.0005216266,-0.0003755671,8,1
0.0005222749,-0.0002703867,8,1
0.0005049339,-0.0001459206,8,1
0.0004738173,-8.813297e-06,8,1
0.0004339493,0.0001266733,8,1
0.0003846814,0.000242388,8,1
0.0003161277,0.0003263378,8,1
0.0002164575,0.000373823,8,1
8.729144e-05,0.0003918123,8,1
-5.030202e-05,0.0003882468,8,1
-0.0001666649,0.0003707437,8,1
-0.000238946,0.000349027,8,1
-0.0002635799,0.0003297412,8,1
-0.0002502906,0.0003166139,8,1
-0.0002159328,0.0003075383,8,1
-0.0001763888,0.0002984626,8,1
-0.0001434896,0.0002876042,8,1
-0.0001185315,0.0002728562,8,1
-9.308726e-05,0.0002547049,8,1
-6.180866e-05,0.0002346088,8,1
-2.907146e-05,0.0002109473,8,1
-2.978945e-06,0.0001811273,8,1
8.851824e-06,0.0001435281,8,1
8.689758e-06,0.0001018773,8,1
6.420843e-06,6.087479e-05,8,1
4.80019e-06,2.651694e-05,8,1
-1.043395e-05,1.095867e-05,8,1
-5.808115e-05,2.619281e-05,8,1
-0.0001287416,7.481241e-05,8,1
-0.0001877334,0.0001496866,8,1
-0.0002032917,0.0002417397,8,1
-0.0001679614,0.0003378445,8,1
-9.260107e-05,0.0004240633,8,1
3.017472e-06,0.0004939134,8,1
9.16672e-05,0.000542371,8,1
0.0001587623,0.0005715428,8,1
0.0002119197,0.0005811046,8,1
0.0002675081,0.0005738117,8,1
0.0003425444,0.0005529052,8,1
0.000435894,0.0005182233,8,1
0.0005378332,0.0004689553,8,1
0.0006397723,0.0004059119,8,1
0.0007386322,0.0003313618,8,1
0.0008190167,0.0002487085,8,1
0.0008577504,0.0001598967,8,1
0.0008423541,6.83298e-05,8,1
0.0007658592,-1.67545e-05,8,1
0.0006237278,-8.530812e-05,8,1
0.000428277,-0.000127121,8,1
0.0002041406,-0.0001353863,8,1
-2.907146e-05,-0.0001162626,8,1
-0.0002533699,-7.995997e-05,8,1
-0.0004459034,-3.555408e-05,8,1
-0.000578797,7.879432e-06,8,1
-0.0006373025,4.855783e-05,8,1
-0.0006348715,8.729144e-05,8,1
-0.0006079687,0.0001279698,8,1
-0.0005883588,0.0001688103,8,1
-0.00058139,0.0002046267,8,1
-0.0005661559,0.0002308813,8,1
-0.0005167259,0.0002461155,8,1
-0.0004209454,0.0002519498,8,1
-0.0002945344,0.0002431983,8,1
-0.0001640719,0.0002124059,8,1
-4.932962e-05,0.0001459591,8,1
3.267542e-05,2.910999e-05,8,1
6.816773e-05,-0.0001313347,8,1
4.742337e-05,-0.0003100927,8,1
-2.7937e-05,-0.0004715097,8,1
-0.0001404103,-0.0005820383,8,1
-0.0002373254,-0.0006248235,8,1
-0.0002622834,-0.0005974344,8,1
-0.0001987538,-0.0005108916,8,1
-7.380149e-05,-0.0003817256,8,1
7.643307e-05,-0.000236353,8,1
0.0002326641,-9.973194e-05,8,1
0.0003879227,1.306552e-05,8,1
0.0005298919,9.101894e-05,8,1
0.0006392861,0.0001297526,8,1
0.0006963331,0.000140773,8,1
0.0006862851,0.0001422316,8,1
0.0006125454,0.0001464453,8,1
0.0004943996,0.0001618415,8,1
0.0003613439,0.0001910133,8,1
0.0002342847,0.000232502,8,1
0.0001237561,0.0002801492,8,1
3.575467e-05,0.0003333067,8,1
-1.983374e-05,0.0004015361,8,1
-4.122636e-05,0.0004884033,8,1
-3.409549e-05,0.0005862907,8,1
-1.092015e-05,0.0006807749,8,1
1.857574e-05,0.0007593766,8,1
4.953022e-05,0.0008263097,8,1
8.453633e-05,0.0008937289,8,1
0.0001281319,0.0009619584,8,1
0.0001736723,0.0009997197,8,1
0.000200413,0.0009614723,8,1
0.0001889064,0.000817396,8,1
0.0001386662,0.0005811046,8,1
6.78436e-05,0.0003080245,8,1
2.693341e-06,5.828175e-05,8,1
-3.344723e-05,-0.000127283,8,1
-3.474375e-05,-0.0002360289,8,1
-1.318906e-05,-0.0002796244,8,1
1.355172e-05,-0.0002822175,8,1
2.862379e-05,-0.0002703867,8,1
1.776542e-05,-0.0002622834,8,1
-2.874733e-05,-0.0002658489,8,1
-0.0001110765,-0.0002814071,8,1
-0.0002062088,-0.0003042584,8,1
-0.000278652,-0.000328082,8,1
-0.0003060411,-0.0003459091,8,1
-0.0002844864,-0.0003540124,8,1
-0.0002237119,-0.0003525538,8,1
-0.0001468929,-0.0003476919,8,1
-8.709085e-05,-0.0003447747,8,1
-7.542214e-05,-0.0003457471,8,1
-0.0001180453,-0.0003491504,8,1
-0.0002013469,-0.0003491504,8,1
-0.0003029619,-0.000343154,8,1
-0.000400201,-0.0003279199,8,1
-0.0004679443,-0.0003005308,8,1
-0.0004899852,-0.0002647144,8,1
-0.0004779923,-0.0002277635,8,1
-0.0004583824,-0.0001934057,8,1
-0.0004530343,-0.0001642339,8,1
-0.0004630823,-0.0001421931,8,1
-0.0004800992,-0.0001311726,8,1
-0.0004954954,-0.0001336036,8,1
-0.0005014918,-0.0001473791,8,1
-0.0004985746,-0.0001673132,8,1
-0.0005001953,-0.0001869231,8,1
-0.0005215878,-0.000204102,8,1
-0.0005621043,-0.0002177155,8,1
-0.0006204477,-0.0002256567,8,1
-0.0007050458,-0.0002269532,8,1
-0.0008240017,-0.0002224154,8,1
-0.0009609469,-0.0002143121,8,1
-0.001089789,-0.0002031296,8,1
-0.001194969,-0.0001890299,8,1
-0.001253637,-0.0001736337,8,1
-0.001229327,-0.000156941,8,1
-0.001081199,-0.0001384655,8,1
-0.0007889956,-0.0001190177,8,1
-0.000365357,-0.0001039456,8,1
0.0001370455,-0.0001005423,8,1
0.0006128695,-0.0001141558,8,1
0.0009528828,-0.0001412206,8,1
0.001102145,-0.0001715269,8,1
0.001079618,-0.0001958367,8,1
0.0009454277,-0.0002118811,8,1
0.0007668316,-0.0002196603,8,1
0.0005997422,-0.0002207947,8,1
0.0004840274,-0.0002207947,8,1
0.0004415663,-0.000223874,8,1
0.0004715484,-0.0002308428,8,1
0.0005507984,-0.0002370013,8,1
0.0006520892,-0.0002382978,8,1
0.0007631041,-0.0002324634,8,1
0.0008814119,-0.0002198223,8,1
0.000992751,-0.0002026434,8,1
0.001078484,-0.0001801163,8,1
0.001124348,-0.0001536997,8,1
0.001118352,-0.0001287416,8,1
0.001061143,-0.0001092938,8,1
0.0009724927,-9.681477e-05,8,1
0.0008856256,-8.498399e-05,8,1
0.0008344129,-6.456377e-05,8,1
0.0008293889,-3.425755e-05,8,1
0.0008522401,-2.006553e-06,8,1
0.0008671501,2.424803e-05,8,1
0.0008337647,4.175109e-05,8,1
0.0007170775,5.082674e-05,8,1
0.0005133613,5.536457e-05,8,1
0.0002568118,6.055066e-05,8,1
-3.858999e-07,7.319176e-05,8,1
-0.0002222533,9.426025e-05,8,1
-0.0003985804,0.0001182459,8,1
-0.0005275843,0.0001372076,8,1
-0.0006071584,0.0001483901,8,1
-0.0006277406,0.0001548727,8,1
-0.0005859278,0.0001637863,8,1
-0.0005031124,0.0001806411,8,1
-0.0004110594,0.000205275,8,1
-0.0003284061,0.0002352571,8,1
-0.000253856,0.0002649151,8,1
-0.0001895161,0.0002913317,8,1
-0.0001431655,0.0003125623,8,1
-0.0001156143,0.0003271482,8,1
-9.324933e-05,0.0003350894,8,1
-6.342931e-05,0.0003368721,8,1
-1.934754e-05,0.0003320101,8,1
2.959619e-05,0.0003248792,8,1
6.200925e-05,0.000316776,8,1
5.795762e-05,0.00030689,8,1
8.203562e-06,0.0002937627,8,1
-8.530812e-05,0.0002769079,8,1
-0.0001937298,0.0002558394,8,1
-0.0002739521,0.0002355812,8,1
-0.0002893484,0.0002193747,8,1
-0.0002300324,0.0002117576,8,1
-0.0001240417,0.0002109473,8,1
-2.226472e-05,0.0002164575,8,1
3.13789e-05,0.0002229401,8,1
1.695509e-05,0.000227478,8,1
-4.706071e-05,0.0002282883,8,1
-0.0001276072,0.0002216436,8,1
-0.0001998883,0.0001992786,8,1
-0.0002532078,0.000163138,8,1
-0.0002916173,0.0001197045,8,1
-0.0003274337,6.914012e-05,8,1
-0.0003658432,2.693341e-06,8,1
-0.0004060354,-8.530812e-05,8,1
-0.0004403932,-0.0001878955,8,1
-0.0004564377,-0.0002869174,8,1
-0.0004363416,-0.0003632501,8,1
-0.0003713534,-0.0004099249,8,1
-0.0002702246,-0.0004318037,8,1
-0.0001608306,-0.0004342347,8,1
-6.926366e-05,-0.0004207833,8,1
-1.221667e-05,-0.0003932322,8,1
6.744974e-06,-0.0003619536,8,1
-2.492749e-06,-0.0003344025,8,1
-2.566809e-05,-0.0003117133,8,1
-5.062615e-05,-0.0002914552,8,1
-7.266703e-05,-0.000271197,8,1
-8.903562e-05,-0.0002468872,8,1
-9.924574e-05,-0.0002185258,8,1
-9.859748e-05,-0.0001880575,8,1
-8.628052e-05,-0.0001571031,8,1
-6.764301e-05,-0.0001217728,8,1
-5.32192e-05,-7.493595e-05,8,1
-5.386745e-05,-9.947754e-06,8,1
-7.250496e-05,6.719535e-05,8,1
-9.989401e-05,0.0001453108,8,1
-0.0001214487,0.0002125679,8,1
-0.0001235555,0.0002637806,8,1
-0.0001016767,0.0002974902,8,1
-6.683268e-05,0.0003205035,8,1
-3.247483e-05,0.0003457857,8,1
-1.237873e-05,0.0003840331,8,1
-9.785688e-06,0.0004313562,8,1
-2.534396e-05,0.0004777069,8,1
-4.80331e-05,0.0005089855,8,1
-5.791909e-05,0.0005096338,8,1
-3.539201e-05,0.0004704139,8,1
1.695509e-05,0.0003919743,8,1
7.999851e-05,0.0002887387,8,1
0.0001292664,0.0001808031,8,1
0.0001488763,8.875003e-05,8,1
0.0001469315,2.943412e-05,8,1
0.0001393144,3.341602e-06,8,1
0.0001376938,9.106227e-07,8,1
0.0001406109,1.355172e-05,8,1
0.0001394765,3.575467e-05,8,1
0.0001276457,6.168512e-05,8,1
9.63671e-05,7.837785e-05,8,1
1.906194e-05,7.57848e-05,8,1
-0.0001131834,5.050261e-05,8,1
-0.0002715212,1.047248e-05,8,1
-0.0004117076,-2.647842e-05,8,1
-0.0005010056,-4.657452e-05,8,1
-0.0005258016,-5.046408e-05,8,1
-0.0004852853,-4.608832e-05,8,1
-0.0003776739,-4.754691e-05,8,1
-0.00019924,-6.407757e-05,8,1
4.207521e-05,-9.211487e-05,8,1
0.0003182346,-0.0001141558,8,1
0.0005927734,-0.0001182074,8,1
0.0008251752,-0.0001041077,8,1
0.0009760582,-8.530812e-05,8,1
0.001028405,-7.428769e-05,8,1
0.0009898337,-7.509801e-05,8,1
0.0008804395,-8.206682e-05,8,1
0.0007285841,-8.692878e-05,8,1
0.0005755944,-8.109443e-05,8,1
0.00046069,-6.586029e-05,8,1
0.0004081808,-3.976777e-05,8,1
0.0004114222,-2.81688e-06,8,1
0.0004444835,4.126489e-05,8,1
0.0004657141,8.696731e-05,8,1
0.0004289252,0.0001276457,8,1
0.0003036487,0.0001543865,8,1
9.004655e-05,0.0001662173,8,1
-0.0001699062,0.0001652449,8,1
-0.0004055492,0.0001535762,8,1
-0.000559187,0.0001321835,8,1
-0.0006133168,0.0001041462,8,1
-0.0005857658,7.335383e-05,8,1
-0.0005154294,4.45062e-05,8,1
-0.0004470379,1.873781e-05,8,1
-0.0004108973,-7.516774e-06,8,1
-0.000417542,-4.122636e-05,8,1
-0.00046211,-8.806324e-05,8,1
-0.0005275843,-0.0001478653,8,1
-0.0005932208,-0.0002160948,8,1
-0.0006486471,-0.0002852967,8,1
-0.0006961322,-0.0003517435,8,1
-0.0007379451,-0.0004084663,8,1
-0.0007684134,-0.0004488206,8,1
-0.0007734374,-0.0004713477,8,1
-0.000737783,-0.0004736166,8,1
-0.0006530228,-0.0004531963,8,1
-0.0005240189,-0.0004138145,8,1
