EMG1,EMG2,class,user
-0.0001801163,9.863601e-05,8,1
-0.000174444,0.0001056048,8,1
-0.0001981056,9.928428e-05,8,1
-0.0002301945,8.761557e-05,8,1
-0.0002467252,7.740546e-05,8,1
-0.0002272773,7.384002e-05,8,1
-0.0001566169,7.999851e-05,8,1
-5.013995e-05,9.26396e-05,8,1
3.575467e-05,0.0001044704,8,1
4.515445e-05,0.000103498,8,1
-1.659243e-05,8.145709e-05,8,1
-8.514606e-05,4.061663e-05,8,1
-9.535618e-05,-1.844488e-06,8,1
-3.182657e-05,-2.89094e-05,8,1
6.687121e-05,-2.696461e-05,8,1
0.0001534141,4.313994e-06,8,1
0.0001921477,4.418206e-05,8,1
0.0001598967,5.082674e-05,8,1
5.536457e-05,-6.382317e-06,8,1
-8.935975e-05,-0.0001243659,8,1
-0.0002305186,-0.0002603387,8,1
-0.0003438023,-0.000355633,8,1
-0.0004347209,-0.0003775118,8,1
-0.0005102433,-0.0003287302,8,1
-0.0005634008,-0.0002323013,8,1
-0.0005784728,-0.0001167488,8,1
-0.0005476804,-5.085794e-06,8,1
-0.0004786406,8.875003e-05,8,1
-0.0003758912,0.0001615174,8,1
-0.0002357047,0.0002094887,8,1
-5.565017e-05,0.0002231022,8,1
0.0001560072,0.0001983062,8,1
0.0003718782,0.0001428799,8,1
0.0005454503,7.238143e-05,8,1
0.0006379896,-2.168618e-06,8,1
0.0006357207,-7.056019e-05,8,1
0.0005546879,-0.0001190177,8,1
0.0004305459,-0.0001305243,8,1
0.0003039728,-8.871149e-05,8,1
0.0002025199,7.717366e-06,8,1
0.0001352628,0.0001453108,8,1
9.733949e-05,0.0003038107,8,1
9.409818e-05,0.0004746277,8,1
0.0001344524,0.0006527375,8,1
0.0002145127,0.000832306,8,1
0.0002992729,0.0009901578,8,1
0.0003358997,0.00109858,8,1
0.0003000832,0.00113942,8,1
0.0002135403,0.001124672,8,1
0.0001295905,0.001079618,8,1
9.442231e-05,0.001020302,8,1
0.0001177597,0.0009470484,8,1
0.0001715654,0.0008446231,8,1
0.0002172679,0.0007024916,8,1
0.0002360674,0.0005182233,8,1
0.0002273159,0.0003054314,8,1
0.0001958752,8.74535e-05,8,1
0.0001347766,-0.0001052422,8,1
3.964424e-05,-0.0002543422,8,1
-7.898758e-05,-0.0003591985,8,1
-0.0001922712,-0.0004267797,8,1
-0.0002715212,-0.0004674581,8,1
-0.0003211132,-0.0004890127,8,1
-0.0003749188,-0.0005048952,8,1
-0.0004600031,-0.0005253154,8,1
-0.0005698834,-0.0005533527,8,1
-0.0006689052,-0.0005805797,8,1
-0.0007112043,-0.0005920863,8,1
-0.0006676087,-0.000576528,8,1
-0.0005275843,-0.0005316359,8,1
-0.0003102548,-0.0004689167,8,1
-6.375344e-05,-0.0004040906,8,1
0.0001529279,-0.0003481781,8,1
0.0002916559,-0.0003062031,8,1
0.0003164518,-0.000276059,8,1
0.0002190506,-0.0002577456,8,1
3.948217e-05,-0.0002472114,8,1
-0.0001318209,-0.0002410529,8,1
-0.0002071812,-0.0002348944,8,1
-0.0001465688,-0.0002253326,8,1
2.846173e-05,-0.000209126,8,1
0.0002637806,-0.0001914609,8,1
0.0005041235,-0.0001822232,8,1
0.0007067053,-0.0001883817,8,1
0.0008498091,-0.0002122053,8,1
0.0009337591,-0.0002493182,8,1
0.0009809202,-0.0002914552,8,1
0.00101463,-0.0003316474,8,1
0.001041857,-0.0003640605,8,1
0.001054012,-0.0003890185,8,1
0.001036022,-0.0004065215,8,1
0.0009700617,-0.0004206212,8,1
0.0008423541,-0.0004322899,8,1
0.000651441,-0.0004410415,8,1
0.0004123946,-0.0004426621,8,1
0.0001516314,-0.0004342347,8,1
-0.0001015147,-0.0004112214,8,1
-0.0003225718,-0.0003650328,8,1
-0.0004857715,-0.000286107,8,1
-0.0005726385,-0.0001771992,8,1
-0.0005825245,-5.662256e-05,8,1
-0.0005394151,5.309566e-05,8,1
-0.0004734545,0.00013818,8,1
-0.0004214316,0.0001945787,8,1
-0.000407656,0.0002278021,8,1
-0.0004420138,0.0002509774,8,1
-0.0005050572,0.0002725321,8,1
-0.0005556216,0.0002924662,8,1
-0.0005561078,0.0003075383,8,1
-0.0004930644,0.0003135347,8,1
-0.000375405,0.000307052,8,1
-0.0002241981,0.0002900352,8,1
-6.342931e-05,0.0002702632,8,1
8.032264e-05,0.0002581083,8,1
0.000178048,0.0002576221,8,1
0.0002085163,0.0002626462,8,1
0.0001715654,0.0002668598,8,1
8.178122e-05,0.000267184,8,1
-3.766092e-05,0.0002639427,8,1
-0.0001549962,0.0002521119,8,1
-0.0002376495,0.0002231022,8,1
-0.0002642282,0.0001827479,8,1
-0.0002230636,0.0001466074,8,1
-0.0001136696,0.000121001,8,1
5.390598e-05,0.0001041462,8,1
0.000259729,8.097089e-05,8,1
0.0004683071,2.716521e-05,8,1
0.0006399344,-7.785312e-05,8,1
0.0007438183,-0.000228898,8,1
0.0007644006,-0.0003959873,8,1
0.0007003848,-0.000541846,8,1
0.0005611706,-0.0006358439,8,1
0.0003684748,-0.0006667984,8,1
0.000158114,-0.0006518884,8,1
-4.090223e-05,-0.0006240131,8,1
-0.0002152845,-0.0006052136,8,1
-0.0003648708,-0.0005958138,8,1
-0.0004854474,-0.0005823624,8,1
-0.0005671282,-0.0005463839,8,1
-0.0005928966,-0.0004823681,8,1
-0.00055157,-0.0003895047,8,1
-0.000449955,-0.0002750866,8,1
-0.0003113892,-0.0001498101,8,1
-0.000159372,-2.939559e-05,8,1
-1.432352e-05,7.059871e-05,8,1
0.0001043083,0.0001380179,8,1
0.0001767515,0.0001764274,8,1
0.0001924718,0.0001976579,8,1
0.0001686482,0.0002159713,8,1
0.0001393144,0.0002378501,8,1
0.0001339663,0.0002644289,8,1
0.0001650828,0.0002960316,8,1
0.00022764,0.0003402755,8,1
0.000299597,0.0004145014,8,1
0.0003577785,0.0005289196,8,1
0.0003942432,0.0006853127,8,1
0.0004051016,0.0008755776,8,1
0.0003670162,0.001072973,8,1
0.0002590807,0.001231311,8,1
9.717743e-05,0.001301648,8,1
-7.979791e-05,0.001251894,8,1
-0.0002303566,0.001085128,8,1
-0.0003245165,0.0008404093,8,1
-0.0003538503,0.0005757565,8,1
-0.0003410472,0.0003527545,8,1
-0.0003463953,0.0002046267,8,1
-0.000434883,0.0001300767,8,1
-0.0006214201,0.0001020394,8,1
-0.0008528493,8.923623e-05,8,1
-0.001042628,7.238143e-05,8,1
-0.001127874,4.790957e-05,8,1
-0.001088978,2.408596e-05,8,1
-0.0009322613,1.12828e-05,8,1
-0.0006799257,2.522042e-05,8,1
-0.0003622777,7.319176e-05,8,1
-1.950961e-05,0.0001467694,8,1
0.0003030004,0.0002279642,8,1
0.0005644119,0.0002989488,8,1
0.0007515975,0.0003480546,8,1
0.0008679605,0.0003726885,8,1
0.0009295454,0.0003811159,8,1
0.0009669825,0.0003890571,8,1
0.001022247,0.0004042913,8,1
0.001101821,0.0004242253,8,1
0.001167296,0.0004475628,8,1
0.001157734,0.0004665244,8,1
0.00104526,0.000462959,8,1
0.0008467299,0.0004204978,8,1
0.0006010387,0.000336548,8,1
0.0003370341,0.0002219677,8,1
6.281957e-05,9.523264e-05,8,1
-0.0002319772,-3.231277e-05,8,1
-0.0005582146,-0.0001566169,8,1
-0.0009150825,-0.0002804347,8,1
-0.001285402,-0.0003971218,8,1
-0.001634166,-0.0004880404,8,1
-0.001918267,-0.0005340669,8,1
-0.002086653,-0.000524343,8,1
-0.002100104,-0.0004630823,8,1
-0.001952301,-0.0003656811,8,1
-0.001665445,-0.000251101,8,1
-0.00128135,-0.0001431655,8,1
-0.0008601423,-6.099833e-05,8,1
-0.0004625961,-1.237873e-05,8,1
-0.0001258245,1.558884e-06,8,1
0.0001560072,-3.134038e-05,8,1
0.0004222805,-0.0001331174,8,1
0.0007099467,-0.0003074997,8,1
0.001014143,-0.0005259637,8,1
0.001301162,-0.0007382692,8,1
0.001535022,-0.0008907726,8,1
0.00169093,-0.0009513851,8,1
0.001753649,-0.0009275614,8,1
0.001722695,-0.0008541459,8,1
0.0016086,-0.0007701961,8,1
0.001416876,-0.0007021286,8,1
0.001160003,-0.0006577228,8,1
0.000866826,-0.0006303337,8,1
0.0005759185,-0.0006131548,8,1
0.0003323342,-0.000601162,8,1
0.0001736723,-0.000591438,8,1
0.0001150046,-0.0005755557,8,1
0.0001423936,-0.0005481666,8,1
0.0002234263,-0.0005097571,8,1
0.0003307136,-0.0004627582,8,1
0.0004533971,-0.0004081422,8,1
0.0005909906,-0.0003481781,8,1
0.0007407391,-0.0002812451,8,1
0.0008948633,-0.000206533,8,1
0.001033753,-0.0001293899,8,1
0.001127752,-5.176061e-05,8,1
0.001151737,2.781346e-05,8,1
0.00108918,0.000118408,8,1
0.0009292212,0.0002323399,8,1
0.0006832058,0.0003747954,8,1
0.0003976466,0.0005405883,8,1
0.0001244044,0.0007128638,8,1
-0.0001162626,0.0008647192,8,1
-0.000335699,0.0009656859,8,1
-0.0005588629,0.000992913,8,1
-0.0007826751,0.0009370004,8,1
-0.0009802326,0.0007992447,8,1
-0.001111019,0.0005935837,8,1
-0.001142298,0.0003532407,8,1
-0.001071962,0.0001274836,8,1
-0.0009379336,-3.344723e-05,8,1
-0.0007844578,-0.0001036215,8,1
-0.0006465403,-8.838737e-05,8,1
-0.0005580526,-1.562004e-05,8,1
-0.0005471942,6.865393e-05,8,1
-0.0006108859,0.0001218114,8,1
-0.0007024527,0.0001248906,8,1
-0.0007515585,8.696731e-05,8,1
-0.0007065044,3.364782e-05,8,1
-0.0005595111,-8.975362e-06,8,1
-0.0003446126,-2.0482e-05,8,1
-0.0001217728,1.396819e-06,8,1
5.828175e-05,3.883391e-05,8,1
0.0001587623,6.735741e-05,8,1
0.0001709172,7.157111e-05,8,1
0.0001090082,4.888196e-05,8,1
2.207145e-06,4.962256e-06,8,1
-0.000107349,-4.80331e-05,8,1
-0.000186761,-9.324933e-05,8,1
-0.0002233878,-0.000119666,8,1
-0.0002271153,-0.0001227452,8,1
-0.0002212809,-0.0001037836,8,1
-0.0002352185,-7.785312e-05,8,1
-0.0002924276,-5.986387e-05,8,1
-0.0003937184,-5.516398e-05,8,1
-0.0005125122,-5.370539e-05,8,1
-0.0006034309,-4.300908e-05,8,1
-0.0006246614,-2.031993e-05,8,1
-0.0005570802,1.014835e-05,8,1
-0.0004112214,3.915804e-05,8,1
-0.0002335979,5.698522e-05,8,1
-9.324933e-05,5.633696e-05,8,1
-5.208474e-05,3.721326e-05,8,1
-0.0001368449,1.014835e-05,8,1
-0.00033813,-1.367526e-05,8,1
-0.0006042412,-3.668853e-05,8,1
-0.0008575493,-6.521203e-05,8,1
-0.001029663,-0.0001007043,8,1
-0.001081686,-0.000137007,8,1
-0.001002111,-0.0001660166,8,1
-0.0008086055,-0.0001797922,8,1
-0.0005455735,-0.0001759026,8,1
-0.000266173,-0.0001524032,8,1
-1.432352e-05,-0.0001143178,8,1
0.000185503,-7.250496e-05,8,1
0.000319207,-3.63644e-05,8,1
0.0003798194,-1.027188e-05,8,1
0.0003710679,4.313994e-06,8,1
0.0003091589,6.420843e-06,8,1
0.0002117576,-5.409925e-06,8,1
9.798775e-05,-3.166451e-05,8,1
-1.010982e-05,-7.201877e-05,8,1
-8.968389e-05,-0.0001339277,8,1
-0.0001263107,-0.0002212809,8,1
-0.0001267968,-0.0003230579,8,1
-0.0001071869,-0.0004139766,8,1
-9.66527e-05,-0.0004648651,8,1
-0.0001280934,-0.0004604893,8,1
-0.0002112329,-0.0004045768,8,1
-0.000325813,-0.0003177098,8,1
-0.0004308313,-0.0002237119,8,1
-0.000482206,-0.0001404103,8,1
-0.0004562756,-7.396356e-05,8,1
-0.0003590364,-2.258885e-05,8,1
-0.0002152845,2.084466e-05,8,1
-4.689865e-05,6.362991e-05,8,1
0.0001318594,0.0001098185,8,1
0.0003046211,0.0001589243,8,1
0.0004415663,0.0002078681,8,1
0.0005143337,0.0002564877,8,1
0.0005115786,0.000299597,8,1
0.0004427008,0.0003128864,8,1
0.0003271482,0.0002739907,8,1
0.0001835583,0.0001832341,8,1
2.975825e-05,6.751948e-05,8,1
-0.0001195039,-3.21507e-05,8,1
-0.0002395943,-7.995997e-05,8,1
-0.0003019894,-6.310517e-05,8,1
-0.0002805968,8.041497e-06,8,1
-0.0001536997,0.0001096565,8,1
8.453633e-05,0.0002184023,8,1
0.0004115842,0.000321638,8,1
0.0007823899,0.0004201737,8,1
0.001149468,0.0005164405,8,1
0.00147441,0.0006052523,8,1
0.001720101,0.0006759129,8,1
0.001860937,0.0007186982,8,1
0.001877305,0.0007253428,8,1
0.001756728,0.0006866092,8,1
0.001521571,0.0006047662,8,1
0.001231311,0.0004931031,8,1
0.0009528828,0.000373823,8,1
0.0007246946,0.0002751252,8,1
0.0005506363,0.0002166196,8,1
0.0004140152,0.0002062474,8,1
0.0002869559,0.0002409294,8,1
0.000140773,0.0003062417,8,1
-2.372331e-05,0.0003848434,8,1
-0.0001710407,0.0004650658,8,1
-0.0002486699,0.0005457744,8,1
-0.0002211189,0.0006362069,8,1
-0.0001044318,0.0007374978,8,1
3.60788e-05,0.0008386266,8,1
0.0001389903,0.0009159319,8,1
0.0001924718,0.0009370004,8,1
0.0002373639,0.0008812498,8,1
0.000316776,0.000750463,8,1
0.0004363802,0.000569598,8,1
0.0005561466,0.0003796573,8,1
0.0006203245,0.0002203471,8,1
0.000586939,0.0001098185,8,1
0.0004449697,4.483033e-05,8,1
0.00021273,8.689758e-06,8,1
-6.926366e-05,-1.643037e-05,8,1
-0.0003433161,-3.798505e-05,8,1
-0.0005546492,-6.359137e-05,8,1
-0.0006729569,-8.984595e-05,8,1
-0.0006993735,-0.0001128592,8,1
-0.0006517263,-0.0001353863,8,1
-0.0005510838,-0.0001783336,8,1
-0.0004087905,-0.0002749245,8,1
-0.0002421874,-0.0004365036,8,1
-9.081835e-05,-0.0006329267,8,1
-2.81688e-06,-0.0008157364,8,1
-1.286493e-05,-0.000946361,8,1
-0.0001180453,-0.00101378,8,1
-0.000276221,-0.001033228,8,1
-0.000437476,-0.001031445,8,1
-0.0005593491,-0.001029338,8,1
-0.0006222305,-0.0010342,8,1
-0.000633575,-0.001043438,8,1
-0.0006188271,-0.001054783,8,1
-0.0005951655,-0.001065965,8,1
-0.0005708557,-0.001080227,8,1
-0.0005476804,-0.001099513,8,1
-0.0005256396,-0.001118474,8,1
-0.0005079744,-0.001123985,8,1
-0.0004930644,-0.001103726,8,1
-0.0004794509,-0.001055755,8,1
-0.0004640547,-0.0009894704,8,1
-0.0004397449,-0.0009124894,8,1
-0.000392746,-0.0008265948,8,1
-0.0003156029,-0.0007293556,8,1
-0.0002185258,-0.0006196374,8,1
-0.0001190177,-0.0005014918,8,1
-3.117831e-05,-0.0003757291,8,1
4.126489e-05,-0.0002436459,8,1
0.000103498,-0.000107349,8,1
0.0001547106,3.105477e-05,8,1
0.0001765894,0.0001684862,8,1
0.0001435281,0.0002973281,8,1
4.223728e-05,0.0004088291,8,1
-0.000112373,0.0005010443,8,1
-0.0002805968,0.0005733255,8,1
-0.0004078181,0.0006196762,8,1
-0.0004504412,0.000626807,8,1
-0.0003917736,0.0005929354,8,1
-0.0002577456,0.0005307022,8,1
-0.0001003802,0.0004649037,8,1
2.34377e-05,0.0004167703,8,1
7.967438e-05,0.0003969983,8,1
7.238143e-05,0.0004018603,8,1
3.834771e-05,0.000418553,8,1
3.089271e-05,0.0004336251,8,1
9.377406e-05,0.000438325,8,1
0.0002247229,0.0004292493,8,1
0.0003731747,0.0004063981,8,1
0.0004777069,0.0003743092,8,1
0.000492779,0.0003440029,8,1
0.0004132049,0.0003276344,8,1
0.0002764217,0.0003255275,8,1
0.0001291043,0.0003286068,8,1
1.095867e-05,0.0003276344,8,1
-5.2733e-05,0.0003145071,8,1
-5.483985e-05,0.0002892249,8,1
-1.010982e-05,0.000252436,8,1
5.341979e-05,0.0002109473,8,1
0.0001151667,0.0001736723,8,1
0.000185341,0.0001498487,8,1
0.0002929524,0.0001466074,8,1
0.0004446456,0.0001624898,8,1
0.000614166,0.0001889064,8,1
0.0007608352,0.0002174299,8,1
0.0008535367,0.000244981,8,1
0.0008788189,0.0002600531,8,1
0.0008452713,0.0002323399,8,1
0.0007611593,0.0001385041,8,1
0.0006248623,-1.20546e-05,8,1
0.0004412422,-0.0001755785,8,1
0.0002313675,-0.0003013411,8,1
3.60788e-05,-0.0003566054,8,1
-0.0001105903,-0.0003365093,8,1
-0.000219012,-0.0002621213,8,1
-0.0003340784,-0.0001648822,8,1
-0.0004877163,-7.23429e-05,8,1
-0.0006726327,-1.844488e-06,8,1
-0.0008442599,4.466826e-05,8,1
-0.0009531678,7.351589e-05,8,1
-0.0009666192,8.923623e-05,8,1
-0.0008870451,9.960841e-05,8,1
-0.0007400519,0.0001106288,8,1
-0.0005666421,0.0001248906,8,1
-0.0004128421,0.0001409351,8,1
-0.0003149546,0.0001522796,8,1
-0.0002775176,0.0001469315,8,1
-0.0002741142,0.0001153287,8,1
-0.000268604,6.962632e-05,8,1
-0.0002355427,3.526847e-05,8,1
-0.0001807646,3.494434e-05,8,1
-0.0001507825,7.30297e-05,8,1
-0.0001953505,0.0001388282,8,1
-0.0003212752,0.0002080301,8,1
-0.0004742648,0.0002535705,8,1
-0.0005778245,0.0002688046,8,1
-0.0005872243,0.0002717218,8,1
-0.0005061917,0.0002850112,8,1
-0.0003825359,0.0003153174,8,1
-0.0002791382,0.000341572,8,1
-0.0002319772,0.000331686,8,1
-0.0002370013,0.0002644289,8,1
-0.0002593663,0.0001409351,8,1
-0.0002485079,-2.42095e-05,8,1
-0.0001731475,-0.0002036158,8,1
-3.360929e-05,-0.0003692465,8,1
0.0001479039,-0.0004963057,8,1
0.0003414099,-0.0005684248,8,1
0.0005164405,-0.0005812279,8,1
0.0006535479,-0.0005429805,8,1
0.0007511112,-0.0004653512,8,1
0.0008201511,-0.0003651949,8,1
0.000879143,-0.000261149,8,1
0.0009319764,-0.0001627754,8,1
0.0009540173,-6.991193e-05,8,1
0.0009045873,1.792748e-05,8,1
0.0007755831,0.0001052807,8,1
0.0005963388,0.0002038164,8,1
0.0004102877,0.0003208276,8,1
0.0002444948,0.0004436732,8,1
0.0001049566,0.0005396159,8,1
-1.724069e-05,0.0005713807,8,1
-0.0001285796,0.0005281092,8,1
-0.000213988,0.0004294114,8,1
-0.0002486699,0.0003083486,8,1
-0.0002110708,0.00019782,8,1
-8.757704e-05,0.0001197045,8,1
0.0001128978,7.481241e-05,8,1
0.0003616681,5.406805e-05,8,1
0.0006178935,4.013043e-05,8,1
0.0008355473,1.906194e-05,8,1
0.0009767064,-1.448558e-05,8,1
0.001020788,-5.613637e-05,8,1
0.0009674687,-9.341139e-05,8,1
0.0008455954,-0.0001117248,8,1
0.0007073536,-0.0001015147,8,1
0.0006029835,-6.0188e-05,8,1
0.0005661946,-5.734056e-06,8,1
0.0006136798,2.100672e-05,8,1
0.0007389564,-1.497178e-05,8,1
0.0009097734,-0.0001138316,8,1
0.00107346,-0.0002400805,8,1
0.001169564,-0.0003397507,8,1
0.001141527,-0.0003744326,8,1
0.0009643894,-0.0003387782,8,1
0.0006593822,-0.0002579077,8,1
0.000289387,-0.0001648822,8,1
-6.715681e-05,-8.854943e-05,8,1
-0.0003438023,-4.333321e-05,8,1
-0.0005115399,-2.664048e-05,8,1
-0.0005826865,-2.858527e-05,8,1
-0.0005961379,-3.847125e-05,8,1
-0.0005920863,-4.85193e-05,8,1
-0.000603593,-5.402952e-05,8,1
-0.0006505919,-4.689865e-05,8,1
-0.0007308142,-2.583016e-05,8,1
-0.0008262706,3.017472e-06,8,1
-0.0009134618,3.348575e-05,8,1
-0.0009745604,6.152305e-05,8,1
-0.001006649,8.858796e-05,8,1
-0.00101378,0.0001260251,8,1
-0.001004543,0.0001867996,8,1
-0.0009782879,0.0002730183,8,1
-0.0009230236,0.0003730126,8,1
-0.0008374532,0.0004657141,8,1
-0.0007450759,0.0005227611,8,1
-0.0006705259,0.0005290816,8,1
-0.0006253097,0.0004919686,8,1
-0.0005985689,0.0004273046,8,1
-0.0005677765,0.0003498373,8,1
-0.000514295,0.000262322,8,1
-0.0004368278,0.0001566554,8,1
-0.0003544986,2.149292e-05,8,1
-0.0003040963,-0.000144462,8,1
-0.0003144685,-0.000325813,8,1
-0.000380267,-0.0005006815,8,1
-0.0004659995,-0.0006436231,8,1
-0.0005360117,-0.0007361624,8,1
-0.0005726385,-0.0007737615,8,1
-0.000576528,-0.0007643617,8,1
-0.0005671282,-0.0007243316,8,1
-0.0005643732,-0.0006703638,8,1
-0.0005687489,-0.0006230408,8,1
-0.0005705316,-0.0005950035,8,1
-0.0005732867,-0.0005873864,8,1
-0.0005903036,-0.0005856037,8,1
-0.0006173685,-0.0005705316,8,1
-0.000623689,-0.0005348772,8,1
-0.0005766901,-0.0004867439,8,1
-0.0004676201,-0.0004459034,8,1
-0.0003313232,-0.0004232143,8,1
-0.0002126914,-0.0004118697,8,1
-0.0001383035,-0.0003938804,8,1
-9.940781e-05,-0.0003528779,8,1
-8.060823e-05,-0.0002908069,8,1
-7.201877e-05,-0.0002233878,8,1
-5.59743e-05,-0.0001679614,8,1
-1.934754e-05,-0.0001379794,8,1
3.883391e-05,-0.0001394379,8,1
0.0001062531,-0.0001677994,8,1
0.000170431,-0.000213988,8,1
0.0002256952,-0.000256287,8,1
0.0002717218,-0.0002684419,8,1
0.0003078624,-0.0002379736,8,1
0.0003352514,-0.0001707166,8,1
0.0003548613,-8.303922e-05,8,1
0.0003684748,9.66215e-06,8,1
0.0003791712,0.0001002567,8,1
0.0003955397,0.0001835583,8,1
0.000428439,0.000259729,8,1
0.0004738173,0.0003289309,8,1
0.0005183853,0.0003940812,8,1
0.0005545259,0.0004598797,8,1
0.0005841838,0.0005274609,8,1
0.000596987,0.0005950422,8,1
0.0005639257,0.0006614891,8,1
0.000468145,0.0007274497,8,1
0.0003313618,0.0007926,8,1
0.0001934442,0.0008465679,8,1
8.810177e-05,0.0008734707,8,1
3.040651e-05,0.0008697432,8,1
2.165498e-05,0.000844461,8,1
5.050261e-05,0.0008045929,8,1
0.0001125736,0.0007512733,8,1
0.0002132162,0.0006833679,8,1
0.0003504856,0.0006037938,8,1
0.0005094717,0.0005204921,8,1
0.0006720233,0.0004444835,8,1
0.0008235546,0.0003848434,8,1
0.0009480208,0.0003443271,8,1
0.001035698,0.0003156415,8,1
0.001091935,0.0002854973,8,1
0.001127265,0.0002430362,8,1
0.001139258,0.0001850168,8,1
0.00112532,0.0001185701,8,1
0.001089018,6.103686e-05,8,1
0.001035374,2.81376e-05,8,1
0.0009494794,2.700314e-05,8,1
0.0008031343,5.536457e-05,8,1
0.0005807805,0.000101067,8,1
0.0003133726,0.0001503349,8,1
8.161915e-05,0.0001932822,8,1
-2.664048e-05,0.0002268297,8,1
2.311357e-05,0.0002509774,8,1
0.0001926339,0.0002709115,8,1
0.000386302,0.0002910076,8,1
0.0005018546,0.0003114278,8,1
0.0004820827,0.0003248792,8,1
0.0003414099,0.0003284447,8,1
0.0001522796,0.000326824,8,1
-4.275467e-06,0.000331848,8,1
-8.482193e-05,0.0003381686,8,1
-0.0001105903,0.0003154794,8,1
-0.0001396,0.0002316917,8,1
-0.0002233878,7.643307e-05,8,1
-0.0003835083,-0.0001242038,8,1
-0.0005963,-0.0003285682,8,1
-0.0008006644,-0.0005003574,8,1
-0.0009301545,-0.0006244993,8,1
-0.0009500885,-0.0007066664,8,1
-0.000864518,-0.0007659824,8,1
-0.0007168766,-0.0008225431,8,1
-0.0005470322,-0.0008914209,8,1
-0.0003835083,-0.0009794224,8,1
-0.0002580697,-0.001084927,8,1
-0.000201509,-0.001193511,8,1
-0.0002280877,-0.001283619,8,1
-0.000330675,-0.001329321,8,1
-0.0004865818,-0.001304363,8,1
-0.0006591813,-0.00119659,8,1
-0.0008178432,-0.001014266,8,1
-0.0009578677,-0.0007865646,8,1
-0.001093516,-0.0005514079,8,1
-0.001236782,-0.0003421817,8,1
-0.001365624,-0.0001786577,8,1
-0.00142964,-5.872941e-05,8,1
-0.001388637,3.299956e-05,8,1
-0.001242778,0.0001153287,8,1
-0.001019939,0.0002017096,8,1
-0.0007654962,0.0002963557,8,1
-0.0005214258,0.0003994293,8,1
-0.0003100927,0.0005117406,8,1
-0.0001332795,0.0006261588,8,1
1.452411e-05,0.0007222636,8,1
0.000145635,0.0007723419,8,1
0.0002725321,0.0007519216,8,1
0.0003963501,0.0006601926,8,1
0.0005159543,0.0005221128,8,1
0.0006345862,0.0003741471,8,1
0.0007498147,0.0002530843,8,1
0.0008436506,0.0001817755,8,1
0.0008942151,0.0001560072,8,1
0.0008948633,0.0001564933,8,1
0.0008637467,0.0001592484,8,1
0.0008327923,0.0001526038,8,1
0.0008253373,0.0001441764,8,1
0.0008337647,0.0001370455,8,1
0.0008248511,0.0001232699,8,1
0.0007621317,9.798775e-05,8,1
0.0006285898,6.865393e-05,8,1
0.0004328148,5.56887e-05,8,1
0.000215161,6.946425e-05,8,1
3.413401e-05,0.0001154908,8,1
-6.164659e-05,0.0001837203,8,1
-5.483985e-05,0.0002519498,8,1
4.693717e-05,0.0002987867,8,1
0.0002119197,0.000319207,8,1
0.000373985,0.0003201794,8,1
0.0004668485,0.0003096451,8,1
0.00046069,0.0002775562,8,1
0.0003756057,0.0002008992,8,1
0.0002621599,7.643307e-05,8,1
0.000168162,-6.958779e-05,8,1
0.0001351007,-0.000201671,8,1
0.0001934442,-0.0002914552,8,1
0.0003438409,-0.0003254889,8,1
0.0005509604,-0.0003037722,8,1
0.00076278,-0.0002410529,8,1
0.0009279247,-0.0001592099,8,1
0.001000368,-7.914964e-05,8,1
0.0009553138,-2.307504e-05,8,1
0.0007977861,-3.14101e-06,8,1
0.0005516087,-1.902341e-05,8,1
0.0002525981,-5.435365e-05,8,1
-5.32192e-05,-8.725291e-05,8,1
-0.0003199787,-0.0001036215,8,1
-0.0005146191,-9.859748e-05,8,1
-0.0006270924,-7.769106e-05,8,1
-0.0006760361,-5.338126e-05,8,1
-0.0007043975,-4.187462e-05,8,1
-0.0007520447,-5.483985e-05,8,1
-0.000827243,-8.887356e-05,8,1
-0.0008998482,-0.000127121,8,1
-0.0009325854,-0.0001455964,8,1
-0.000904224,-0.0001263107,8,1
-0.0008178432,-6.472583e-05,8,1
-0.0006885151,3.121684e-05,8,1
-0.0005377944,0.0001396385,8,1
-0.000392746,0.0002415777,8,1
-0.0002874036,0.0003295791,8,1
-0.0002452666,0.0004086671,8,1
-0.0002619593,0.0004918066,8,1
-0.000328244,0.0005802943,8,1
-0.0004296969,0.0006473894,8,1
-0.0005350393,0.0006517651,8,1
-0.0005990551,0.0005699221,8,1
-0.0005896553,0.0004046154,8,1
-0.0005121881,0.0001770756,8,1
-0.0003945287,-7.688073e-05,8,1
-0.0002677937,-0.0003099306,8,1
-0.0001509446,-0.0004880404,8,1
-5.370539e-05,-0.0005916001,8,1
1.97102e-05,-0.0006254718,8,1
6.978839e-05,-0.0006091032,8,1
9.944634e-05,-0.0005655076,8,1
0.0001054428,-0.0005134846,8,1
8.453633e-05,-0.0004684305,8,1
4.320967e-05,-0.0004347209,8,1
-8.165035e-06,-0.0004107352,8,1
-8.044617e-05,-0.0003890185,8,1
-0.0001814128,-0.0003583881,8,1
-0.000286107,-0.000313334,8,1
-0.0003493125,-0.0002554767,8,1
-0.0003277578,-0.0001909747,8,1
-0.0002039399,-0.000127121,8,1
-7.354709e-06,-7.056019e-05,8,1
0.000187934,-2.194059e-05,8,1
0.0003149933,2.246531e-05,8,1
0.0003634508,6.865393e-05,8,1
0.0003655576,0.0001180839,8,1
0.0003675024,0.0001699448,8,1
0.0004102877,0.0002196988,8,1
0.0005221128,0.0002694529,8,1
0.0007081639,0.0003247172,8,1
0.0009441312,0.0003940812,8,1
0.001179612,0.0004815964,8,1
0.001356912,0.0005819149,8,1
0.001431949,0.0006791542,8,1
0.001384787,0.0007394425,8,1
0.001226449,0.0007350668,8,1
0.0009979371,0.000659058,8,1
0.0007491665,0.0005260024,8,1
0.0005169268,0.000368799,8,1
0.0003187208,0.0002234263,8,1
0.0001470936,0.0001180839,8,1
-1.562004e-05,6.573675e-05,8,1
-0.000174444,6.184718e-05,8,1
-0.000318196,9.118101e-05,8,1
-0.0004269418,0.0001360731,8,1
-0.0004951713,0.0001812893,8,1
-0.0005397392,0.0002154851,8,1
-0.0005846313,0.0002323399,8,1
-0.0006494574,0.0002234263,8,1
-0.0007389174,0.0001916615,8,1
-0.0008359946,0.0001479039,8,1
-0.0009126515,0.0001065772,8,1
-0.000943768,7.837785e-05,8,1
-0.0009244822,6.751948e-05,8,1
-0.0008697041,6.719535e-05,8,1
-0.0008149261,6.719535e-05,8,1
-0.0007891576,5.601284e-05,8,1
-0.000797261,2.943412e-05,8,1
-0.0008115227,-8.975362e-06,8,1
-0.0007935334,-5.402952e-05,8,1
-0.0007223868,-9.697683e-05,8,1
-0.0006176926,-0.0001326312,8,1
-0.0005246671,-0.0001671511,8,1
-0.0004726442,-0.0002147983,8,1
-0.000459679,-0.0002898345,8,1
-0.0004640547,-0.0003993907,8,1
-0.0004637306,-0.0005369841,8,1
-0.0004413656,-0.0006815463,8,1
-0.0003891806,-0.0008066607,8,1
-0.0003144685,-0.0008945001,8,1
-0.0002292221,-0.0009345302,8,1
-0.0001498101,-0.0009280476,8,1
-9.211487e-05,-0.0008894761,8,1
-7.477388e-05,-0.0008282154,8,1
-0.0001034594,-0.0007496137,8,1
-0.0001708786,-0.0006593434,8,1
-0.0002540181,-0.0005685869,8,1
-0.0003227338,-0.0004877163,8,1
-0.0003476919,-0.0004190006,8,1
-0.0003113892,-0.0003587123,8,1
-0.0001927574,-0.0003006929,8,1
2.311357e-05,-0.0002478596,8,1
0.0002957075,-0.0002144742,8,1
0.0005355643,-0.0002246843,8,1
0.0006603546,-0.0002930758,8,1
0.000641393,-0.0004018217,8,1
0.0005041235,-0.0005014918,8,1
0.0003198552,-0.0005360117,8,1
0.0001806411,-0.0004724821,8,1
0.0001647587,-0.0003206269,8,1
0.0002992729,-0.0001225832,8,1
0.000564736,7.67572e-05,8,1
0.0008998874,0.0002453052,8,1
0.001212026,0.0003741471,8,1
0.001424494,0.0004615004,8,1
0.001511037,0.0005094717,8,1
0.001488023,0.0005242196,8,1
0.001393053,0.0005136854,8,1
0.001273124,0.0004806241,8,1
0.001163244,0.0004179048,8,1
0.001076701,0.0003175863,8,1
0.001004906,0.0001908512,8,1
0.0009235489,6.508849e-05,8,1
0.0008089686,-3.101625e-05,8,1
0.0006457687,-8.255302e-05,8,1
0.0004331389,-8.40116e-05,8,1
0.0001717275,-3.004385e-05,8,1
-0.0001425172,7.481241e-05,8,1
-0.0005223983,0.0002119197,8,1
-0.0009633779,0.0003597233,8,1
-0.001426561,0.0005057442,8,1
-0.001848417,0.0006532237,8,1
-0.002158934,0.0008110755,8,1
-0.002300255,0.0009784892,8,1
-0.002254877,0.00113002,8,1
-0.002051809,0.001221101,8,1
-0.001742912,0.001209108,8,1
-0.001378589,0.001077349,8,1
-0.001000329,0.0008467299,8,1
-0.000640868,0.0005681394,8,1
-0.0003199787,0.0003031625,8,1
-4.884343e-05,9.701536e-05,8,1
0.000160545,-3.166451e-05,8,1
0.0002783665,-9.114248e-05,8,1
0.0002830664,-0.0001058904,8,1
0.0001944166,-9.924574e-05,8,1
6.217132e-05,-8.903562e-05,8,1
-5.32192e-05,-8.40116e-05,8,1
-8.498399e-05,-8.903562e-05,8,1
2.068259e-05,-0.0001039456,8,1
0.0002859836,-0.0001267968,8,1
0.0007003848,-0.0001514308,8,1
0.00121316,-0.000174444,8,1
0.001753163,-0.0001909747,8,1
0.002257674,-0.0001984297,8,1
0.002666729,-0.000196647,8,1
0.002929601,-0.0001851404,8,1
0.00301971,-0.0001661787,8,1
0.002936245,-0.0001433275,8,1
0.002708056,-0.0001225832,8,1
0.002393323,-0.0001071869,8,1
0.002062871,-9.697683e-05,8,1
0.001768235,-9.065628e-05,8,1
0.001514602,-8.514606e-05,8,1
0.001261942,-7.720486e-05,8,1
0.0009600137,-6.91016e-05,8,1
0.0005867769,-6.310517e-05,8,1
0.000168162,-5.986387e-05,8,1
-0.0002506147,-6.245691e-05,8,1
-0.0006324406,-7.947377e-05,8,1
-0.0009458748,-0.0001165867,8,1
-0.001153643,-0.0001677994,8,1
-0.001216362,-0.0002159328,8,1
-0.001130143,-0.0002486699,8,1
-0.0009427955,-0.0002600145,8,1
-0.0007313004,-0.0002527216,8,1
-0.0005663179,-0.0002323013,8,1
-0.0004946851,-0.0002049123,8,1
-0.0005345531,-0.0001771992,8,1
-0.0006755499,-0.0001515928,8,1
-0.0008799143,-0.0001292278,8,1
-0.00110243,-0.0001114006,8,1
-0.001302256,-9.66527e-05,8,1
-0.001453301,-8.611845e-05,8,1
-0.00154033,-8.190475e-05,8,1
-0.00154892,-8.271508e-05,8,1
-0.001464484,-8.060823e-05,8,1
-0.001289453,-6.861539e-05,8,1
-0.001050731,-4.106429e-05,8,1
-0.0007956403,5.124321e-06,8,1
-0.0005781487,5.536457e-05,8,1
-0.0004384484,7.610894e-05,8,1
-0.0003736223,4.418206e-05,8,1
-0.00033813,-3.328516e-05,8,1
-0.0002864312,-0.0001240417,8,1
-0.000201509,-0.0001880575,8,1
-0.0001005423,-0.0001953505,8,1
-1.318906e-05,-0.0001455964,8,1
3.867184e-05,-5.856735e-05,8,1
3.656499e-05,4.158902e-05,8,1
-2.664048e-05,0.0001380179,8,1
-0.0001397621,0.0002206712,8,1
-0.000266011,0.00027707,8,1
-0.0003622777,0.0002892249,8,1
-0.0003922598,0.0002419018,8,1
-0.0003376438,0.0001422316,8,1
-0.0002122053,1.355172e-05,8,1
-5.824322e-05,-0.0001178833,8,1
6.152305e-05,-0.0002295462,8,1
8.74535e-05,-0.0002982619,8,1
5.448452e-06,-0.0003062031,8,1
-0.0001391138,-0.0002467252,8,1
-0.0002715212,-0.0001277692,8,1
-0.0003494746,2.975825e-05,8,1
-0.0003920977,0.0002051129,8,1
-0.0004220798,0.0003743092,8,1
-0.0004284004,0.0005143337,8,1
-0.0003841565,0.0006089798,8,1
-0.0002752487,0.0006632718,8,1
-0.0001042698,0.000701033,8,1
0.0001081979,0.0007470596,8,1
0.0003277964,0.0008112376,8,1
0.00052503,0.0008734707,8,1
0.0006833679,0.0008966461,8,1
0.0007958413,0.0008488368,8,1
0.0008577504,0.0007305289,8,1
0.0008720121,0.0005707325,8,1
0.0008493229,0.000410936,8,1
0.0007911414,0.0002884145,8,1
0.0006898505,0.0002260194,8,1
0.0005425331,0.0002266676,8,1
0.0003595612,0.000277232,8,1
0.0001628139,0.0003559958,8,1
-1.416145e-05,0.0004420525,8,1
-0.0001421931,0.0005243817,8,1
-0.000221605,0.0005935837,8,1
-0.0002700626,0.0006347483,8,1
-0.0003042584,0.0006230795,8,1
-0.0003190063,0.0005409124,8,1
-0.0002958309,0.0003944053,8,1
-0.0002269532,0.0002017096,8,1
-0.0001204763,-1.189254e-05,8,1
1.419998e-05,-0.0002204706,8,1
0.0001757791,-0.0004055492,8,1
0.0003524304,-0.0005609698,8,1
0.0005159543,-0.000693053,8,1
0.0006289139,-0.0008167088,8,1
0.0006595443,-0.0009457127,8,1
0.0005930975,-0.001072772,8,1
0.0004420525,-0.001172118,8,1
0.0002469258,-0.001215227,8,1
5.552663e-05,-0.001192214,8,1
-9.584238e-05,-0.001114423,8,1
-0.0001929195,-0.001008756,8,1
-0.0002392702,-0.0009026034,8,1
-0.0002402425,-0.0008113607,8,1
-0.0001989159,-0.0007385933,8,1
-0.000127121,-0.000678305,8,1
-4.868137e-05,-0.0006240131,8,1
1.257933e-05,-0.0005663179,8,1
4.612685e-05,-0.0004993849,8,1
5.163707e-05,-0.0004277521,8,1
4.158902e-05,-0.0003668155,8,1
3.121684e-05,-0.0003290543,8,1
2.522042e-05,-0.000318358,8,1
9.824215e-06,-0.0003264613,8,1
-2.907146e-05,-0.0003342404,8,1
-8.741498e-05,-0.000328082,8,1
-0.0001481895,-0.000301017,8,1
-0.0001977815,-0.0002523975,8,1
-0.000236353,-0.0001924333,8,1
-0.0002771934,-0.0001405724,8,1
-0.0003454229,-0.0001144799,8,1
-0.0004549791,-0.00012469,8,1
-0.0005956517,-0.000176713,8,1
-0.0007473448,-0.0002630937,8,1
-0.0008983897,-0.0003549848,8,1
-0.001033714,-0.0004147869,8,1
-0.001130143,-0.000410249,8,1
-0.00115737,-0.0003350507,8,1
-0.001084441,-0.0002172293,8,1
-0.0008910968,-9.697683e-05,8,1
-0.0005843072,-5.479652e-07,8,1
-0.0002076674,6.508849e-05,8,1
0.0001675138,0.0001114392,8,1
0.000473007,0.0001537382,8,1
0.0006729957,0.0002010613,8,1
0.0007597008,0.0002508154,8,1
0.0007486803,0.0002984626,8,1
0.0006747784,0.0003333067,8,1
0.0005793219,0.0003506476,8,1
0.0005015305,0.000356482,8,1
0.0004653899,0.0003650715,8,1
0.0004752759,0.0003877606,8,1
0.0005169268,0.00043087,8,1
0.0005580913,0.0004966686,8,1
0.000567167,0.0005838597,8,1
0.0005376711,0.0006870955,8,1
0.0004791655,0.000797462,8,1
0.00041596,0.0009026425,8,1
0.0003794953,0.0009857821,8,1
0.0003856538,0.001043477,8,1
0.0004213082,0.001086911,8,1
0.0004577728,0.0011284,8,1
0.0004662003,0.001171671,8,1
0.0004298976,0.001200357,8,1
0.0003459477,0.001184961,8,1
0.0002308813,0.001096149,8,1
0.0001127357,0.0009183628,8,1
1.387585e-05,0.0006733199,8,1
-6.0188e-05,0.0004290873,8,1
-0.0001131834,0.0002603772,8,1
-0.0001616409,0.0002015475,8,1
-0.0002303566,0.0002388225,8,1
-0.0003277578,0.0003276344,8,1
-0.0004306693,0.0004000776,8,1
-0.0005023021,0.0003932708,8,1
-0.0005102433,0.0002736666,8,1
-0.0004329382,5.811968e-05,8,1
-0.0002655248,-0.0001963229,8,1
-3.020592e-05,-0.0004188385,8,1
0.0002308813,-0.0005663179,8,1
0.0004619866,-0.0006361681,8,1
0.0006138419,-0.0006570745,8,1
0.0006663511,-0.000663395,8,1
0.0006332897,-0.0006778188,8,1
0.0005504743,-0.0007037492,8,1
0.0004660382,-0.0007361624,8,1
0.0004123946,-0.0007641996,8,1
0.0003841952,-0.0007812165,8,1
0.0003474063,-0.0007839716,8,1
0.000274639,-0.0007692237,8,1
0.0001689724,-0.0007316245,8,1
5.601284e-05,-0.0006727948,8,1
-3.522994e-05,-0.0006014861,8,1
-9.211487e-05,-0.0005262878,8,1
-0.000122259,-0.0004514136,8,1
-0.0001491618,-0.0003726499,8,1
-0.0001951884,-0.0002791382,8,1
-0.0002629317,-0.0001621271,8,1
-0.0003366714,-2.534396e-05,8,1
-0.0003823738,0.0001120874,8,1
-0.0003647087,0.0002218057,8,1
-0.000266173,0.0002942489,8,1
-0.0001083214,0.0003404375,8,1
6.055066e-05,0.0003765781,8,1
0.0001871237,0.0004051016,8,1
0.0002336365,0.0004162841,8,1
0.0001803169,0.0003974845,8,1
3.899597e-05,0.0003350894,8,1
-0.0001483515,0.0002261814,8,1
-0.0003168994,7.659513e-05,8,1
-0.0004120317,-9.017008e-05,8,1
-0.0004147869,-0.000238946,8,1
-0.0003467195,-0.0003447747,8,1
-0.0002527216,-0.00039777,8,1
-0.0001731475,-0.0004036044,8,1
-0.0001389517,-0.0003721637,8,1
-0.0001690959,-0.000318358,8,1
-0.0002522354,-0.0002561249,8,1
-0.0003557951,-0.000194216,8,1
-0.0004484965,-0.0001353863,8,1
-0.0005081365,-7.639453e-05,8,1
-0.0005204534,-1.318906e-05,8,1
-0.0004807475,5.666109e-05,8,1
-0.0003998769,0.0001286181,8,1
-0.0002934,0.0001932822,8,1
-0.0001726613,0.000239957,8,1
-4.268495e-05,0.0002592428,8,1
9.134307e-05,0.0002451431,8,1
0.0002067336,0.0002033302,8,1
0.0002692908,0.0001483901,8,1
0.0002534084,9.750156e-05,8,1
0.0001504969,5.811968e-05,8,1
-1.950961e-05,2.684107e-05,8,1
-0.0002212809,-1.844488e-06,8,1
-0.0004168937,-2.939559e-05,8,1
-0.0005749074,-5.062615e-05,8,1
-0.0006770085,-6.164659e-05,8,1
-0.0007241695,-6.229485e-05,8,1
-0.0007183352,-5.370539e-05,8,1
-0.0006573986,-3.458168e-05,8,1
-0.0005295291,-8.813297e-06,8,1
-0.0003297026,1.857574e-05,8,1
-8.012204e-05,4.661304e-05,8,1
0.0001652449,7.270556e-05,8,1
0.0003459477,9.247754e-05,8,1
0.0004245494,9.814982e-05,8,1
0.0004046154,8.891209e-05,8,1
0.0003409237,7.30297e-05,8,1
0.0002885766,5.893001e-05,8,1
0.0002720459,5.082674e-05,8,1
0.0002851732,5.001642e-05,8,1
0.0003030004,5.098881e-05,8,1
0.0003012177,4.515445e-05,8,1
0.0002726942,2.797553e-05,8,1
0.0002295848,3.179537e-06,8,1
0.0001911753,-1.950961e-05,8,1
0.0001762653,-3.506788e-05,8,1
0.0001968476,-3.749886e-05,8,1
0.000249843,-3.053005e-05,8,1
0.000316938,-1.934754e-05,8,1
0.0003828986,-9.137427e-06,8,1
0.0004410801,2.693341e-06,8,1
0.0004965065,2.035846e-05,8,1
0.0005509604,4.337174e-05,8,1
0.0006050903,6.638502e-05,8,1
0.000656303,8.323981e-05,8,1
0.0006916333,8.939829e-05,8,1
0.0007063812,7.52986e-05,8,1
0.0007122156,3.93201e-05,8,1
0.0007248566,-5.409925e-06,8,1
0.0007503009,-4.268495e-05,8,1
0.0007744487,-6.0188e-05,8,1
0.0007710453,-5.289507e-05,8,1
0.0007159431,-2.534396e-05,8,1
0.0005832114,1.047248e-05,8,1
0.0003681507,3.93201e-05,8,1
0.0001043083,5.212327e-05,8,1
-0.0001381414,5.179914e-05,8,1
-0.000278652,4.612685e-05,8,1
-0.0002755728,3.769945e-05,8,1
-0.0001462447,1.889987e-05,8,1
3.462021e-05,-2.874733e-05,8,1
0.0001694586,-0.0001263107,8,1
0.000187934,-0.000273628,8,1
7.140904e-05,-0.0004413656,8,1
-0.0001549962,-0.000583983,8,1
-0.0004311555,-0.000665826,8,1
-0.000688191,-0.0006736051,8,1
-0.0008616009,-0.0006173685,8,1
-0.00091411,-0.0005159156,8,1
-0.0008400462,-0.0003875599,8,1
-0.0006818705,-0.0002472114,8,1
-0.0005102433,-0.0001039456,8,1
-0.0003809152,3.332369e-05,8,1
-0.0003117133,0.0001553589,8,1
-0.0002864312,0.0002579462,8,1
-0.0002817312,0.0003449753,8,1
-0.0002934,0.0004245494,8,1
-0.0003344025,0.0005046097,8,1
-0.0004045768,0.0005832114,8,1
-0.0004734545,0.0006420412,8,1
-0.0005066779,0.0006580857,8,1
-0.0004788027,0.0006255105,8,1
-0.0003919357,0.0005619809,8,1
-0.0002733039,0.0004971547,8,1
-0.0001665028,0.0004522626,8,1
-0.0001068628,0.0004300596,8,1
-0.0001071869,0.0004242253,8,1
-0.0001517549,0.000428277,8,1
-0.0002144742,0.0004470765,8,1
-0.0002705488,0.0004914824,8,1
-0.0003027998,0.000564736,8,1
-0.0003066893,0.0006499824,8,1
-0.0002844864,0.0007099467,8,1
-0.0002590421,0.0007088122,8,1
-0.0002558008,0.0006319932,8,1
-0.0002844864,0.0004934272,8,1
-0.0003220855,0.000326824,8,1
-0.0003203028,0.000168162,8,1
-0.000251101,4.645098e-05,8,1
-0.0001282554,-2.518189e-05,8,1
-6.176923e-08,-5.386745e-05,8,1
7.513654e-05,-5.69467e-05,8,1
5.666109e-05,-5.483985e-05,8,1
-6.148453e-05,-6.326724e-05,8,1
-0.0002499665,-9.66527e-05,8,1
-0.0004750752,-0.0001580754,8,1
-0.0007102319,-0.0002446183,8,1
-0.0009252926,-0.0003467195,8,1
-0.001085737,-0.0004457413,8,1
-0.001162394,-0.0005202913,8,1
-0.001146512,-0.0005616181,8,1
-0.001047328,-0.0005702075,8,1
-0.0008872072,-0.0005543251,8,1
-0.0006920806,-0.0005236948,8,1
-0.0004650271,-0.000484637,8,1
-0.0001959987,-0.0004389346,8,1
0.0001041462,-0.0003875599,8,1
0.0003880847,-0.0003274337,8,1
0.0006024973,-0.0002569353,8,1
0.0007287462,-0.0001814128,8,1
0.000787576,-0.0001099421,8,1
0.0008361956,-4.868137e-05,8,1
0.0009214421,-6.220252e-06,8,1
0.001048177,1.630683e-05,8,1
0.001182692,2.635488e-05,8,1
0.001279283,3.494434e-05,8,1
0.001302782,4.677511e-05,8,1
0.001260483,5.811968e-05,8,1
0.001198088,6.735741e-05,8,1
0.001177668,6.816773e-05,8,1
0.001255135,5.504044e-05,8,1
0.001458041,3.008238e-05,8,1
0.001760294,-3.858999e-07,8,1
0.002083777,-2.453363e-05,8,1
0.002319908,-4.171256e-05,8,1
0.002383275,-6.148453e-05,8,1
0.002244222,-9.503204e-05,8,1
0.001918146,-0.0001412206,8,1
0.001427897,-0.0001898403,8,1
0.0008170719,-0.0002284118,8,1
0.0001746447,-0.0002501286,8,1
-0.0003967976,-0.0002532078,8,1
-0.0008188156,-0.0002374874,8,1
-0.001075203,-0.0002076674,8,1
-0.001194645,-0.0001770371,8,1
-0.001218469,-0.0001616409,8,1
-0.001185731,-0.0001755785,8,1
-0.001129981,-0.0002219292,8,1
-0.001061589,-0.0002891863,8,1
-0.0009641882,-0.000365357,8,1
-0.0008124951,-0.0004407173,8,1
-0.0006039171,-0.0005074882,8,1
-0.0003619536,-0.0005570802,8,1
-0.0001342519,-0.00058139,8,1
2.39239e-05,-0.0005786349,8,1
7.756752e-05,-0.0005536768,8,1
3.818565e-05,-0.0005178604,8,1
-3.992984e-05,-0.0004849611,8,1
-0.000104918,-0.0004574101,8,1
-0.0001237176,-0.0004254832,8,1
-9.66527e-05,-0.0003710293,8,1
-5.159854e-05,-0.000286107,8,1
-1.821308e-05,-0.0001780095,8,1
-7.840905e-06,-7.542214e-05,8,1
-5.89612e-06,-1.659243e-05,8,1
1.144487e-05,-2.615429e-05,8,1
6.136099e-05,-8.579432e-05,8,1
0.0001500107,-0.0001451102,8,1
0.0002621599,-0.0001528894,8,1
0.0003694472,-8.465986e-05,8,1
0.0004475628,5.682316e-05,8,1
0.000485486,0.0002451431,8,1
0.0004807861,0.0004436732,8,1
0.0004350837,0.000614166,8,1
0.0003534027,0.0007279359,8,1
0.000237526,0.0007806072,8,1
9.361199e-05,0.0007866036,8,1
-6.504996e-05,0.0007681281,8,1
-0.0002104225,0.0007443045,8,1
-0.0003248407,0.0007272876,8,1
-0.0004133283,0.0007229118,8,1
-0.0004917679,0.000738146,8,1
-0.0006005137,0.0007773659,8,1
-0.0007773269,0.0008436506,8,1
-0.00102788,0.000941052,8,1
-0.001304849,0.001067787,8,1
-0.001535631,0.001203436,8,1
-0.001674845,0.001291438,8,1
-0.001724437,0.001265021,8,1
-0.001705961,0.001086749,8,1
-0.001637246,0.0007707212,8,1
-0.001522179,0.0003879227,8,1
-0.001370324,3.380988e-05,8,1
-0.001194645,-0.0002207947,8,1
-0.001006163,-0.0003546606,8,1
-0.0008131433,-0.0003788084,8,1
-0.0006248235,-0.0003251648,8,1
-0.0004478482,-0.0002371633,8,1
-0.0002899966,-0.000156941,8,1
-0.0001618029,-0.0001224211,8,1
-7.33153e-05,-0.0001517549,8,1
-2.534396e-05,-0.0002439701,8,1
-1.059602e-05,-0.0003765395,8,1
-1.318906e-05,-0.0005204534,8,1
-7.516774e-06,-0.0006397335,8,1
4.013043e-05,-0.0007069906,8,1
0.0001513072,-0.0007257902,8,1
0.0003164518,-0.0007194696,8,1
0.0004901859,-0.000713149,8,1
0.0006318311,-0.0007160662,8,1
0.0007319876,-0.0007212523,8,1
0.0008041067,-0.0007173628,8,1
0.0008587227,-0.0006987253,8,1
0.0008895152,-0.0006727948,8,1
0.0008822222,-0.0006467023,8,1
0.0008245269,-0.0006175305,8,1
0.0007190223,-0.0005851175,8,1
0.0005909906,-0.000554163,8,1
0.000492779,-0.0005301774,8,1
0.000473007,-0.0005108916,8,1
0.0005418848,-0.0004807475,8,1
0.0006480376,-0.0004290486,8,1
0.0007199947,-0.0003515814,8,1
0.0007164293,-0.0002519113,8,1
0.0006339379,-0.0001292278,8,1
0.0004840274,1.695509e-05,8,1
0.0002960316,0.0001858272,8,1
0.0001226217,0.0003647473,8,1
1.565857e-05,0.0005355643,8,1
-9.623623e-06,0.0006830437,8,1
2.39239e-05,0.0008036205,8,1
7.999851e-05,0.0009097734,8,1
0.0001305629,0.00101544,8,1
0.0001731861,0.001116569,8,1
0.0002261814,0.001187878,8,1
0.0003164518,0.00119355,8,1
0.0004598797,0.001110735,8,1
0.0006475514,0.0009468864,8,1
0.0008404093,0.0007376599,8,1
0.0009880509,0.0005268127,8,1
0.001043802,0.0003555096,8,1
0.0009942095,0.0002454672,8,1
0.000854509,0.0001986303,8,1
0.0006603546,0.0001986303,8,1
0.0004394595,0.0002222919,8,1
0.0001968476,0.0002462775,8,1
-8.368748e-05,0.0002595669,8,1
-0.0004031182,0.0002665357,8,1
-0.0007405381,0.0002858215,8,1
-0.001079903,0.0003264999,8,1
-0.001421537,0.0003816021,8,1
-0.001750367,0.0004243874,8,1
-0.002021827,0.0004169324,8,1
-0.002173682,0.0003449753,8,1
-0.002159096,0.0002224539,8,1
-0.001969479,8.891209e-05,8,1
-0.001612287,-2.09682e-05,8,1
-0.00109773,-9.260107e-05,8,1
-0.0004561135,-0.0001302002,8,1
0.0002487085,-0.0001485136,8,1
0.0009214421,-0.0001558065,8,1
0.001486889,-0.0001605064,8,1
0.001907936,-0.0001650443,8,1
0.002175668,-0.0001726613,8,1
0.002272422,-0.000186761,8,1
0.002186527,-0.000209126,8,1
0.001946183,-0.0002327876,8,1
0.001621403,-0.000251263,8,1
0.001293383,-0.0002588801,8,1
0.001021274,-0.000256287,8,1
0.0008293889,-0.0002517492,8,1
0.0007063812,-0.0002523975,8,1
0.0006190279,-0.0002639041,8,1
0.0005230852,-0.0002827037,8,1
0.0003893813,-0.0002963172,8,1
0.0002203471,-0.0002968033,8,1
4.434413e-05,-0.0002864312,8,1
-0.0001144799,-0.0002713591,8,1
-0.0002626076,-0.0002608248,8,1
-0.0004086284,-0.0002600145,8,1
-0.0005424943,-0.0002679557,8,1
-0.0006306578,-0.0002805968,8,1
-0.0006373025,-0.0002919414,8,1
-0.0005458977,-0.0003011791,8,1
-0.0003736223,-0.0003131719,8,1
-0.0001708786,-0.0003301888,8,1
5.286387e-06,-0.0003546606,8,1
0.0001122495,-0.0003799429,8,1
0.0001475797,-0.0003922598,8,1
0.0001404489,-0.0003791325,8,1
0.0001273216,-0.0003428299,8,1
0.0001351007,-0.0003096065,8,1
0.0001736723,-0.0003121996,8,1
0.0002388225,-0.0003666535,8,1
0.00030689,-0.000459679,8,1
0.0003328204,-0.0005593491,8,1
0.0002778803,-0.0006291993,8,1
0.0001344524,-0.0006496195,8,1
-7.574627e-05,-0.0006209339,8,1
-0.0003266234,-0.0005588629,8,1
-0.0005961379,-0.0004893369,8,1
-0.0008598181,-0.0004298589,8,1
-0.001089465,-0.0003835083,8,1
-0.001261254,-0.0003496366,8,1
-0.001368217,-0.0003206269,8,1
-0.001415702,-0.0002838381,8,1
-0.001413757,-0.0002303566,8,1
-0.001378913,-0.0001640719,8,1
-0.001342125,-9.29252e-05,8,1
-0.001346014,-2.971972e-05,8,1
-0.001435636,2.424803e-05,8,1
-0.001612287,7.270556e-05,8,1
-0.001819407,0.0001211631,8,1
-0.00198439,0.0001786963,8,1
-0.00205035,0.0002516257,8,1
-0.0019993,0.0003386548,8,1
-0.001844851,0.0004321665,8,1
-0.001610019,0.0005247059,8,1
-0.001315546,0.0006222692,8,1
-0.0009897945,0.0007319876,8,1
-0.0006593434,0.0008486747,8,1
-0.0003394265,0.0009527208,8,1
-2.89094e-05,0.001015602,8,1
0.0002791768,0.001007499,8,1
0.0005789978,0.0009066941,8,1
0.0008590469,0.0007193465,8,1
0.001110086,0.0004806241,8,1
0.001312993,0.0002401191,8,1
0.001442807,4.434413e-05,8,1
0.001496127,-8.887356e-05,8,1
0.001488834,-0.0001724993,8,1
0.00143438,-0.0002316531,8,1
0.001327578,-0.0002827037,8,1
0.001153358,-0.0003350507,8,1
0.0009147974,-0.0003895047,8,1
0.0006525755,-0.0004326141,8,1
0.0004329769,-0.0004480103,8,1
0.0003172622,-0.0004237005,8,1
0.0003239069,-0.0003684362,8,1
0.0004187151,-0.0002948586,8,1
0.0005488536,-0.0002152845,8,1
0.0006605167,-0.0001360346,8,1
0.0007105949,-5.840528e-05,8,1
0.000688392,1.565857e-05,8,1
0.0006034696,8.145709e-05,8,1
0.000490348,0.0001376938,8,1
0.0004020224,0.0001812893,8,1
0.0003814401,0.0002072198,8,1
0.0004451317,0.0002162954,8,1
0.000572191,0.00021273,8,1
0.00071335,0.0002039785,8,1
0.0008149651,0.0001984683,8,1
0.0008460816,0.0001965235,8,1
0.0008071859,0.0001991165,8,1
0.000710757,0.0002106232,8,1
0.0005707325,0.0002337985,8,1
0.0004119083,0.0002713977,8,1
0.0002678322,0.0003294171,8,1
0.0001641104,0.0004094774,8,1
0.0001143563,0.0005067165,8,1
0.0001240803,0.0006110868,8,1
0.0002018716,0.0007186982,8,1
0.0003496752,0.0008250132,8,1
0.000537347,0.0009207938,8,1
0.0007020054,0.0009844856,8,1
0.0007723419,0.0009823787,8,1
0.0007070294,0.0008861118,8,1
0.0005073649,0.000695847,8,1
0.0002111094,0.0004412422,8,1
-0.0001212866,0.0001717275,8,1
-0.000432452,-6.245691e-05,8,1
-0.0006945116,-0.0002274394,8,1
-0.0009030896,-0.0003203028,8,1
-0.001051055,-0.0003640605,8,1
-0.001132736,-0.0003906392,8,1
-0.001167904,-0.0004198109,8,1
-0.001197724,-0.0004543308,8,1
-0.001248289,-0.0004847991,8,1
-0.001317653,-0.0004917679,8,1
-0.001378913,-0.0004627582,8,1
-0.001402575,-0.0004049009,8,1
-0.001370972,-0.0003413713,8,1
-0.001279567,-0.0002912931,8,1
-0.001128847,-0.0002617972,8,1
-0.000926427,-0.0002559629,8,1
-0.0006886772,-0.0002744383,8,1
-0.0004284004,-0.0003092824,8,1
-0.0001532135,-0.0003425058,8,1
0.0001344524,-0.0003557951,8,1
0.0004273046,-0.0003400748,8,1
0.0007060571,-0.0002992343,8,1
0.0009439692,-0.0002408908,8,1
0.001129372,-0.0001784957,8,1
0.001275879,-0.0001229073,8,1
0.001404722,-8.060823e-05,8,1
0.001526433,-5.111234e-05,8,1
0.001622052,-2.826114e-05,8,1
0.00165252,-7.100305e-07,8,1
0.001604873,4.045456e-05,8,1
0.001506823,9.344993e-05,8,1
0.00139516,0.0001517934,8,1
0.001287224,0.0002041406,8,1
0.001193064,0.0002446569,8,1
0.001111221,0.0002665357,8,1
0.001020788,0.0002639427,8,1
0.0008951875,0.0002386605,8,1
0.0007203188,0.000192796,8,1
0.0004997478,0.0001302388,8,1
0.0002464396,4.839576e-05,8,1
-2.372331e-05,-5.889148e-05,8,1
-0.0003013411,-0.0001880575,8,1
-0.000578959,-0.0003297026,8,1
-0.0008377773,-0.0004750752,8,1
-0.001042304,-0.0006081308,8,1
-0.001155587,-0.00071558,8,1
-0.001160935,-0.0007932093,8,1
-0.00107731,-0.0008350222,8,1
-0.00094393,-0.0008317808,8,1
-0.0008052022,-0.0007844578,8,1
-0.0006971046,-0.0006993735,8,1
-0.0006373025,-0.0005932208,8,1
-0.000623527,-0.0004930644,8,1
-0.0006426507,-0.0004232143,8,1
-0.0006883531,-0.0003841565,8,1
-0.0007473448,-0.0003553089,8,1
-0.0008037436,-0.0003073376,8,1
-0.0008423151,-0.0002207947,8,1
-0.0008654904,-9.2439e-05,8,1
-0.000909086,6.46023e-05,8,1
-0.001000977,0.0002256952,8,1
-0.001126091,0.0003655576,8,1
-0.001237268,0.000467983,8,1
-0.001290426,0.000532647,8,1
-0.001270168,0.0005657084,8,1
-0.001190269,0.0005713807,8,1
-0.001070503,0.0005550121,8,1
-0.0009116791,0.0005229231,8,1
-0.0007009942,0.0004791655,8,1
-0.0004343968,0.0004276287,8,1
-0.0001308485,0.000373985,8,1
0.0001644345,0.0003201794,8,1
0.0003968363,0.0002619979,8,1
0.0005284334,0.0002020337,8,1
0.0005507984,0.0001508211,8,1
0.0004884033,0.0001146805,8,1
0.0003811159,9.555677e-05,8,1
0.0002686426,9.020862e-05,8,1
0.0001744826,9.523264e-05,8,1
0.0001047945,0.000113546,8,1
5.860588e-05,0.0001501728,8,1
2.505836e-05,0.0002023578,8,1
-1.221667e-05,0.0002529222,8,1
-5.872941e-05,0.0002712356,8,1
-0.0001011905,0.000232502,8,1
-0.0001170729,0.0001373696,8,1
-9.843541e-05,8.851824e-06,8,1
-4.770897e-05,-0.0001208004,8,1
4.320967e-05,-0.0002217671,8,1
0.0001999268,-0.0002713591,8,1
0.0004392974,-0.0002622834,8,1
0.00074787,-0.0002028055,8,1
0.001074918,-0.0001125351,8,1
0.001349943,-2.145439e-05,8,1
0.001516061,4.434413e-05,8,1
0.001545233,5.957827e-05,8,1
0.00144929,1.031041e-05,8,1
0.001270369,-9.19528e-05,8,1
0.001061143,-0.0002118811,8,1
0.0008511057,-0.0003105789,8,1
0.000646417,-0.0003647087,8,1
0.0004461041,-0.0003736223,8,1
0.0002561635,-0.0003486642,8,1
9.652917e-05,-0.0003050687,8,1
-2.006553e-06,-0.0002545043,8,1
-1.221667e-05,-0.00019924,8,1
6.281957e-05,-0.000137007,8,1
0.00018291,-5.953974e-05,8,1
0.0002968419,3.478228e-05,8,1
0.0003644232,0.0001414213,8,1
0.0003660439,0.0002527602,8,1
0.00030689,0.0003613439,8,1
0.0001979821,0.0004623107,8,1
5.61749e-05,0.000549826,8,1
-8.692878e-05,0.0006153004,8,1
-0.0002021572,0.000648848,8,1
-0.0002825416,0.0006400964,8,1
-0.0003407231,0.0005961767,8,1
-0.0003917736,0.0005410745,8,1
-0.0004371519,0.0004979651,8,1
-0.0004737787,0.0004790034,8,1
-0.0005206155,0.0004819206,8,1
-0.0006050515,0.000500234,8,1
-0.0007275729,0.0005251921,8,1
-0.0008528493,0.000549826,8,1
-0.0009295062,0.0005717048,8,1
-0.0009168651,0.000591963,8,1
-0.0008063366,0.0006101143,8,1
-0.0006215822,0.0006193521,8,1
-0.0003993907,0.000604442,8,1
-0.0001708786,0.0005496639,8,1
4.531652e-05,0.0004448076,8,1
0.0002380122,0.0002942489,8,1
0.000403643,0.0001323456,8,1
0.0005392918,5.86492e-07,8,1
0.0006465791,-7.720486e-05,8,1
0.0007264773,-0.0001008664,8,1
0.0007827141,-8.854943e-05,8,1
0.0008235546,-6.48879e-05,8,1
0.000864395,-4.965376e-05,8,1
0.0009185249,-5.013995e-05,8,1
0.000992913,-6.002594e-05,8,1
0.00107508,-7.007399e-05,8,1
0.001135855,-7.785312e-05,8,1
0.001135369,-8.919769e-05,8,1
0.001047367,-0.0001086455,8,1
0.0008710398,-0.0001360346,8,1
0.0006430136,-0.0001601823,8,1
0.0004229288,-0.0001731475,8,1
0.0002639427,-0.0001890299,8,1
0.0001910133,-0.0002305186,8,1
0.0001892305,-0.0003005308,8,1
0.0002130541,-0.0003865875,8,1
0.0002120818,-0.0004619479,8,1
0.0001485521,-0.0005037607,8,1
6.258778e-06,-0.0005042469,8,1
-0.0002235498,-0.0004734545,8,1
-0.0005488148,-0.000430021,8,1
-0.000939068,-0.0003862634,8,1
-0.001322515,-0.0003415334,8,1
-0.001607263,-0.0002815692,8,1
-0.001728326,-0.0001989159,8,1
-0.001688134,-0.0001096179,8,1
-0.001556699,-5.467778e-05,8,1
-0.001405978,-7.201877e-05,8,1
-0.001268547,-0.0001660166,8,1
-0.00114165,-0.000310741,8,1
-0.001010539,-0.0004637306,8,1
-0.0008628974,-0.0005903036,8,1
-0.0006990494,-0.000668257,8,1
-0.000529205,-0.0006917564,8,1
-0.0003698948,-0.0006690673,8,1
-0.0002392702,-0.0006113721,8,1
-0.0001421931,-0.0005335807,8,1
-6.699475e-05,-0.0004483344,8,1
9.338019e-06,-0.0003642225,8,1
0.0001005808,-0.0002893484,8,1
0.0001848548,-0.0002290601,8,1
0.0002145127,-0.0001853024,8,1
0.0001566554,-0.0001536997,8,1
2.684107e-05,-0.0001324691,8,1
-0.0001164247,-0.0001208004,8,1
-0.0002037779,-0.0001170729,8,1
-0.0002057227,-0.0001146419,8,1
-0.0001279313,-0.0001020008,8,1
1.12828e-05,-7.428769e-05,8,1
0.0001874478,-3.555408e-05,8,1
0.0003702575,8.851824e-06,8,1
0.000547395,5.1475e-05,8,1
0.0007128638,8.712937e-05,8,1
0.0008509436,0.0001174356,8,1
0.0009348936,0.0001363972,8,1
0.0009391072,0.0001412592,8,1
0.0008572642,0.0001318594,8,1
0.0007042743,0.0001106288,8,1
0.0005031512,8.405014e-05,8,1
0.0002754493,6.362991e-05,8,1
4.82337e-05,6.055066e-05,8,1
-0.0001465688,7.708133e-05,8,1
-0.0002846485,0.0001052807,8,1
-0.0003600088,0.0001362352,8,1
-0.0003935563,0.0001644345,8,1
-0.0004154351,0.0001848548,8,1
-0.0004544929,0.0001966855,8,1
-0.0005251534,0.0002030061,8,1
-0.0006314681,0.0002064095,8,1
-0.0007690616,0.0002107852,8,1
-0.000906817,0.0002182402,8,1
-0.0009993564,0.0002282883,8,1
-0.001019939,0.0002376881,8,1
-0.0009727777,0.0002409294,8,1
-0.0008722972,0.000235095,8,1
-0.0007298418,0.0002258573,8,1
-0.0005535148,0.0002167816,8,1
-0.0003527159,0.0002093267,8,1
-0.0001391138,0.0001997648,8,1
8.550872e-05,0.000185341,8,1
0.0003328204,0.0001678379,8,1
0.0006073592,0.0001564933,8,1
0.0008917841,0.0001543865,8,1
0.00115271,0.000155521,8,1
0.001349457,0.0001464453,8,1
0.001454314,0.0001128978,8,1
0.001456907,5.439218e-05,8,1
0.001367447,-1.545797e-05,8,1
0.001223694,-8.141856e-05,8,1
0.00108529,-0.0001277692,8,1
0.00100993,-0.0001491618,8,1
0.001014468,-0.0001522411,8,1
0.001067949,-0.0001498101,8,1
0.001125159,-0.0001566169,8,1
0.001150279,-0.000179306,8,1
0.001123052,-0.0002123673,8,1
0.001028729,-0.0002433218,8,1
0.0008609917,-0.0002588801,8,1
0.0006431757,-0.0002481838,8,1
0.0004128807,-0.0002071812,8,1
0.0001999268,-0.0001480274,8,1
8.689758e-06,-9.276313e-05,8,1
-0.0001716889,-5.921561e-05,8,1
-0.0003496366,-4.738484e-05,8,1
-0.0005293671,-4.284701e-05,8,1
-0.0007120146,-2.988179e-05,8,1
-0.0008855865,-2.006553e-06,8,1
-0.001026583,4.256141e-05,8,1
-0.001114747,0.0001015532,8,1
-0.001142136,0.0001688103,8,1
-0.001118799,0.0002363916,8,1
-0.001060617,0.0002940868,8,1
-0.0009808809,0.000341572,8,1
-0.0008838038,0.0003874365,8,1
-0.0007789475,0.0004380009,8,1
-0.0006794395,0.0004841895,8,1
-0.0005975965,0.0005031512,8,1
-0.0005316359,0.0004812723,8,1
-0.0004776682,0.0004239012,8,1
-0.0004366657,0.0003511338,8,1
-0.0004138145,0.0002850112,8,1
-0.0004087905,0.000244981,8,1
-0.0004143007,0.0002292607,8,1
-0.0004222419,0.0002138645,8,1
-0.0004287245,0.0001798307,8,1
-0.0004425001,0.0001245665,8,1
-0.0004937127,5.082674e-05,8,1
-0.0005959758,-3.604027e-05,8,1
-0.0007267626,-0.0001199901,8,1
-0.0008350222,-0.0001823853,8,1
-0.0008732696,-0.0002112329,8,1
-0.0008261086,-0.0002031296,8,1
-0.0007058561,-0.0001634236,8,1
-0.0005369841,-0.0001016767,8,1
-0.0003436402,-3.21507e-05,8,1
-0.0001374932,3.202716e-05,8,1
7.610894e-05,8.259155e-05,8,1
0.0002872801,0.0001203528,8,1
0.0004896998,0.0001454729,8,1
0.0006862851,0.0001595726,8,1
0.0008828705,0.0001620036,8,1
0.001077349,0.0001547106,8,1
0.001247356,0.0001427178,8,1
0.001349619,0.0001286181,8,1
0.00133714,0.0001179218,8,1
0.001198412,0.0001211631,8,1
0.0009734652,0.0001417454,8,1
0.0007305289,0.0001739964,8,1
0.0005310264,0.0002135403,8,1
0.0004213082,0.0002624841,8,1
0.0004217943,0.0003276344,8,1
0.000515144,0.0004107739,8,1
0.0006545202,0.0004952099,8,1
0.0008010275,0.0005533914,8,1
0.0009292212,0.000559712,8,1
0.001025488,0.0004984512,8,1
0.001078646,0.000373823,8,1
0.001077349,0.0002124059,8,1
0.001011226,5.017848e-05,8,1
0.0008883807,-7.947377e-05,8,1
0.0007373357,-0.0001588858,8,1
0.0005833735,-0.0001925954,8,1
0.0004451317,-0.000201671,8,1
0.0003311998,-0.0002104225,8,1
0.0002386605,-0.0002305186,8,1
0.0001584381,-0.0002579077,8,1
7.659513e-05,-0.0002836761,8,1
-1.383732e-05,-0.0002987481,8,1
-0.0001191798,-0.0003003688,8,1
-0.0002476975,-0.000285945,8,1
-0.0003984183,-0.0002506147,8,1
-0.0005538389,-0.0001968091,8,1
-0.0006919185,-0.000132145,8,1
-0.0007990437,-7.169464e-05,8,1
-0.0008599802,-3.069211e-05,8,1
-0.0008502563,-1.918548e-05,8,1
-0.0007583653,-3.749886e-05,8,1
-0.0006032689,-8.222889e-05,8,1
-0.0004224039,-0.0001462447,8,1
-0.0002506147,-0.0002303566,8,1
-0.0001164247,-0.0003305129,8,1
-5.419158e-05,-0.0004355313,8,1
-9.227693e-05,-0.000526774,8,1
-0.0002306807,-0.0005851175,8,1
-0.0004416897,-0.0005982448,8,1
-0.0006789533,-0.0005638869,8,1
-0.000891745,-0.0004950092,8,1
-0.001039549,-0.0004352071,8,1
-0.001094003,-0.0004565997,8,1
-0.001044086,-0.0006055377,8,1
-0.0008943381,-0.0008599802,8,1
-0.0006630709,-0.001141488,8,1
-0.0003893426,-0.0013606,8,1
-0.0001358725,-0.00145395,8,1
3.056858e-05,-0.001405492,8,1
7.951231e-05,-0.001242454,8,1
3.380988e-05,-0.001022046,8,1
-5.370539e-05,-0.0008001782,8,1
-0.0001342519,-0.0006092652,8,1
-0.0001955125,-0.0004580583,8,1
-0.0002498044,-0.0003311612,8,1
-0.0002940482,-0.0002045882,8,1
-0.0003074997,-5.710876e-05,8,1
-0.0002592042,0.0001140322,8,1
-0.0001350622,0.0002879283,8,1
2.295151e-05,0.000435732,8,1
0.000145797,0.0005391297,8,1
0.0001908512,0.0005898562,8,1
0.0001600588,0.0005914768,8,1
9.588091e-05,0.0005590637,8,1
5.974033e-05,0.0005208163,8,1
0.0001245665,0.0005072028,8,1
0.0003431926,0.0005431813,8,1
0.0007102708,0.000626807,8,1
0.001137638,0.0007324737,8,1
0.001497909,0.0008331164,8,1
0.001689471,0.0009251696,8,1
0.001677964,0.001025326,8,1
0.001503744,0.001134234,8,1
0.001241359,0.001220777,8,1
0.0009553138,0.00122888,8,1
0.0006778577,0.001114462,8,1
0.0004063981,0.0008733086,8,1
0.0001211631,0.000547395,8,1
-0.0001874093,0.0002047888,8,1
-0.0005238568,-8.271508e-05,8,1
-0.000876835,-0.0002677937,8,1
-0.001193511,-0.0003413713,8,1
-0.001399009,-0.0003250027,8,1
-0.001442443,-0.0002580697,8,1
-0.001320894,-0.0001770371,8,1
-0.001069531,-0.0001109144,8,1
-0.0007342176,-6.845333e-05,8,1
-0.0003582261,-4.414354e-05,8,1
5.934648e-06,-2.388537e-05,8,1
0.000304297,4.47606e-06,8,1
0.0005044477,4.337174e-05,8,1
0.0005986077,8.648112e-05,8,1
0.0006021731,0.0001242423,8,1
0.0005477191,0.0001516314,8,1
0.0004627969,0.0001696206,8,1
0.0003568061,0.00018291,8,1
0.0002216436,0.000195227,8,1
4.320967e-05,0.0002141886,8,1
-0.0001880575,0.0002407673,8,1
-0.0004585445,0.0002645909,8,1
-0.0007342176,0.0002658874,8,1
-0.0009658089,0.0002318537,8,1
-0.001110533,0.0001658931,8,1
-0.001156074,8.761557e-05,8,1
-0.001133709,1.987227e-05,8,1
-0.001092868,-2.566809e-05,8,1
-0.001070503,-4.657452e-05,8,1
-0.001068396,-5.22468e-05,8,1
-0.001060617,-5.159854e-05,8,1
-0.001019452,-5.240886e-05,8,1
-0.0009244822,-5.937768e-05,8,1
-0.0007629031,-7.623246e-05,8,1
-0.0005360117,-0.0001034594,8,1
-0.0002684419,-0.0001365208,8,1
1.582063e-05,-0.0001660166,8,1
0.0002867939,-0.0001898403,8,1
0.0005133613,-0.000208964,8,1
0.0006793162,-0.0002183637,8,1
0.0007891966,-0.000213988,8,1
0.000859371,-0.0002021572,8,1
0.0009118802,-0.0001930815,8,1
0.0009687652,-0.0001972953,8,1
0.001032943,-0.0002169052,8,1
0.00109469,-0.0002417012,8,1
0.001135855,-0.0002614731,8,1
0.0011378,-0.0002647144,8,1
0.001094042,-0.0002476975,8,1
0.001010092,-0.0002109087,8,1
0.0009057217,-0.0001609926,8,1
0.0008068618,-0.0001067007,8,1
0.0007293945,-5.451572e-05,8,1
0.0006746164,-8.813297e-06,8,1
0.0006368551,2.878586e-05,8,1
0.000606711,5.633696e-05,8,1
0.0005775391,7.546067e-05,8,1
0.0005457744,8.956036e-05,8,1
0.0005161164,0.0001020394,8,1
0.0004913204,0.0001187321,8,1
0.0004569625,0.0001412592,8,1
0.0003906778,0.0001692965,8,1
0.0002926282,0.0001957132,8,1
0.000187772,0.0002125679,8,1
0.0001075496,0.0002122438,8,1
6.168512e-05,0.0001957132,8,1
3.283749e-05,0.0001684862,8,1
-1.124428e-05,0.0001448246,8,1
-9.924574e-05,0.0001375317,8,1
-0.0002370013,0.0001551968,8,1
-0.0004058733,0.0001934442,8,1
-0.0005676145,0.0002221298,8,1
-0.0006864083,0.0001880961,8,1
-0.0007415105,4.02925e-05,8,1
-0.0007356761,-0.0002172293,8,1
-0.0006885151,-0.0005129984,8,1
-0.0006223925,-0.0007531792,8,1
-0.0005520562,-0.000876835,8,1
-0.00048723,-0.000876835,8,1
-0.0004318037,-0.0007864026,8,1
-0.0003844807,-0.0006501057,8,1
-0.0003394265,-0.0005018159,8,1
-0.0002925897,-0.0003566054,8,1
-0.0002522354,-0.0002220912,8,1
-0.0002400805,-0.0001050801,8,1
-0.0002895104,-1.092015e-05,8,1
-0.0004130042,6.006447e-05,8,1
-0.000583983,0.0001141943,8,1
-0.0007434553,0.0001574657,8,1
-0.0008288636,0.0001902029,8,1
-0.000812333,0.0002143507,8,1
-0.0007139594,0.0002367157,8,1
-0.000578797,0.0002631324,8,1
-0.0004381243,0.0003023522,8,1
-0.0003018274,0.0003700955,8,1
-0.0001710407,0.000480462,8,1
-4.155049e-05,0.000636531,8,1
9.328786e-05,0.0008162616,8,1
0.000237526,0.0009861062,8,1
0.000383709,0.001123376,8,1
0.0005012064,0.001228394,8,1
0.00055485,0.00131753,8,1
0.0005230852,0.001407153,8,1
0.0004086671,0.001492075,8,1
0.0002495189,0.001538102,8,1
9.977047e-05,0.001486727,8,1
2.855407e-06,0.001290952,8,1
-2.939559e-05,0.0009572586,8,1
-1.010982e-05,0.0005402642,8,1
4.045456e-05,0.0001174356,8,1
0.000101067,-0.0002452666,8,1
0.0001590864,-0.0005047331,8,1
0.0001992786,-0.0006578848,8,1
0.0002051129,-0.0007246558,8,1
0.0001658931,-0.0007390795,8,1
8.826383e-05,-0.0007348658,8,1
-9.623623e-06,-0.0007241695,8,1
-0.0001070249,-0.0007045596,8,1
-0.0001809267,-0.0006711741,8,1
-0.0002126914,-0.0006178547,8,1
-0.0001914609,-0.0005452494,8,1
-0.0001182074,-0.0004634065,8,1
-9.623623e-06,-0.0003809152,8,1
9.604298e-05,-0.0003070135,8,1
0.0001542244,-0.000253694,8,1
0.000130887,-0.000231329,8,1
2.586868e-05,-0.0002426735,8,1
-0.0001264727,-0.0002758969,8,1
-0.0002862691,-0.0003188442,8,1
-0.0004180282,-0.0003577399,8,1
-0.0004951713,-0.0003912874,8,1
-0.0005073262,-0.0004224039,8,1
-0.0004617858,-0.0004518998,8,1
-0.0003572537,-0.0004812336,8,1
-0.0001733096,-0.0005117019,8,1
0.0001124116,-0.0005627525,8,1
0.0004822447,-0.0006476747,8,1
0.0008708776,-0.0007569068,8,1
0.001194198,-0.0008583596,8,1
0.001383653,-0.0009152445,8,1
0.001415256,-0.0009053585,8,1
0.001311372,-0.000829674,8,1
0.00111981,-0.0007100698,8,1
0.000894053,-0.0005817142,8,1
0.0006815852,-0.0004716718,8,1
0.0005109303,-0.0003979321,8,1
0.000391164,-0.0003634122,8,1
0.0003148312,-0.0003536883,8,1
0.0002658874,-0.0003399127,8,1
0.0002310434,-0.0003039342,8,1
0.0001983062,-0.0002352185,8,1
0.0001516314,-0.0001361966,8,1
7.837785e-05,-2.307504e-05,8,1
-1.562004e-05,8.453633e-05,8,1
-0.0001071869,0.0001723757,8,1
-0.000171851,0.000235095,8,1
-0.0002088019,0.0002738286,8,1
-0.0002433218,0.0002929524,8,1
-0.0003136581,0.0003004074,8,1
-0.0004501171,0.0003051073,8,1
-0.0006674466,0.0003153174,8,1
-0.0009528436,0.0003402755,8,1
-0.00127665,0.0003845193,8,1
-0.001589112,0.0004498317,8,1
-0.001828969,0.0005251921,8,1
-0.001950356,0.0005859666,8,1
-0.001936094,0.0006050903,8,1
-0.001784887,0.0005652222,8,1
-0.001506135,0.0004738173,8,1
-0.001124147,0.0003553475,8,1
-0.0006844635,0.0002412535,8,1
-0.0002436459,0.0001620036,8,1
0.0001398006,0.0001373696,8,1
0.0004251977,0.0001667035,8,1
0.0006063868,0.0002359054,8,1
0.0007045984,0.0003321722,8,1
0.0007519216,0.0004474007,8,1
0.0007846588,0.0005707325,8,1
0.0008391128,0.0006880678,8,1
0.0009395934,0.0007840106,8,1
0.001080266,0.0008559676,8,1
0.00122888,0.0009028045,8,1
0.001334385,0.0009149595,8,1
0.001355778,0.0008833567,8,1
0.001280903,0.0008076721,8,1
0.001146551,0.0006904988,8,1
0.001009768,0.0005452881,8,1
0.00092128,0.0003979707,8,1
0.000901508,0.0002701012,8,1
0.0009400796,0.000163138,8,1
0.00102095,6.881599e-05,8,1
0.001127103,-2.210265e-05,8,1
0.001227422,-0.0001065387,8,1
0.001272962,-0.000174444,8,1
0.001220777,-0.0002204706,8,1
0.00105385,-0.0002408908,8,1
0.0007906552,-0.000238946,8,1
0.0004649037,-0.0002207947,8,1
0.0001179218,-0.0001968091,8,1
-0.0002120432,-0.0001801163,8,1
-0.0004885266,-0.000176875,8,1
-0.000685598,-0.000186761,8,1
-0.0007990437,-0.000204102,8,1
-0.0008452323,-0.0002261429,8,1
-0.0008606284,-0.0002530457,8,1
-0.000881697,-0.0002852967,8,1
-0.0009150825,-0.0003151167,8,1
-0.0009312889,-0.0003308371,8,1
-0.0008902864,-0.0003339163,8,1
-0.000772627,-0.0003371576,8,1
-0.0005972724,-0.000353202,8,1
-0.0004112214,-0.0003859393,8,1
-0.0002690902,-0.0004298589,8,1
-0.0002042641,-0.0004695649,8,1
-0.0002120432,-0.0004886886,8,1
-0.0002617972,-0.0004788027,8,1
-0.0003204649,-0.0004468758,8,1
-0.0003692465,-0.0004138145,8,1
-0.0004061974,-0.0004133283,8,1
-0.0004277521,-0.0004653512,8,1
-0.0004296969,-0.0005625904,8,1
-0.0004211074,-0.0006703638,8,1
-0.0004228902,-0.000752855,8,1
-0.0004512515,-0.0007880232,8,1
-0.0004979264,-0.0007760304,8,1
-0.0005429805,-0.0007283832,8,1
-0.0005627525,-0.0006578848,8,1
-0.0005345531,-0.0005677765,8,1
-0.0004387725,-0.0004614617,8,1
-0.0002865932,-0.0003408851,8,1
-0.0001139937,-0.000208964,8,1
3.494434e-05,-6.893953e-05,8,1
0.0001221355,6.525056e-05,8,1
0.0001265113,0.0001837203,8,1
4.337174e-05,0.0002795009,8,1
-0.0001276072,0.0003532407,8,1
-0.0003771877,0.0004119083,8,1
-0.0006745775,0.0004696036,8,1
-0.0009434438,0.0005355643,8,1
-0.001087196,0.0006146522,8,1
-0.001051703,0.0007044364,8,1
-0.0008609526,0.0008005413,8,1
-0.0005925725,0.000894053,8,1
-0.0003217614,0.0009692514,8,1
-9.438378e-05,0.001017709,8,1
6.703327e-05,0.001043802,8,1
0.0001608691,0.001061629,8,1
0.0001992786,0.001079456,8,1
0.0001991165,0.001091773,8,1
0.000187772,0.001077673,8,1
0.0002111094,0.001009282,8,1
0.0002929524,0.0008681226,8,1
0.0004222805,0.0006582477,8,1
0.0005765668,0.0004089912,8,1
0.0007279359,0.0001633001,8,1
0.0008410576,-4.349527e-05,8,1
0.0008827084,-0.0001932436,8,1
0.0008339267,-0.0002883759,8,1
0.0006969814,-0.0003473677,8,1
0.0004914824,-0.0003925839,8,1
0.0002483844,-0.0004340726,8,1
3.989864e-06,-0.0004705373,8,1
-0.0001998883,-0.0004958195,8,1
-0.000320789,-0.0005003574,8,1
-0.0003452609,-0.0004862577,8,1
-0.0002912931,-0.0004587066,8,1
-0.0001995642,-0.0004243487,8,1
-0.0001188556,-0.0003883702,8,1
-8.725291e-05,-0.0003546606,8,1
-0.0001177212,-0.0003222476,8,1
-0.000189192,-0.0002908069,8,1
-0.0002720074,-0.000261311,8,1
-0.0003392644,-0.000233922,8,1
-0.0003760533,-0.0002083157,8,1
-0.0003779981,-0.0001895161,8,1
-0.0003475298,-0.0001828714,8,1
-0.0002940482,-0.0001849783,8,1
-0.0002295462,-0.0001883817,8,1
-0.0001653684,-0.0001870851,8,1
-0.0001054042,-0.0001815749,8,1
-4.025397e-05,-0.0001765509,8,1
3.316162e-05,-0.0001776853,8,1
0.0001018773,-0.0001857886,8,1
0.0001453108,-0.0001977815,8,1
0.0001428799,-0.0002092881,8,1
9.296373e-05,-0.0002199844,8,1
1.987227e-05,-0.0002347323,8,1
-4.365734e-05,-0.0002595283,8,1
-7.801519e-05,-0.0002961551,8,1
-8.206682e-05,-0.0003402368,8,1
-6.164659e-05,-0.0003818876,8,1
-2.518189e-05,-0.0004121938,8,1
1.663096e-05,-0.0004326141,8,1
6.395404e-05,-0.0004486585,8,1
0.000130725,-0.0004533584,8,1
0.000225047,-0.0004321279,8,1
0.0003286068,-0.0003758912,8,1
0.0004076947,-0.0002865932,8,1
0.0004336251,-0.0001770371,8,1
0.0003968363,-6.942573e-05,8,1
0.0003222862,1.760335e-05,8,1
0.0002624841,7.67572e-05,8,1
0.0002619979,0.0001116012,8,1
0.0003299033,0.0001312112,8,1
0.0004391353,0.0001441764,8,1
0.0005436675,0.0001548727,8,1
0.0006028214,0.0001657311,8,1
0.000596987,0.0001816135,8,1
0.000530054,0.0002083542,8,1
0.000418391,0.0002506533,8,1
0.0002908455,0.0003047831,8,1
0.0001893926,0.0003598854,8,1
0.0001594105,0.0003991052,8,1
0.0002372019,0.0004086671,8,1
0.0004303838,0.0003835469,8,1
0.0007078398,0.0003333067,8,1
0.001011064,0.0002726942,8,1
0.001265993,0.0002221298,8,1
0.001394998,0.0001979821,8,1
0.001355778,0.0002065715,8,1
0.001160489,0.0002419018,8,1
0.0008621261,0.0002974902,8,1
0.0005230852,0.0003705817,8,1
0.0002046267,0.0004561522,8,1
-4.916756e-05,0.0005357263,8,1
-0.000216419,0.000579646,8,1
-0.0002906449,0.0005619809,8,1
-0.0002883759,0.0004856481,8,1
-0.0002575835,0.0003767402,8,1
-0.0002556388,0.0002723701,8,1
-0.0003113892,0.0002012234,8,1
-0.0004134903,0.0001757791,8,1
-0.0005343911,0.0001908512,8,1
-0.0006397335,0.000227478,8,1
-0.0006954839,0.0002592428,8,1
-0.0006888393,0.000267346,8,1
-0.0006275786,0.0002441707,8,1
-0.0005316359,0.0001958752,8,1
-0.0004245108,0.0001336421,8,1
-0.0003271096,6.541262e-05,8,1
-0.0002533699,-6.220252e-06,8,1
-0.0002135018,-7.18567e-05,8,1
-0.0002049123,-0.0001201522,8,1
-0.0002123673,-0.0001457585,8,1
-0.0002136638,-0.0001538618,8,1
-0.0001890299,-0.0001511067,8,1
-0.000127283,-0.0001475412,8,1
-2.761287e-05,-0.0001457585,8,1
0.0001039842,-0.0001438137,8,1
0.0002535705,-0.0001384655,8,1
0.0004034809,-0.0001229073,8,1
0.0005294057,-9.503204e-05,8,1
0.0006083316,-6.035007e-05,8,1
0.0006256726,-2.631635e-05,8,1
0.0005856425,-3.858999e-07,8,1
0.0004990995,1.355172e-05,8,1
0.0003749574,1.679302e-05,8,1
0.0002273159,2.04508e-06,8,1
7.286763e-05,-4.074016e-05,8,1
-7.137051e-05,-0.0001131834,8,1
-0.0001880575,-0.0002003745,8,1
-0.0002669833,-0.0002828657,8,1
-0.0002987481,-0.0003420196,8,1
-0.0002893484,-0.0003687603,8,1
-0.000271197,-0.0003642225,8,1
-0.0002823795,-0.0003416954,8,1
-0.0003439643,-0.0003118754,8,1
-0.0004476861,-0.0002815692,8,1
-0.0005622663,-0.0002494803,8,1
-0.00065594,-0.0002225774,8,1
-0.0007099077,-0.0002212809,8,1
-0.0007264384,-0.0002626076,8,1
-0.0007136352,-0.0003395886,8,1
-0.0006786292,-0.0004277521,8,1
-0.0006183409,-0.0004954954,8,1
-0.0005300153,-0.0005232086,8,1
-0.0004194868,-0.0005071641,8,1
-0.0002896725,-0.0004483344,8,1
-0.0001365208,-0.0003559572,8,1
3.640293e-05,-0.0002423494,8,1
0.0002106232,-0.0001199901,8,1
0.0003522683,-2.006553e-06,8,1
0.0004193634,0.0001041462,8,1
0.0003828986,0.0001931201,8,1
0.0002530843,0.0002624841,8,1
7.610894e-05,0.0003179104,8,1
-0.0001052422,0.0003681507,8,1
-0.0002703867,0.0004216323,8,1
-0.0004258073,0.0004781931,8,1
-0.0005857658,0.000534916,8,1
-0.0007513965,0.0005864528,8,1
-0.0008990379,0.0006258347,8,1
-0.000988498,0.0006438239,8,1
-0.0009919014,0.000634262,8,1
-0.0009131377,0.0005995801,8,1
-0.000782513,0.0005545259,8,1
-0.0006394094,0.0005193577,8,1
-0.0005191569,0.000515144,8,1
-0.0004259694,0.0005465847,8,1
-0.0003212752,0.0006024973,8,1
-0.0001477033,0.0006554927,8,1
0.0001140322,0.0006723474,8,1
0.0004213082,0.0006264829,8,1
0.0007011951,0.0005115786,8,1
0.0008776844,0.0003443271,8,1
0.0009097734,0.0001587623,8,1
0.00081221,-5.89612e-06,8,1
0.0006501445,-0.0001186936,8,1
0.0005033132,-0.0001759026,8,1
0.0004248736,-0.000191623,8,1
0.0004206599,-0.0001869231,8,1
0.0004522626,-0.000179306,8,1
0.0004632831,-0.000176713,8,1
0.0004266563,-0.0001770371,8,1
0.0003433547,-0.0001750923,8,1
0.0002266676,-0.0001684476,8,1
0.000106091,-0.0001574272,8,1
1.290346e-05,-0.0001454344,8,1
-3.085418e-05,-0.0001365208,8,1
-1.497178e-05,-0.0001336036,8,1
5.309566e-05,-0.0001361966,8,1
0.000145797,-0.0001396,8,1
0.0002258573,-0.0001428413,8,1
0.0002639427,-0.0001485136,8,1
0.0002540567,-0.0001601823,8,1
0.0002124059,-0.0001801163,8,1
0.0001610312,-0.0002088019,8,1
0.0001167873,-0.0002436459,8,1
8.631905e-05,-0.0002814071,8,1
7.643307e-05,-0.0003151167,8,1
8.858796e-05,-0.000342992,8,1
0.0001167873,-0.0003626019,8,1
0.0001441764,-0.0003726499,8,1
0.0001516314,-0.0003723258,8,1
0.0001247285,-0.0003562813,8,1
5.925414e-05,-0.0003219235,8,1
-4.025397e-05,-0.0002733039,8,1
-0.0001639098,-0.0002172293,8,1
-0.0002856209,-0.0001603444,8,1
-0.0003647087,-0.0001102662,8,1
-0.000375405,-7.947377e-05,8,1
-0.0003250027,-8.919769e-05,8,1
-0.0002465631,-0.0001603444,8,1
-0.0001830335,-0.0003040963,8,1
-0.0001699062,-0.0005005194,8,1
-0.0002157707,-0.0007071526,8,1
-0.0003100927,-0.0008794281,8,1
-0.0004285624,-0.0009873635,8,1
-0.0005486528,-0.00101929,8,1
-0.0006585331,-0.0009807189,8,1
-0.0007387554,-0.0008875313,8,1
-0.0007624169,-0.0007594998,8,1
-0.0007319486,-0.0006157478,8,1
-0.0006948357,-0.0004755614,8,1
-0.0006959701,-0.000355633,8,1
-0.0007277349,-0.0002645523,8,1
-0.0007374589,-0.0002029675,8,1
-0.0006706879,-0.000161965,8,1
-0.0005008436,-0.0001267968,8,1
-0.0002379736,-8.222889e-05,8,1
8.712937e-05,-2.453363e-05,8,1
0.0004375147,4.223728e-05,8,1
0.0007861174,0.0001167873,8,1
0.00111349,0.0002067336,8,1
0.001398239,0.0003227724,8,1
0.001618973,0.0004649037,8,1
0.001740198,0.0006211348,8,1
0.001739063,0.0007729901,8,1
0.001632748,0.0009092872,8,1
0.00146582,0.001031809,8,1
0.001287872,0.001151737,8,1
0.001131641,0.001273935,8,1
0.001004744,0.001382194,8,1
0.000896322,0.001438593,8,1
0.0007755831,0.001408287,8,1
0.0006059006,0.001282848,8,1
0.0003613439,0.001087883,8,1
4.82337e-05,0.0008708776,8,1
-0.0002908069,0.0006770474,8,1
-0.000603593,0.0005310264,8,1
-0.000842153,0.000435732,8,1
-0.0009742362,0.0003822504,8,1
-0.000991091,0.0003582647,8,1
-0.0008983897,0.0003495132,8,1
-0.000710556,0.0003410858,8,1
-0.000444769,0.0003253654,8,1
-0.0001279313,0.0003062417,8,1
0.0002017096,0.000287118,8,1
0.0004918066,0.000269777,8,1
0.0006945504,0.0002490327,8,1
0.0007723419,0.0002169437,8,1
0.0007212912,0.0001709172,8,1
0.0005712186,0.000111115,8,1
0.0003699334,4.094075e-05,8,1
0.0001616794,-3.68506e-05,8,1
-1.448558e-05,-0.0001180453,8,1
-0.0001238797,-0.000201671,8,1
-0.0001438137,-0.0002895104,8,1
-8.628052e-05,-0.0003846427,8,1
7.717366e-06,-0.0004852853,8,1
8.74535e-05,-0.0005841451,8,1
0.0001193804,-0.0006656639,8,1
8.988449e-05,-0.000720442,8,1
1.338965e-05,-0.0007492896,8,1
-8.093236e-05,-0.0007533412,8,1
-0.0001702304,-0.0007356761,8,1
-0.0002454286,-0.0007022907,8,1
-0.0003146305,-0.000663395,8,1
-0.0003857772,-0.0006225546,8,1
-0.0004559515,-0.0005805797,8,1
-0.0005159156,-0.0005364979,8,1
-0.0005570802,-0.0004898231,8,1
-0.0005677765,-0.000442338,8,1
-0.0005458977,-0.0003966356,8,1
-0.0005035987,-0.0003559572,8,1
-0.0004609755,-0.0003219235,8,1
-0.0004298589,-0.0002893484,8,1
-0.0004181903,-0.0002509389,8,1
-0.000432452,-0.0002042641,8,1
-0.0004731304,-0.0001530514,8,1
-0.0005394151,-0.0001021629,8,1
-0.0006238511,-5.59743e-05,8,1
-0.0007125008,-1.691656e-05,8,1
-0.0007870508,1.403791e-05,8,1
-0.0008235155,3.510641e-05,8,1
-0.0008077952,4.320967e-05,8,1
-0.000747831,3.98063e-05,8,1
-0.0006729569,2.943412e-05,8,1
-0.0006115342,1.290346e-05,8,1
-0.0005622663,-1.529591e-05,8,1
-0.0004891749,-5.921561e-05,8,1
-0.0003598467,-0.0001185315,8,1
-0.0001728234,-0.0001904885,8,1
3.55926e-05,-0.0002723315,8,1
0.00021273,-0.0003543365,8,1
0.0003174242,-0.0004241867,8,1
0.0003381686,-0.0004692408,8,1
0.0002989488,-0.000479613,8,1
0.0002477361,-0.0004506033,8,1
0.0002289366,-0.0003797808,8,1
0.0002652392,-0.0002694143,8,1
0.0003487029,-0.00012469,8,1
0.0004444835,4.158902e-05,8,1
0.0004955341,0.0002112714,8,1
0.0004538833,0.0003657197,8,1
0.0003128864,0.0004890515,8,1
0.0001188942,0.0005665187,8,1
-5.013995e-05,0.0005830494,8,1
-0.0001324691,0.0005355643,8,1
-0.0001212866,0.0004328148,8,1
-5.062615e-05,0.000297004,8,1
3.008238e-05,0.0001574657,8,1
7.254349e-05,4.126489e-05,8,1
5.698522e-05,-3.571614e-05,8,1
1.234753e-06,-7.428769e-05,8,1
-4.981582e-05,-8.611845e-05,8,1
-5.483985e-05,-8.482193e-05,8,1
7.717366e-06,-7.315322e-05,8,1
0.0001297526,-4.835724e-05,8,1
0.0002897111,-9.137427e-06,8,1
0.0004639314,4.045456e-05,8,1
0.0006269692,9.26396e-05,8,1
0.0007498147,0.0001402868,8,1
0.0008063756,0.0001842065,8,1
0.0007844968,0.0002232643,8,1
0.0006969814,0.0002574601,8,1
0.000572029,0.0002866318,8,1
0.0004418904,0.0003055935,8,1
0.0003240689,0.0002989488,8,1
0.0002242366,0.0002632944,8,1
0.0001454729,0.0002138645,8,1
8.291568e-05,0.0001717275,8,1
1.64689e-05,0.0001517934,8,1
-7.947377e-05,0.0001569795,8,1
-0.0002094502,0.0001806411,8,1
-0.0003454229,0.0002188885,8,1
-0.0004546549,0.0002694529,8,1
-0.0005266119,0.0003269861,8,1
-0.0005812279,0.0003825745,8,1
-0.0006552918,0.0004266563,8,1
-0.0007703581,0.0004543695,8,1
-0.0009111929,0.000470576,8,1
-0.001029176,0.000480462,8,1
-0.001078444,0.0004866205,8,1
-0.001032418,0.0004866205,8,1
-0.0008902864,0.0004794896,8,1
-0.0006779809,0.0004657141,8,1
-0.0004428242,0.0004405939,8,1
-0.0002392702,0.0004002396,8,1
-9.568031e-05,0.0003454615,8,1
-3.303076e-06,0.0002819319,8,1
4.790957e-05,0.0002248849,8,1
6.589881e-05,0.0001845306,8,1
5.228533e-05,0.0001665414,8,1
1.241726e-05,0.0001714034,8,1
-2.501983e-05,0.000192958,8,1
-1.010982e-05,0.0002203471,8,1
9.555677e-05,0.0002433604,8,1
0.0003133726,0.0002649151,8,1
0.0006426895,0.0002803113,8,1
0.001060494,0.0002775562,8,1
0.001540857,0.0002386605,8,1
0.002061898,0.0001610312,8,1
0.002582293,5.974033e-05,8,1
0.003030082,-5.22468e-05,8,1
0.003311267,-0.0001708786,8,1
0.003345625,-0.0002932379,8,1
0.003108846,-0.0004068457,8,1
0.002656681,-0.0004966299,8,1
0.002108735,-0.0005536768,8,1
0.001596121,-0.0005776625,8,1
0.001218022,-0.0005721523,8,1
0.001006527,-0.0005460597,8,1
0.0009185249,-0.0005057055,8,1
0.0008635847,-0.0004561135,8,1
0.0007525698,-0.0004024699,8,1
0.0005360505,-0.0003538503,8,1
0.0002088404,-0.0003261372,8,1
-0.0002037779,-0.0003209511,8,1
-0.0006612882,-0.0003290543,8,1
-0.001117664,-0.0003340784,8,1
-0.001527689,-0.0003267854,8,1
-0.001848741,-0.0003087962,8,1
-0.002059264,-0.0002901587,8,1
-0.002151155,-0.0002794623,8,1
-0.002133652,-0.0002771934,8,1
-0.002037547,-0.000276059,8,1
-0.001914864,-0.0002621213,8,1
-0.001817624,-0.000224036,8,1
-0.001767384,-0.0001608306,8,1
-0.001753771,-9.000802e-05,8,1
-0.001765925,-2.064406e-05,8,1
-0.00180239,5.585077e-05,8,1
-0.001842744,0.00015309,8,1
-0.001849389,0.0002743149,8,1
-0.001800121,0.0003973225,8,1
-0.001699154,0.0004840274,8,1
-0.001551189,0.0005026649,8,1
-0.001352335,0.0004430249,8,1
-0.001099837,0.0003208276,8,1
-0.0007920748,0.0001715654,8,1
-0.0004387725,3.786152e-05,8,1
-6.359137e-05,-5.59743e-05,8,1
0.0003018659,-0.0001067007,8,1
0.0006285898,-0.0001255003,8,1
0.0008972943,-0.0001284175,8,1
0.001106845,-0.000129714,8,1
0.001280093,-0.0001360346,8,1
0.001442645,-0.0001475412,8,1
0.00158737,-0.0001575893,8,1
0.001671482,-0.0001562927,8,1
0.001654141,-0.0001378173,8,1
0.001531619,-0.0001011905,8,1
0.001345081,-4.997789e-05,8,1
0.001155465,1.274139e-05,8,1
0.00101544,8.194328e-05,8,1
0.0009590413,0.0001516314,8,1
0.0009888613,0.000210299,8,1
0.001079618,0.0002487085,8,1
0.001204246,0.0002595669,8,1
0.001331144,0.0002440086,8,1
0.001407477,0.0002044647,8,1
0.001380574,0.0001480659,8,1
0.001213322,8.631905e-05,8,1
0.0009131767,2.311357e-05,8,1
0.0005401021,-3.814712e-05,8,1
0.0001867996,-9.730096e-05,8,1
-7.104638e-05,-0.0001496481,8,1
-0.0002136638,-0.0001904885,8,1
-0.0002880518,-0.0002154466,8,1
-0.0003687603,-0.0002282497,8,1
-0.0005167259,-0.0002392702,8,1
-0.0007475069,-0.0002669833,8,1
-0.0010342,-0.0003318095,8,1
-0.001323973,-0.0004342347,8,1
-0.001556213,-0.0005449253,8,1
-0.001686189,-0.0006266062,8,1
-0.001697534,-0.0006601537,8,1
-0.001610505,-0.000653185,8,1
-0.001473073,-0.0006290372,8,1
-0.001338235,-0.0006001896,8,1
-0.001238727,-0.0005655076,8,1
-0.001188,-0.0005202913,8,1
-0.001194483,-0.0004668098,8,1
-0.001268223,-0.0004131662,8,1
-0.001392689,-0.0003731361,8,1
-0.001521207,-0.0003606571,8,1
-0.001608236,-0.000375405,8,1
-0.001621687,-0.000405063,8,1
-0.001550703,-0.000435045,8,1
-0.001400954,-0.0004541688,8,1
-0.001200642,-0.000452224,8,1
-0.0009807189,-0.0004243487,8,1
-0.0007572309,-0.00036795,8,1
-0.0005373082,-0.0002781658,8,1
-0.0003288923,-0.00015451,8,1
-0.000134576,-3.627206e-06,8,1
5.536457e-05,0.0001636242,8,1
0.000247412,0.0003355756,8,1
0.0004410801,0.0005031512,8,1
0.0006326414,0.0006710509,8,1
0.0008130203,0.0008481885,8,1
0.000965848,0.00104056,8,1
0.001071515,0.001237308,8,1
0.001114462,0.00140148,8,1
0.001088694,0.001468251,8,1
0.001002637,0.001385922,8,1
0.0008752534,0.001161947,8,1
0.0007332841,0.0008681226,8,1
0.000599256,0.0006023352,8,1
0.0004947237,0.0004371906,8,1
0.0004339493,0.0003957018,8,1
0.0004232529,0.0004535592,8,1
0.0004598797,0.0005587396,8,1
0.0005303781,0.0006517651,8,1
0.0006024973,0.0006951987,8,1
0.0006279415,0.0006798024,8,1
0.0005785116,0.0006089798,8,1
0.0004645796,0.0004960203,8,1
0.0003282826,0.0003642611,8,1
0.0002067336,0.000237526,8,1
0.0001158149,0.0001316974,8,1
5.244739e-05,4.985435e-05,8,1
-7.100305e-07,-1.027188e-05,8,1
-6.294311e-05,-4.965376e-05,8,1
-0.0001407345,-7.493595e-05,8,1
-0.0002177155,-8.935975e-05,8,1
-0.0002650386,-9.373552e-05,8,1
-0.0002673075,-8.514606e-05,8,1
-0.0002567732,-6.715681e-05,8,1
-0.0002852967,-4.754691e-05,8,1
-0.0003773498,-3.830919e-05,8,1
-0.0005287188,-4.592625e-05,8,1
-0.00072028,-7.23429e-05,8,1
-0.0009222133,-0.0001112386,8,1
-0.001105185,-0.0001533756,8,1
-0.001243913,-0.0001948643,8,1
-0.001304039,-0.0002357047,8,1
-0.001249261,-0.0002768693,8,1
-0.001062238,-0.0003190063,8,1
-0.000752693,-0.0003544986,8,1
-0.0003408851,-0.000377836,8,1
0.0001360731,-0.0003843186,8,1
0.000626807,-0.0003750809,8,1
0.001081563,-0.0003570916,8,1
0.001456907,-0.0003389403,8,1
0.001712322,-0.0003227338,8,1
0.001811182,-0.0003102548,8,1
0.001745546,-0.0003016653,8,1
0.00155917,-0.0002963172,8,1
0.001330496,-0.0002942103,8,1
0.001140717,-0.0002953447,8,1
0.001045422,-0.0002989102,8,1
0.001051419,-0.0003029619,8,1
0.001131317,-0.0003036101,8,1
0.001229205,-0.0002968033,8,1
0.001288683,-0.000281083,8,1
0.001270369,-0.000256287,8,1
0.001157247,-0.0002279256,8,1
0.0009603378,-0.0002032917,8,1
0.0007238843,-0.0001846542,8,1
0.0004918066,-0.0001737958,8,1
0.0002833905,-0.0001697442,8,1
0.0001056048,-0.0001721751,8,1
-3.458168e-05,-0.0001823853,8,1
-0.0001280934,-0.0002010227,8,1
-0.0001707166,-0.0002261429,8,1
-0.0001723372,-0.0002527216,8,1
-0.0001491618,-0.0002723315,8,1
-0.0001214487,-0.0002755728,8,1
-0.0001016767,-0.0002582318,8,1
-0.000102325,-0.000223874,8,1
-0.0001374932,-0.0001794681,8,1
-0.000219012,-0.0001340898,8,1
-0.0003360231,-9.29252e-05,8,1
-0.000457248,-5.548811e-05,8,1
-0.000544277,-1.918548e-05,8,1
-0.0005640491,1.436204e-05,8,1
-0.0005113778,4.564065e-05,8,1
-0.0004039285,7.092284e-05,8,1
-0.0002614731,9.31258e-05,8,1
-9.000802e-05,0.0001171115,8,1
0.0001112771,0.0001368834,8,1
0.0003384927,0.0001352628,8,1
0.0005674912,9.896015e-05,8,1
0.0007535422,3.089271e-05,8,1
0.0008608295,-5.127441e-05,8,1
0.000871688,-0.0001219349,8,1
0.0007964896,-0.0001605064,8,1
0.0006660269,-0.0001554824,8,1
0.000514982,-0.00010978,8,1
0.0003600474,-3.717473e-05,8,1
0.0002054371,4.418206e-05,8,1
5.406805e-05,0.0001221355,8,1
-9.033215e-05,0.0001892305,8,1
-0.0002211189,0.0002457913,8,1
-0.0003285682,0.0002914938,8,1
-0.0003972838,0.0003303894,8,1
-0.000410249,0.0003679886,8,1
-0.0003609812,0.0004021844,8,1
-0.0002653627,0.0004323286,8,1
-0.0001541859,0.000462959,8,1
-6.083626e-05,0.0005012064,8,1
-5.734056e-06,0.0005480433,8,1
1.063454e-05,0.0006002283,8,1
-2.168618e-06,0.0006553305,8,1
-3.101625e-05,0.0007115673,8,1
-6.586029e-05,0.0007614834,8,1
-0.0001201522,0.0007924379,8,1
-0.0002149604,0.0008021619,8,1
-0.0003496366,0.0008034584,8,1
-0.0005076503,0.0008130203,8,1
-0.000665826,0.0008287407,8,1
-0.0008021229,0.000832144,8,1
-0.0009029275,0.0007945448,8,1
-0.0009688881,0.0006989262,8,1
-0.001010863,0.0005475571,8,1
-0.001034687,0.0003626405,8,1
-0.001039873,0.0001718896,8,1
-0.001025125,-1.358292e-06,8,1
-0.0009996805,-0.0001501342,8,1
-0.00097375,-0.0002830278,8,1
-0.0009497644,-0.0004058733,8,1
-0.0009322613,-0.0005219121,8,1
-0.0009312889,-0.0006316302,8,1
-0.0009609469,-0.0007301659,8,1
-0.001017184,-0.0008105503,8,1
-0.001073582,-0.000864518,8,1
-0.001104213,-0.0008889899,8,1
-0.001090761,-0.000889152,8,1
-0.001020425,-0.0008732696,8,1
-0.0008957966,-0.0008434496,8,1
-0.0007360002,-0.0007946679,8,1
-0.0005805797,-0.0007254661,8,1
-0.0004705373,-0.0006447575,8,1
-0.0004160834,-0.0005668041,8,1
-0.0004042526,-0.0004997091,8,1
-0.0004115456,-0.0004395829,8,1
-0.0004128421,-0.0003771877,8,1
-0.0004010113,-0.0003086341,8,1
-0.0003797808,-0.0002324634,8,1
-0.0003436402,-0.0001551583,8,1
-0.0002713591,-8.190475e-05,8,1
-0.0001468929,-1.99958e-05,8,1
3.445814e-05,2.862379e-05,8,1
0.0002754493,6.962632e-05,8,1
0.0005739738,0.0001101427,8,1
0.0009159319,0.000155683,8,1
0.001270207,0.0002043026,8,1
0.001597256,0.0002560015,8,1
0.001867581,0.0003111037,8,1
0.00208086,0.0003752816,8,1
0.002247464,0.0004521006,8,1
0.002369013,0.0005381573,8,1
0.002436595,0.0006227554,8,1
0.002434326,0.0006913091,8,1
0.002355076,0.0007246946,8,1
0.002205975,0.0007052467,8,1
0.002006958,0.0006371793,8,1
0.001763859,0.000542371,8,1
0.001471493,0.0004389733,8,1
0.001138934,0.0003328204,8,1
0.000809779,0.0002104611,8,1
0.0005354022,4.564065e-05,8,1
0.0003378445,-0.000176875,8,1
0.0002020337,-0.0004413656,8,1
8.518459e-05,-0.0007087733,8,1
-4.80331e-05,-0.0009304786,8,1
-0.0002062088,-0.0010671,8,1
-0.0003742705,-0.001100809,8,1
-0.0005277464,-0.00104749,8,1
-0.0006402197,-0.0009361509,8,1
-0.0007024527,-0.000799854,8,1
-0.0007236833,-0.0006651777,8,1
-0.0007173628,-0.000541846,8,1
-0.0006988873,-0.0004253211,8,1
-0.0006838153,-0.0003039342,8,1
-0.000685436,-0.0001762268,8,1
-0.0007086112,-5.013995e-05,8,1
-0.0007488034,6.687121e-05,8,1
-0.0008009885,0.0001697827,8,1
-0.0008583596,0.0002558394,8,1
-0.0009077895,0.0003279585,8,1
-0.0009259408,0.000388895,8,1
-0.0008933656,0.0004294114,8,1
-0.0008026091,0.0004370285,8,1
-0.0006601537,0.000423415,8,1
-0.0004867439,0.0004179048,8,1
-0.000318358,0.0004370285,8,1
-0.0001948643,0.0004678209,8,1
-0.000144624,0.000475438,8,1
-0.0001789819,0.0004289252,8,1
-0.0002773555,0.0003261758,8,1
-0.0004037664,0.0001893926,8,1
-0.0005468701,5.730935e-05,8,1
-0.000747831,-3.344723e-05,8,1
-0.001048462,-6.197072e-05,8,1
-0.001417161,-2.339918e-05,8,1
-0.001754905,6.703327e-05,8,1
-0.001968021,0.0001798307,8,1
-0.002016803,0.0002825802,8,1
-0.001901736,0.0003558337,8,1
-0.001641945,0.0003991052,8,1
-0.001272274,0.0004196875,8,1
-0.0008230293,0.0004237391,8,1
-0.000325651,0.0004222805,8,1
0.0001790204,0.0004247115,8,1
0.0006412309,0.000435894,8,1
0.001017061,0.0004546936,8,1
0.001276204,0.0004756001,8,1
0.00142109,0.0004924549,8,1
0.001476517,0.0005049339,8,1
0.001491751,0.0005188715,8,1
0.001521409,0.0005371849,8,1
0.001597904,0.0005503122,8,1
0.001716698,0.0005331332,8,1
0.001846513,0.000462959,8,1
0.001942294,0.0003352514,8,1
0.0019632,0.000168162,8,1
0.001887029,-7.840905e-06,8,1
0.001725125,-0.0001605064,8,1
0.001513468,-0.0002695764,8,1
0.001302296,-0.0003314853,8,1
0.001131479,-0.0003543365,8,1
0.001017709,-0.000355471,8,1
0.000948669,-0.0003485022,8,1
0.0008903255,-0.0003407231,8,1
0.0007948689,-0.0003345645,8,1
0.0006144901,-0.000335537,8,1
0.0003320101,-0.0003497987,8,1
-2.323711e-05,-0.0003815635,8,1
-0.0003843186,-0.0004271038,8,1
-0.0006817085,-0.000477182,8,1
-0.000876673,-0.0005236948,8,1
-0.0009625676,-0.0005552975,8,1
-0.0009555988,-0.0005627525,8,1
-0.0008802384,-0.0005450874,8,1
-0.0007598239,-0.0005053814,8,1
-0.0006146134,-0.0004543308,8,1
-0.0004616237,-0.000405063,8,1
-0.0003164132,-0.0003642225,8,1
-0.0001969711,-0.000330675,8,1
-0.0001157764,-0.0002997205,8,1
-7.866345e-05,-0.0002640662,8,1
-8.741498e-05,-0.0002188499,8,1
-0.0001329553,-0.0001676373,8,1
-0.000201671,-0.0001211246,8,1
-0.0002802727,-9.017008e-05,8,1
-0.0003608192,-7.817725e-05,8,1
-0.0004402311,-7.817725e-05,8,1
-0.0005129984,-7.120844e-05,8,1
-0.0005668041,-4.43056e-05,8,1
-0.0005925725,4.47606e-06,8,1
-0.0006024585,6.622294e-05,8,1
-0.0006382749,0.0001273216,8,1
-0.0007415105,0.0001765894,8,1
-0.0009094102,0.0002065715,8,1
-0.001104537,0.0002192126,8,1
-0.001288481,0.0002234263,8,1
-0.001438229,0.0002273159,8,1
-0.001537413,0.0002337985,8,1
-0.001588302,0.0002367157,8,1
-0.001609208,0.0002316917,8,1
-0.001609208,0.0002158093,8,1
-0.001577443,0.0001842065,8,1
-0.001484094,0.000128456,8,1
-0.00130647,5.358185e-05,8,1
-0.001052838,-1.756482e-05,8,1
-0.000747669,-6.748094e-05,8,1
-0.0004078181,-9.081835e-05,8,1
-3.620233e-05,-8.984595e-05,8,1
0.000366368,-6.586029e-05,8,1
0.0007903311,-2.437157e-05,8,1
0.001201329,2.748934e-05,8,1
0.001551715,8.356394e-05,8,1
0.001803079,0.0001423936,8,1
0.001926573,0.0002065715,8,1
0.00191377,0.0002785285,8,1
0.001778931,0.0003636129,8,1
0.001563384,0.00046069,8,1
0.001320123,0.0005506363,8,1
0.001093718,0.0006039558,8,1
0.0009133389,0.0005965008,8,1
0.0008063756,0.0005255162,8,1
0.0007911414,0.0004070464,8,1
0.0008676364,0.0002689667,8,1
0.001002961,0.0001378558,8,1
0.0011331,2.943412e-05,8,1
0.001182854,-4.787104e-05,8,1
0.001100524,-9.211487e-05,8,1
0.0008822222,-0.0001115627,8,1
0.0005799701,-0.0001173971,8,1
0.0002869559,-0.0001141558,8,1
8.79397e-05,-0.0001028112,8,1
1.517237e-05,-8.141856e-05,8,1
4.077869e-05,-5.500191e-05,8,1
9.766362e-05,-3.425755e-05,8,1
0.000118408,-4.041603e-05,8,1
5.811968e-05,-9.260107e-05,8,1
-8.757704e-05,-0.0001880575,8,1
-0.0002833519,-0.0003047445,8,1
-0.0004788027,-0.000415111,8,1
-0.0006326026,-0.000496954,8,1
-0.0007256281,-0.0005462218,8,1
-0.0007622549,-0.0005685869,8,1
-0.0007646859,-0.000574097,8,1
-0.0007533412,-0.0005693972,8,1
-0.0007408622,-0.0005554595,8,1
-0.0007329211,-0.0005316359,8,1
-0.0007324349,-0.0004990608,8,1
-0.0007363244,-0.0004625961,8,1
-0.000730328,-0.0004334244,8,1
-0.0006969426,-0.0004164075,8,1
-0.0006313061,-0.000410087,8,1
-0.0005394151,-0.0004032803,8,1
-0.0004355313,-0.0003820497,8,1
-0.000335537,-0.0003507711,8,1
-0.0002556388,-0.0003288923,8,1
-0.000209126,-0.0003240303,8,1
-0.0002028055,-0.0003318095,8,1
-0.0002271153,-0.0003400748,8,1
-0.0002473734,-0.0003412093,8,1
-0.0002206326,-0.0003290543,8,1
-0.0001128592,-0.0002956689,8,1
8.534666e-05,-0.0002392702,8,1
0.0003589129,-0.0001655305,8,1
0.0006647304,-8.158062e-05,8,1
0.0009357039,2.531276e-06,8,1
0.001101335,7.57848e-05,8,1
0.001127103,0.0001312112,8,1
0.001036022,0.0001722137,8,1
0.0008861118,0.0002065715,8,1
0.0007327979,0.0002402811,8,1
0.0005990939,0.0002756114,8,1
0.0004713863,0.0003122381,8,1
0.0003287688,0.0003537269,8,1
0.0001676758,0.00040105,8,1
1.436204e-05,0.000458097,8,1
-9.389759e-05,0.0005287575,8,1
-0.0001363587,0.0006149763,8,1
-0.0001169109,0.0007102708,8,1
-5.240886e-05,0.0008015137,8,1
3.494434e-05,0.0008713639,8,1
0.0001315353,0.0009141492,8,1
0.0002213195,0.0009404037,8,1
0.0002848491,0.0009711962,8,1
0.0002947351,0.001011875,8,1
0.0002088404,0.001048664,8,1
1.031041e-05,0.001058387,8,1
-0.0002684419,0.001021599,8,1
-0.0005674524,0.0009337591,8,1
-0.0008306464,0.0007969757,8,1
-0.001023666,0.0006227554,8,1
-0.001141164,0.0004324906,8,1
-0.001200642,0.0002459534,8,1
-0.001233541,7.983644e-05,8,1
-0.001275191,-5.629844e-05,8,1
-0.001356062,-0.0001611547,8,1
-0.001481339,-0.000238946,8,1
-0.001625901,-0.0002946965,8,1
-0.001752474,-0.0003329439,8,1
-0.001834965,-0.0003551469,8,1
-0.001851496,-0.0003656811,8,1
-0.001783104,-0.0003695707,8,1
-0.001620715,-0.0003716775,8,1
-0.001365138,-0.0003708672,8,1
-0.001031931,-0.0003658432,8,1
-0.000648485,-0.0003549848,8,1
-0.0002473734,-0.0003334301,8,1
0.0001294284,-0.0003021515,8,1
0.0004336251,-0.0002664971,8,1
0.0006386379,-0.0002303566,8,1
0.0007584042,-0.0001969711,8,1
0.0008261476,-0.000174282,8,1
0.0008630985,-0.0001682856,8,1
0.0008870842,-0.0001789819,8,1
0.000923711,-0.0002018331,8,1
0.001017547,-0.0002292221,8,1
0.001209595,-0.0002540181,8,1
0.001497099,-0.0002695764,8,1
0.001834358,-0.0002716832,8,1
0.002159786,-0.0002580697,8,1
0.002397537,-0.0002319772,8,1
0.002476463,-0.000201509,8,1
0.002375658,-0.0001737958,8,1
0.002148604,-0.0001527273,8,1
0.001884436,-0.000144624,8,1
0.001656734,-0.0001522411,8,1
0.00148932,-0.00016942,8,1
0.001367933,-0.00018433,8,1
0.001260645,-0.0001882196,8,1
0.001137475,-0.0001770371,8,1
0.0009911302,-0.0001566169,8,1
0.0008285785,-0.0001318209,8,1
0.0006600305,-0.0001063766,8,1
0.0004849998,-7.428769e-05,8,1
0.0002981384,-2.955766e-05,8,1
0.0001078737,2.943412e-05,8,1
-7.396356e-05,9.928428e-05,8,1
-0.0002392702,0.0001725378,8,1
-0.000385291,0.000239957,8,1
-0.0005131605,0.0002890628,8,1
-0.0006238511,0.0003122381,8,1
-0.0007118525,0.0003075383,8,1
-0.0007687375,0.0002816078,8,1
-0.000787375,0.0002419018,8,1
-0.0007740856,0.0001863134,8,1
-0.0007530171,0.0001022015,8,1
-0.0007560964,-2.145439e-05,8,1
-0.0008068228,-0.0001759026,8,1
-0.0008883416,-0.0003295405,8,1
-0.0009371233,-0.0004437966,8,1
-0.0008919071,-0.0004911196,8,1
-0.0007256281,-0.0004694029,8,1
-0.0004630823,-0.0003950149,8,1
-0.0001601823,-0.0002862691,8,1
0.0001365593,-0.0001635857,8,1
0.0003960259,-4.38194e-05,8,1
0.0006097901,5.795762e-05,8,1
0.000775259,0.0001320215,8,1
0.0008788189,0.0001717275,8,1
0.0008950254,0.0001707551,8,1
0.0008058894,0.0001281319,8,1
0.0006101143,5.050261e-05,8,1
0.0003313618,-5.062615e-05,8,1
1.679302e-05,-0.000166989,8,1
-0.0002773555,-0.0002906449,8,1
-0.0005186707,-0.0004154351,8,1
-0.0006920806,-0.0005248293,8,1
-0.0008107124,-0.0005963,8,1
-0.000921565,-0.000608779,8,1
-0.001080713,-0.0005582146,8,1
-0.001319273,-0.0004554653,8,1
-0.001625415,-0.0003180339,8,1
-0.001945494,-0.0001540238,8,1
-0.002195885,3.040651e-05,8,1
-0.002307062,0.0002329882,8,1
-0.002270597,0.0004546936,8,1
-0.002119714,0.000696009,8,1
-0.001891688,0.0009428347,8,1
-0.001619904,0.001161785,8,1
-0.001348607,0.001305862,8,1
-0.00111734,0.001337626,8,1
-0.0009275614,0.001253839,8,1
-0.0007488034,0.001088208,8,1
-0.0005481666,0.0008953495,8,1
-0.0003186821,0.0007271256,8,1
-7.493595e-05,0.0006033076,8,1
0.0001662173,0.0005104441,8,1
0.00038614,0.0004203358,8,1
0.0005681394,0.0003196932,8,1
0.0006976296,0.0002140265,8,1
0.000772666,0.0001213252,8,1
0.0008183684,5.082674e-05,8,1
0.0008796292,-9.785688e-06,8,1
0.0009966405,-8.871149e-05,8,1
0.001182043,-0.0001964849,8,1
0.001424818,-0.0003147926,8,1
0.001697736,-0.0004178661,8,1
0.00197811,-0.0004835025,8,1
0.00225654,-0.0005078124,8,1
0.002510983,-0.0004966299,8,1
0.00269736,-0.0004585445,8,1
0.00278212,-0.0004057112,8,1
0.002745655,-0.0003416954,8,1
0.002596554,-0.000268604,8,1
0.002364151,-0.0001893541,8,1
0.002084101,-0.0001157764,8,1
0.001776987,-6.099833e-05,8,1
0.001441997,-3.360929e-05,8,1
0.001057091,-3.344723e-05,8,1
0.0006036317,-4.965376e-05,8,1
0.0001018773,-7.363943e-05,8,1
-0.0003848048,-9.746302e-05,8,1
-0.000772627,-0.0001135075,8,1
-0.001007136,-0.0001096179,8,1
-0.001088654,-7.218083e-05,8,1
-0.001067748,3.341602e-06,8,1
-0.001023666,0.0001091703,8,1
-0.00102399,0.0002281262,8,1
-0.001088816,0.0003438409,8,1
-0.0011927,0.0004610142,8,1
-0.001288643,0.0005948802,8,1
-0.00134018,0.0007537043,8,1
-0.001331104,0.0009156077,8,1
-0.001264495,0.001028081,8,1
-0.001151374,0.001040236,8,1
-0.001005839,0.0009321384,8,1
-0.0008390738,0.0007284221,8,1
-0.0006632329,0.0004825689,8,1
-0.0004953333,0.0002485465,8,1
-0.0003569296,5.163707e-05,8,1
-0.0002720074,-0.0001130213,8,1
-0.0002554767,-0.0002721694,8,1
-0.0003039342,-0.0004525481,8,1
-0.0003955011,-0.0006674466,8,1
-0.0004916058,-0.0009026034,8,1
-0.0005548113,-0.001129495,8,1
-0.0005700454,-0.001319273,8,1
-0.0005463839,-0.001453463,8,1
-0.0005016539,-0.001527527,8,1
-0.0004624341,-0.001544058,8,1
-0.0004528722,-0.00151359,8,1
-0.0004904714,-0.001448439,8,1
-0.0005771763,-0.001353793,8,1
-0.0006948357,-0.001237106,8,1
-0.0008094159,-0.001104537,8,1
-0.0008851003,-0.0009632158,8,1
-0.0009008207,-0.0008176812,8,1
-0.0008575493,-0.0006687432,8,1
-0.0007672789,-0.0005196431,8,1
-0.0006330888,-0.0003775118,8,1
-0.0004569239,-0.0002470493,8,1
-0.0002509389,-0.0001289037,8,1
-3.490581e-05,-2.84232e-05,8,1
0.0001657311,4.985435e-05,8,1
0.0003148312,0.0001094944,8,1
0.0003760919,0.0001551968,8,1
0.000339141,0.0001898788,8,1
0.0002120818,0.0002164575,8,1
2.311357e-05,0.000239957,8,1
-0.0001911368,0.0002628082,8,1
-0.0003849669,0.000287118,8,1
-0.0005034366,0.0003151553,8,1
-0.0005151053,0.000346596,8,1
-0.0004337485,0.0003759298,8,1
-0.0003180339,0.000391164,8,1
-0.000246401,0.0003773884,8,1
-0.000266011,0.0003299033,8,1
-0.0003702189,0.000254867,8,1
-0.0005008436,0.0001696206,8,1
-0.0005786349,9.928428e-05,8,1
-0.0005480045,6.816773e-05,8,1
-0.0004097628,8.340187e-05,8,1
-0.0002005366,0.0001323456,8,1
4.077869e-05,0.0001887444,8,1
0.0002927903,0.000234933,8,1
0.0005603603,0.0002644289,8,1
0.0008562917,0.0002835526,8,1
0.001188688,0.0002981384,8,1
0.00153794,0.0003107795,8,1
0.001839058,0.0003172622,8,1
0.002019275,0.0003133726,8,1
0.00204164,0.000299597,8,1
0.001928032,0.0002756114,8,1
0.001744087,0.0002386605,8,1
0.00156306,0.0001846927,8,1
0.001434056,0.0001175977,8,1
0.001360154,5.050261e-05,8,1
0.001303917,-5.479652e-07,8,1
0.001241522,-1.724069e-05,8,1
0.001176371,9.66215e-06,8,1
0.001114948,6.897806e-05,8,1
0.001039912,0.0001474177,8,1
0.0009151215,0.0002367157,8,1
0.0007196706,0.0003321722,8,1
0.0004757621,0.0004273046,8,1
0.0002462775,0.0005167646,8,1
8.761557e-05,0.0005922872,8,1
2.165498e-05,0.0006511169,8,1
3.024445e-05,0.0006851507,8,1
5.779555e-05,0.0006828817,8,1
4.110282e-05,0.0006397723,8,1
-5.370539e-05,0.000564574,8,1
-0.0002096122,0.0004736553,8,1
-0.000382698,0.0003901916,8,1
-0.0005280706,0.0003378445,8,1
-0.000623527,0.000326824,8,1
-0.0006650157,0.0003501615,8,1
-0.0006535091,0.0003944053,8,1
-0.0005964621,0.0004477248,8,1
-0.0005047331,0.0004958582,8,1
-0.0003906392,0.0005303781,8,1
-0.000276221,0.0005452881,8,1
-0.0001893541,0.0005405883,8,1
-0.0001580754,0.0005271368,8,1
-0.0001951884,0.0005170888,8,1
-0.0002844864,0.0005120648,8,1
-0.0003906392,0.0004982892,8,1
-0.0004802613,0.0004495075,8,1
-0.0005423322,0.0003504856,8,1
-0.0005760419,0.0002044647,8,1
-0.0005800935,3.624086e-05,8,1
-0.000546546,-0.0001214487,8,1
-0.0004737787,-0.0002455907,8,1
-0.0003647087,-0.000335537,8,1
-0.0002178775,-0.000410087,8,1
-4.090223e-05,-0.0004831784,8,1
0.0001370455,-0.0005569181,8,1
0.0002785285,-0.0006204477,8,1
0.0003603715,-0.0006585331,8,1
0.0003778746,-0.0006625847,8,1
0.0003422202,-0.0006317923,8,1
0.0002649151,-0.0005752315,8,1
0.0001517934,-0.0005011677,8,1
4.962256e-06,-0.000417542,8,1
-0.000174444,-0.0003340784,8,1
-0.000385291,-0.0002624455,8,1
-0.0006056998,-0.000211557,8,1
-0.0007993678,-0.0001846542,8,1
-0.000936313,-0.0001759026,8,1
-0.001012484,-0.0001712027,8,1
-0.001044248,-0.0001601823,8,1
-0.001059969,-0.0001360346,8,1
-0.001080065,-9.389759e-05,8,1
-0.001104699,-2.534396e-05,8,1
-0.001119933,7.30297e-05,8,1
-0.001104861,0.0001987924,8,1
-0.001036145,0.0003303894,8,1
-0.0008985517,0.0004355699,8,1
-0.000710718,0.0004900239,8,1
-0.0005207775,0.0004909963,8,1
-0.0003724878,0.0004577728,8,1
-0.0002901587,0.0004187151,8,1
-0.0002663351,0.0003922984,8,1
-0.0002590421,0.0003736609,8,1
-0.0002135018,0.000341572,8,1
-8.093236e-05,0.0002644289,8,1
0.0001524417,0.0001248906,8,1
0.0004519385,-6.958779e-05,8,1
0.0007705591,-0.0002812451,8,1
0.001110735,-0.0004677822,8,1
0.001507795,-0.000601162,8,1
0.001979407,-0.0006684191,8,1
0.002490887,-0.0006792775,8,1
0.002945483,-0.0006588572,8,1
0.003229424,-0.0006308199,8,1
0.003272533,-0.0006121824,8,1
0.003075136,-0.0006091032,8,1
0.002696711,-0.0006157478,8,1
0.002225585,-0.0006222305,8,1
0.001744087,-0.0006217443,8,1
0.001297272,-0.0006116962,8,1
0.0008857877,-0.0005922483,8,1
0.0004890515,-0.0005650214,8,1
7.772959e-05,-0.0005311498,8,1
-0.0003619536,-0.0004898231,8,1
-0.000807309,-0.0004444448,8,1
-0.001207772,-0.0004029561,8,1
-0.001510672,-0.0003744326,8,1
-0.00169332,-0.0003658432,8,1
-0.001765115,-0.000375405,8,1
-0.001759119,-0.0003966356,8,1
-0.001714227,-0.0004256453,8,1
-0.001655721,-0.0004611376,8,1
-0.001595919,-0.0004987367,8,1
-0.001542923,-0.0005264499,8,1
-0.001506621,-0.000526774,8,1
-0.001492197,-0.0004865818,8,1
-0.001481014,-0.0004094387,8,1
-0.001432395,-0.0003091203,8,1
-0.001321056,-0.0001998883,8,1
-0.001150077,-8.595638e-05,8,1
-0.0009291821,3.380988e-05,8,1
-0.0006632329,0.0001543865,8,1
-0.0003638984,0.0002676702,8,1
-5.532604e-05,0.000361506,8,1
0.0002148369,0.0004294114,8,1
0.0003785229,0.0004674968,8,1
0.0003867882,0.0004775448,8,1
0.0002384984,0.0004707381,8,1
-2.978945e-06,0.000455666,8,1
-0.0002303566,0.0004410801,8,1
-0.0003502849,0.0004316803,8,1
-0.000348016,0.0004311941,8,1
-0.0002754107,0.0004439973,8,1
-0.0001895161,0.0004683071,8,1
-0.0001128592,0.0005073649,8,1
-3.717473e-05,0.0005655463,8,1
4.82337e-05,0.0006420412,8,1
0.0001508211,0.0007358771,8,1
0.0002795009,0.0008438127,8,1
0.0004166082,0.0009590413,8,1
0.0005336195,0.001069408,8,1
0.0006060627,0.001170537,8,1
0.000634262,0.001257566,8,1
0.0006397723,0.001309103,8,1
0.0006485239,0.001293545,8,1
0.0006738061,0.001182368,8,1
0.0007211292,0.0009763823,8,1
0.0007914656,0.0007086502,8,1
0.0008663398,0.0004331389,8,1
0.0009078286,0.000200413,8,1
0.0008796292,3.494434e-05,8,1
0.0007859553,-6.0188e-05,8,1
0.0006828817,-9.66527e-05,8,1
0.0006447964,-9.260107e-05,8,1
0.0007089743,-7.072225e-05,8,1
0.000851916,-4.981582e-05,8,1
0.001014792,-3.879538e-05,8,1
0.001131155,-4.38194e-05,8,1
0.001166161,-6.650855e-05,8,1
0.001128238,-0.0001054042,8,1
0.001042829,-0.0001585616,8,1
0.0009159319,-0.0002227395,8,1
0.0007488423,-0.0003026377,8,1
0.0005559844,-0.0004143007,8,1
0.0003534027,-0.0005608077,8,1
0.000148228,-0.0007175248,8,1
-5.970181e-05,-0.0008539838,8,1
-0.0002635799,-0.0009520333,8,1
-0.0004486585,-0.001004705,8,1
-0.0005948414,-0.001013132,8,1
-0.0006920806,-0.0009837981,8,1
-0.0007484793,-0.0009270753,8,1
-0.0007755442,-0.0008502563,8,1
-0.0007812165,-0.0007617687,8,1
-0.0007682513,-0.00067085,8,1
-0.0007416725,-0.0005873864,8,1
-0.0007139594,-0.0005176983,8,1
-0.0007008321,-0.0004600031,8,1
-0.0007082871,-0.000410249,8,1
-0.0007314624,-0.0003621157,8,1
-0.0007583653,-0.00030831,8,1
-0.0007771649,-0.0002457528,8,1
-0.0007768407,-0.0001814128,8,1
-0.0007544757,-0.0001216107,8,1
-0.0007167145,-6.44017e-05,8,1
-0.0006731189,7.485573e-07,8,1
-0.0006358439,8.259155e-05,8,1
-0.0006147755,0.0001765894,8,1
-0.0006121824,0.000264753,8,1
-0.000621096,0.000341572,8,1
-0.0006342233,0.0004157979,8,1
-0.0006488092,0.0005047718,8,1
-0.0006672846,0.0006091419,8,1
-0.0006865704,0.0007104329,8,1
-0.0006946736,0.0007767176,8,1
-0.0006784671,0.0007866036,8,1
-0.0006206098,0.0007362012,8,1
-0.0005045711,0.0006362069,8,1
-0.0003264613,0.0005059062,8,1
-0.0001086455,0.0003710679,8,1
0.0001009049,0.000259891,8,1
0.0002501671,0.0001892305,8,1
0.0003122381,0.0001623277,8,1
0.0002960316,0.0001678379,8,1
0.0002278021,0.00018291,8,1
0.0001440143,0.0001845306,8,1
7.6271e-05,0.0001602208,8,1
3.753739e-05,0.0001145184,8,1
1.760335e-05,6.41161e-05,8,1
2.855407e-06,2.376183e-05,8,1
-1.237873e-05,-8.002969e-06,8,1
-2.745081e-05,-3.474375e-05,8,1
-4.268495e-05,-6.829127e-05,8,1
-6.423963e-05,-0.0001212866,8,1
-9.454585e-05,-0.0002011848,8,1
-0.0001240417,-0.000293562,8,1
-0.0001431655,-0.0003788084,8,1
-0.0001412206,-0.0004431483,8,1
-0.0001050801,-0.000489661,8,1
-2.42095e-05,-0.0005288809,8,1
9.26396e-05,-0.0005595111,8,1
0.000210137,-0.0005669662,8,1
0.0002960316,-0.0005399013,8,1
0.0003271482,-0.000477182,8,1
0.0002947351,-0.0003870737,8,1
0.0002192126,-0.0002822175,8,1
0.0001305629,-0.0001755785,8,1
4.985435e-05,-8.368748e-05,8,1
-3.858999e-07,-2.210265e-05,8,1
-7.100305e-07,1.072688e-06,8,1
5.925414e-05,-2.275091e-05,8,1
0.0001795066,-8.903562e-05,8,1
0.0003444891,-0.0001796301,8,1
0.0005222749,-0.0002681178,8,1
0.0006738061,-0.0003303509,8,1
0.0007652109,-0.0003544986,8,1
0.0007861174,-0.00033813,8,1
0.0007399287,-0.0002914552,8,1
0.0006399344,-0.000223874,8,1
0.0005166026,-0.0001413827,8,1
0.0003991052,-4.706071e-05,8,1
0.0003017039,5.682316e-05,8,1
0.0002206712,0.000162976,8,1
0.0001399627,0.0002678322,8,1
4.02925e-05,0.0003749574,8,1
-9.341139e-05,0.0004890515,8,1
-0.0002664971,0.0006102764,8,1
-0.0004638926,0.000718212,8,1
-0.0006457299,0.0007882243,8,1
-0.0007518827,0.0008128582,8,1
-0.0007321107,0.0007985964,8,1
-0.0005755557,0.0007486803,8,1
-0.000328244,0.0006699165,8,1
-7.347736e-05,0.0005791598,8,1
0.0001163011,0.0004989374,8,1
0.0002130541,0.0004486972,8,1
0.000234933,0.0004344354,8,1
0.0002318537,0.0004579349,8,1
0.0002509774,0.000512551,8,1
0.0003159656,0.0005864528,8,1
0.0004078567,0.0006567892,8,1
0.0004866205,0.0006874196,8,1
0.0005217887,0.0006462549,8,1
0.000507689,0.0005285954,8,1
0.0004585832,0.0003597233,8,1
0.000393595,0.0001796687,8,1
0.0003101313,2.165498e-05,8,1
0.000170593,-0.0001008664,8,1
-5.532604e-05,-0.0001948643,8,1
-0.0003457471,-0.0002799486,8,1
-0.0006199615,-0.0003776739,8,1
-0.0007839716,-0.0005023021,8,1
-0.0007757063,-0.0006528608,8,1
-0.0005817142,-0.0008077952,8,1
-0.0002347323,-0.0009366371,8,1
0.0002051129,-0.001010377,8,1
0.0006695924,-0.001017021,8,1
0.001093718,-0.0009598124,8,1
0.001434542,-0.0008522011,8,1
0.001679747,-0.0007147697,8,1
0.00183533,-0.0005656697,8,1
0.001900643,-0.0004248349,8,1
0.001876657,-0.0003023136,8,1
0.001775042,-0.0002010227,8,1
0.001628859,-0.0001182074,8,1
0.001473924,-5.143648e-05,8,1
0.001330496,2.623614e-07,8,1
0.001206839,3.850978e-05,8,1
0.001097121,6.233338e-05,8,1
0.000975572,6.881599e-05,8,1
0.0008086445,5.682316e-05,8,1
0.0005858046,3.429608e-05,8,1
0.0003196932,1.419998e-05,8,1
3.429608e-05,6.420843e-06,8,1
-0.0002368392,1.047248e-05,8,1
-0.0004619479,2.359977e-05,8,1
-0.000616072,4.758544e-05,8,1
-0.0006752257,8.340187e-05,8,1
-0.0006202856,0.0001286181,8,1
-0.0004569239,0.0001752929,8,1
-0.0002241981,0.0002143507,8,1
6.90704e-06,0.0002383363,8,1
0.0001537382,0.0002462775,8,1
0.000148228,0.0002456293,8,1
-2.89094e-05,0.0002430362,8,1
-0.0003394265,0.0002417397,8,1
-0.0007065044,0.0002373639,8,1
-0.001053162,0.0002269918,8,1
-0.001329808,0.0002104611,8,1
-0.001525907,0.0001895547,8,1
-0.001653776,0.0001675138,8,1
-0.00172703,0.0001440143,8,1
-0.001745505,0.000118408,8,1
-0.001704665,9.31258e-05,8,1
-0.001604508,7.448828e-05,8,1
-0.001454112,6.508849e-05,8,1
-0.001270978,6.346784e-05,8,1
-0.001081523,6.281957e-05,8,1
-0.0009132997,5.828175e-05,8,1
-0.0007797579,5.212327e-05,8,1
-0.0006812222,4.677511e-05,8,1
-0.0006044033,3.802358e-05,8,1
-0.0005322842,2.165498e-05,8,1
-0.0004625961,-4.113403e-06,8,1
-0.0004194868,-4.090223e-05,8,1
-0.0004335865,-8.433573e-05,8,1
-0.0005136467,-0.000127121,8,1
-0.0006405439,-0.0001590478,8,1
-0.000772465,-0.0001807646,8,1
-0.0008564148,-0.0001981056,8,1
-0.0008531735,-0.0002151224,8,1
-0.0007449139,-0.000233922,8,1
-0.0005527044,-0.0002519113,8,1
-0.0003217614,-0.0002596904,8,1
-0.0001034594,-0.0002520733,8,1
5.666109e-05,-0.0002301945,8,1
0.0001375317,-0.0001997262,8,1
0.00015309,-0.0001695821,8,1
0.0001342904,-0.0001447861,8,1
0.0001054428,-0.0001258245,8,1
7.951231e-05,-0.0001071869,8,1
4.272347e-05,-8.595638e-05,8,1
-3.21507e-05,-5.970181e-05,8,1
-0.0001533756,-3.134038e-05,8,1
-0.0002695764,-5.734056e-06,8,1
-0.0002956689,1.582063e-05,8,1
-0.0001656925,4.013043e-05,8,1
0.0001342904,7.708133e-05,8,1
0.0005655463,0.000130887,8,1
0.001051581,0.0001934442,8,1
0.001498396,0.0002509774,8,1
0.00181021,0.0002926282,8,1
0.001924466,0.0003135347,8,1
0.001842461,0.0003164518,8,1
0.001638582,0.0003098072,8,1
0.001405046,0.0002992729,8,1
0.001202788,0.0002837146,8,1
0.001040722,0.0002594049,8,1
0.0008968081,0.000225209,8,1
0.0007488423,0.0001848548,8,1
0.0005828873,0.0001480659,8,1
0.0003952156,0.0001227837,8,1
0.000185341,0.0001148425,8,1
-1.950961e-05,0.0001229458,8,1
-0.0001739578,0.0001427178,8,1
-0.0002329496,0.0001701068,8,1
-0.0001853024,0.0001997648,8,1
-5.565017e-05,0.0002239125,8,1
0.0001187321,0.0002412535,8,1
0.0003252034,0.0002514636,8,1
0.0005705704,0.0002545429,8,1
0.0008506195,0.0002521119,8,1
0.001126779,0.0002430362,8,1
0.001339085,0.0002237505,8,1
0.001419632,0.0001934442,8,1
0.001328551,0.0001551968,8,1
0.001073622,0.0001150046,8,1
0.0007094605,7.918817e-05,8,1
0.0003098072,5.390598e-05,8,1
-6.326724e-05,4.142696e-05,8,1
-0.0003650328,3.624086e-05,8,1
-0.0005802555,2.084466e-05,8,1
-0.0007128249,-2.145439e-05,8,1
-0.0007857543,-8.644259e-05,8,1
-0.0008218948,-0.0001538618,8,1
-0.0008364808,-0.0002073433,8,1
-0.000847015,-0.0002366771,8,1
-0.0008654904,-0.0002405667,8,1
-0.0008894761,-0.0002193361,8,1
-0.0009186479,-0.0001831956,8,1
-0.000956247,-0.0001583996,8,1
-0.001018642,-0.0001755785,8,1
-0.001116854,-0.0002420253,8,1
-0.001243589,-0.0003410472,8,1
-0.001369027,-0.000439907,8,1
-0.001462701,-0.0005074882,8,1
-0.001516993,-0.0005248293,8,1
-0.001521693,-0.0004873921,8,1
-0.001455894,-0.0004081422,8,1
-0.00129707,-0.0003144685,8,1
-0.001055107,-0.0002429977,8,1
-0.0007735994,-0.0002144742,8,1
-0.0004995471,-0.0002287359,8,1
-0.0002676316,-0.0002630937,8,1
-9.000802e-05,-0.0002899966,8,1
3.850978e-05,-0.0002890242,8,1
0.0001265113,-0.0002532078,8,1
0.0001812893,-0.0001900023,8,1
0.0002099749,-0.000107349,8,1
0.0002161334,-1.237873e-05,8,1
0.000205275,9.442231e-05,8,1
0.0001770756,0.0002115956,8,1
0.0001242423,0.0003333067,8,1
4.272347e-05,0.0004392974,8,1
-3.830919e-05,0.0005091476,8,1
-7.056019e-05,0.0005323229,8,1
-2.064406e-05,0.0005162785,8,1
0.0001106288,0.0004856481,8,1
0.000284525,0.0004666864,8,1
0.0004511282,0.000477869,8,1
0.0005747841,0.0005104441,8,1
0.0006345862,0.0005355643,8,1
0.0006255105,0.0005227611,8,1
0.000564574,0.0004514523,8,1
0.000482893,0.0003279585,8,1
0.0004091532,0.0001840444,8,1
0.0003499994,5.828175e-05,8,1
0.000294573,-2.712668e-05,8,1
0.0002156472,-6.764301e-05,8,1
9.247754e-05,-7.363943e-05,8,1
-7.137051e-05,-5.483985e-05,8,1
-0.0002558008,-1.918548e-05,8,1
-0.0004331002,2.457216e-05,8,1
-0.0005742591,6.152305e-05,8,1
-0.0006622606,7.643307e-05,8,1
-0.0006951598,6.184718e-05,8,1
-0.0006849497,2.408596e-05,8,1
-0.0006518884,-2.031993e-05,8,1
-0.0006146134,-5.889148e-05,8,1
-0.0005770142,-8.952183e-05,8,1
-0.0005245051,-0.000112373,8,1
-0.0004429862,-0.0001269589,8,1
-0.0003373197,-0.0001350622,8,1
-0.0002194982,-0.0001405724,8,1
-9.811128e-05,-0.0001472171,8,1
1.889987e-05,-0.0001558065,8,1
0.0001279698,-0.0001660166,8,1
0.0002391467,-0.0001786577,8,1
0.0003668542,-0.0001848162,8,1
0.0005128751,-0.0001721751,8,1
0.0006554927,-0.0001289037,8,1
0.0007661834,-5.743289e-05,8,1
0.0008203132,1.906194e-05,8,1
0.0008094548,7.351589e-05,8,1
0.000750463,8.826383e-05,8,1
0.0006755888,6.087479e-05,8,1
0.0006185417,-3.303076e-06,8,1
0.0006002283,-8.887356e-05,8,1
0.0006250244,-0.0001771992,8,1
0.0006788301,-0.0002558008,8,1
0.0007407391,-0.0003173856,8,1
0.0007997309,-0.0003595226,8,1
0.0008509436,-0.0003885323,8,1
0.0008912979,-0.0004074939,8,1
0.0009204697,-0.0004149489,8,1
0.0009305178,-0.0004133283,8,1
0.0009102596,-0.0004303451,8,1
0.0008566159,-0.0004886886,8,1
0.0007830382,-0.0005859278,8,1
0.0007271256,-0.0006959701,8,1
0.0007399287,-0.0007833233,8,1
0.0008637467,-0.0008180053,8,1
0.00110328,-0.000787375,8,1
0.001412501,-0.0006988873,8,1
0.001714753,-0.0005687489,8,1
0.001935649,-0.0004194868,8,1
0.00202592,-0.0002746004,8,1
0.001954125,-0.0001507825,8,1
0.001721398,-6.164659e-05,8,1
0.00136064,-6.544382e-06,8,1
0.0009217662,2.635488e-05,8,1
0.0004545315,5.406805e-05,8,1
7.485573e-07,8.956036e-05,8,1
-0.0004099249,0.0001329939,8,1
-0.0007627411,0.0001736723,8,1
-0.001054297,0.0002059233,8,1
-0.001278109,0.0002312055,8,1
-0.001439526,0.0002666978,8,1
-0.001550865,0.0003373583,8,1
-0.001620229,0.0004553419,8,1
-0.001654424,0.000606873,8,1
-0.001658476,0.000750463,8,1
-0.001629628,0.0008527263,8,1
-0.001569178,0.0009107458,8,1
-0.001489442,0.0009408899,8,1
-0.001405654,0.0009595275,8,1
-0.001314736,0.0009639032,8,1
-0.001212472,0.0009318143,8,1
-0.001100161,0.0008300372,8,1
-0.0009936841,0.0006366931,8,1
-0.0009071412,0.0003603715,8,1
-0.0008308084,4.434413e-05,8,1
-0.0007298418,-0.0002535319,8,1
-0.0005857658,-0.0004779923,8,1
-0.000417542,-0.0006022964,8,1
-0.00027849,-0.0006322784,8,1
-0.0002203085,-0.0005922483,8,1
-0.000268604,-0.000509595,8,1
-0.0004053871,-0.0004123559,8,1
-0.000573935,-0.0003224097,8,1
-0.0007021286,-0.0002476975,8,1
-0.0007382692,-0.0001830335,8,1
-0.0006727948,-0.0001167488,8,1
-0.0005376324,-4.187462e-05,8,1
-0.0003728119,3.818565e-05,8,1
-0.0002073433,0.0001154908,8,1
-5.192267e-05,0.0001848548,8,1
0.0001158149,0.0002440086,8,1
0.0003355756,0.0002983005,8,1
0.0006187038,0.0003534027,8,1
0.0009258178,0.0004093153,8,1
0.001187067,0.0004623107,8,1
0.001339895,0.0005063924,8,1
0.001356912,0.0005407503,8,1
0.001248328,0.0005658705,8,1
0.001049636,0.0005848321,8,1
0.0008042688,0.0006005525,8,1
0.0005517708,0.0006114109,8,1
0.0003198552,0.0006112488,8,1
0.0001273216,0.0005890459,8,1
-2.437157e-05,0.0005287575,8,1
-0.0001397621,0.0004226047,8,1
-0.0002277635,0.0002819319,8,1
-0.0002977757,0.0001281319,8,1
-0.0003575778,-1.497178e-05,8,1
-0.0003956632,-0.0001285796,8,1
-0.0003882082,-0.0002049123,8,1
-0.0003170615,-0.0002496423,8,1
-0.0001810887,-0.0002729798,8,1
-2.583016e-05,-0.0002805968,8,1
5.909208e-05,-0.0002755728,8,1
1.322759e-05,-0.0002614731,8,1
-0.0001540238,-0.000241377,8,1
-0.0003739464,-0.0002157707,8,1
-0.0005729626,-0.0001835197,8,1
-0.000705532,-0.0001502963,8,1
-0.0007577171,-0.0001253383,8,1
-0.0007426449,-0.0001130213,8,1
-0.0006802498,-0.0001118868,8,1
-0.0005911139,-0.0001182074,8,1
-0.0004830164,-0.0001311726,8,1
-0.0003682741,-0.0001477033,8,1
-0.000271035,-0.0001645581,8,1
-0.0002031296,-0.0001801163,8,1
-0.0001629374,-0.0001945401,8,1
-0.0001399241,-0.0002110708,8,1
-0.0001133454,-0.0002276015,8,1
-6.180866e-05,-0.0002355427,8,1
2.408596e-05,-0.0002357047,8,1
0.0001349386,-0.0002340841,8,1
0.0002451431,-0.0002366771,8,1
0.000324231,-0.0002441321,8,1
0.0003498373,-0.0002554767,8,1
0.0003227724,-0.0002640662,8,1
0.0002652392,-0.0002666592,8,1
0.0002098128,-0.0002608248,8,1
0.0001884202,-0.000248832,8,1
0.0002278021,-0.0002436459,8,1
0.0003431926,-0.0002739521,8,1
0.0005294057,-0.0003575778,8,1
0.0007584042,-0.0004794509,8,1
0.0009796236,-0.0006048895,8,1
0.00113472,-0.000700508,8,1
0.001177181,-0.0007463724,8,1
0.001093556,-0.0007374589,8,1
0.0009058838,-0.0006770085,8,1
0.0006619753,-0.0005778245,8,1
0.0004169324,-0.0004556273,8,1
0.0002196988,-0.0003264613,8,1
8.826383e-05,-0.0002023193,8,1
2.34377e-05,-8.82253e-05,8,1
2.732727e-05,1.014835e-05,8,1
0.0001038221,9.069481e-05,8,1
0.0002446569,0.0001561692,8,1
0.0004177427,0.0002117576,8,1
0.0005650602,0.0002644289,8,1
0.0006318311,0.0003099692,8,1
0.0005932595,0.0003462718,8,1
0.0004593935,0.0003736609,8,1
0.0002684805,0.0004018603,8,1
6.606088e-05,0.0004435111,8,1
-0.0001141558,0.0005097958,8,1
-0.0002455907,0.000596987,8,1
-0.0003084721,0.0006892023,8,1
-0.0002990722,0.0007734763,8,1
-0.0002303566,0.0008485126,8,1
-0.0001188556,0.0009233868,8,1
1.9224e-05,0.001000692,8,1
0.0001701068,0.00106957,8,1
0.000319369,0.001102793,8,1
0.0004391353,0.001073946,8,1
0.0004932652,0.0009775168,8,1
0.0004436732,0.0008293889,8,1
0.0002634565,0.0006585719,8,1
-2.89094e-05,0.000495372,8,1
-0.0003595226,0.0003602095,8,1
-0.0006407059,0.0002529222,8,1
-0.0008168708,0.0001657311,8,1
-0.000874242,9.588091e-05,8,1
-0.0008298361,3.98063e-05,8,1
-0.0007113663,-5.085794e-06,8,1
-0.0005510838,-4.398147e-05,8,1
-0.0003788084,-7.947377e-05,8,1
-0.0002170672,-0.0001107524,8,1
-7.963584e-05,-0.0001318209,8,1
2.651694e-05,-0.0001415448,8,1
9.993253e-05,-0.0001477033,8,1
0.000133318,-0.0001674752,8,1
0.0001140322,-0.0002102605,8,1
3.397195e-05,-0.000276059,8,1
-8.773911e-05,-0.0003512573,8,1
-0.0002063709,-0.0004206212,8,1
-0.00027849,-0.0004715097,8,1
-0.0002755728,-0.0004922541,8,1
-0.0002008607,-0.0004799371,8,1
-9.049421e-05,-0.0004431483,8,1
-2.330684e-06,-0.00039777,8,1
1.403791e-05,-0.0003728119,8,1
-5.192267e-05,-0.0003895047,8,1
-0.000159534,-0.0004470379,8,1
-0.0002417012,-0.0005245051,8,1
-0.0002501286,-0.0005904656,8,1
-0.0001951884,-0.0006206098,8,1
-0.0001173971,-0.0006014861,8,1
-7.380149e-05,-0.0005327704,8,1
-0.0001214487,-0.0004296969,8,1
-0.0002887001,-0.0003125237,8,1
-0.000546546,-0.0001977815,8,1
-0.0008327533,-0.0001028112,8,1
-0.001075851,-4.446767e-05,8,1
-0.001223817,-2.84232e-05,8,1
-0.001252988,-4.171256e-05,8,1
-0.001165473,-6.359137e-05,8,1
-0.0009837981,-7.33153e-05,8,1
-0.000742807,-5.32192e-05,8,1
-0.0004817198,3.179537e-06,8,1
-0.0002358668,8.939829e-05,8,1
-3.020592e-05,0.0001913374,8,1
0.000118408,0.0002948972,8,1
0.000200251,0.0003918123,8,1
0.0002119197,0.0004731691,8,1
0.0001584381,0.0005379952,8,1
4.871989e-05,0.0005908285,8,1
-9.875954e-05,0.0006444722,8,1
-0.0002652006,0.0007242084,8,1
-0.0004280762,0.0008442989,8,1
-0.0005578905,0.0009820546,8,1
-0.0006330888,0.001084318,8,1
-0.0006578848,0.001096797,8,1
-0.0006479988,0.0009886993,8,1
-0.0006034309,0.0007639144,8,1
-0.0004963057,0.0004603659,8,1
-0.0002993964,0.0001346145,8,1
-2.566809e-05,-0.0001558065,8,1
0.0002773941,-0.0003771877,8,1
0.0005469088,-0.0005290429,8,1
0.0007387943,-0.0006338991,8,1
0.0008514298,-0.0007191455,8,1
0.0009100975,-0.0008026091,8,1
0.0009441312,-0.0008872072,8,1
0.0009762202,-0.0009620814,8,1
0.001020788,-0.001016049,8,1
0.001087559,-0.001042628,8,1
0.001183988,-0.001041655,8,1
0.0012822,-0.001010377,8,1
0.001307644,-0.0009528436,8,1
0.001189174,-0.0008755385,8,1
0.0009217662,-0.0007810544,8,1
0.0005717048,-0.0006703638,8,1
0.0002470879,-0.0005523803,8,1
3.575467e-05,-0.0004484965,8,1
-2.210265e-05,-0.0003750809,8,1
6.768154e-05,-0.0003314853,8,1
0.0002702632,-0.0003036101,8,1
0.0005177371,-0.000266173,8,1
0.0007190223,-0.000191785,8,1
0.0008003792,-6.731888e-05,8,1
0.0007574318,8.988449e-05,8,1
0.0006520892,0.0002386605,8,1
0.0005554983,0.0003438409,8,1
0.000509958,0.0003942432,8,1
0.0005131993,0.0004098015,8,1
0.0005376711,0.0004175806,8,1
0.0005652222,0.000428439,8,1
0.0005929354,0.0004345975,8,1
0.0006303725,0.0004217943,8,1
0.0006796404,0.000386302,8,1
0.0007342565,0.0003344411,8,1
0.0007832003,0.0002848491,8,1
0.0008125341,0.0002547049,8,1
0.00080751,0.0002525981,8,1
0.0007713694,0.0002730183,8,1
0.0007117294,0.0003038107,8,1
0.000626807,0.0003311998,8,1
0.0004994237,0.0003498373,8,1
0.0003185587,0.0003532407,8,1
9.847395e-05,0.0003380065,8,1
-0.0001101041,0.0003067279,8,1
-0.0002449425,0.0002642668,8,1
-0.000266173,0.0002198609,8,1
-0.0001872472,0.000187934,8,1
-6.861539e-05,0.0001772377,8,1
1.274139e-05,0.0001871237,8,1
5.610517e-06,0.0002107852,8,1
-0.0001058904,0.0002428742,8,1
-0.0003052308,0.0002767458,8,1
-0.000549301,0.0003052694,8,1
-0.000785106,0.0003239069,8,1
-0.0009756948,0.0003206656,8,1
-0.00111815,0.0002819319,8,1
-0.001224951,0.0002068957,8,1
-0.001307605,0.0001062531,8,1
-0.001372431,-7.678839e-06,8,1
-0.00141635,-0.000122259,8,1
-0.001435312,-0.000224036,8,1
-0.001425426,-0.0002990722,8,1
-0.00138491,-0.0003400748,8,1
-0.001316842,-0.0003510952,8,1
-0.001228679,-0.0003493125,8,1
-0.001131764,-0.0003544986,8,1
-0.001035821,-0.0003715154,8,1
-0.0009496023,-0.0004006872,8,1
-0.000876673,-0.0004421759,8,1
-0.0008180053,-0.0004859335,8,1
-0.0007643617,-0.0005188328,8,1
-0.0007068285,-0.0005256396,8,1
-0.0006429748,-0.0004967919,8,1
-0.0005817142,-0.0004347209,8,1
-0.0005313118,-0.0003483401,8,1
-0.0004903093,-0.0002498044,8,1
-0.0004510895,-0.0001506204,8,1
-0.0004157593,-7.023606e-05,8,1
-0.0003882082,-1.902341e-05,8,1
-0.0003694086,1.160693e-05,8,1
-0.0003397507,3.818565e-05,8,1
-0.0002749245,7.886404e-05,8,1
-0.000169258,0.0001414213,8,1
-3.766092e-05,0.0002237505,8,1
9.296373e-05,0.0003153174,8,1
0.0001924718,0.000401212,8,1
0.0002260194,0.0004658761,8,1
0.0001756171,0.0004838654,8,1
5.098881e-05,0.0004339493,8,1
-0.0001096179,0.0003203414,8,1
-0.0002582318,0.0001793446,8,1
-0.0003572537,6.346784e-05,8,1
-0.0003885323,7.23117e-06,8,1
-0.0003570916,1.711715e-05,8,1
-0.0002849726,7.384002e-05,8,1
-0.0001968091,0.0001519555,8,1
-0.0001086455,0.0002355812,8,1
-1.805102e-05,0.0003224483,8,1
8.712937e-05,0.0004138531,8,1
0.0002094887,0.0005080132,8,1
0.0003443271,0.0005948802,8,1
0.000497803,0.0006614891,8,1
0.0006835299,0.0006969814,8,1
0.0008968081,0.0007021675,8,1
0.001118352,0.0006882299,8,1
0.00133552,0.0006776956,8,1
0.001546205,0.0006853127,8,1
0.001743925,0.0007050846,8,1
0.00191847,0.0007063812,8,1
0.002050392,0.0006501445,8,1
0.00210987,0.0005195198,8,1
0.002064978,0.0003360618,8,1
0.001894971,0.0001488763,8,1
0.001602604,3.827799e-06,8,1
0.001217374,-7.866345e-05,8,1
0.0007768797,-0.0001044318,8,1
0.0003026763,-9.535618e-05,8,1
-0.0001951884,-8.174268e-05,8,1
-0.000678143,-8.773911e-05,8,1
-0.001059321,-0.0001225832,8,1
-0.001238079,-0.0001781716,8,1
-0.001154777,-0.0002378116,8,1
-0.000819788,-0.0002846485,8,1
-0.0003143064,-0.0003089583,8,1
0.0002443328,-0.0003074997,8,1
0.0007444666,-0.0002872415,8,1
0.001114786,-0.000261311,8,1
0.001333089,-0.0002468872,8,1
0.001426763,-0.0002596904,8,1
0.001442321,-0.0002992343,8,1
0.001417039,-0.0003476919,8,1
0.001351726,-0.0003875599,8,1
0.001218346,-0.0004089525,8,1
0.0009993956,-0.0004131662,8,1
0.000701033,-0.0004105732,8,1
0.0003619922,-0.000412518,8,1
3.218923e-05,-0.0004264556,8,1
-0.0002494803,-0.0004578962,8,1
-0.0004694029,-0.0005057055,8,1
-0.0006390853,-0.0005585388,8,1
-0.0007946679,-0.0005961379,8,1
-0.0009671054,-0.000598893,8,1
-0.001162394,-0.0005637249,8,1
-0.001382479,-0.0004985746,8,1
-0.001623956,-0.0004159214,8,1
-0.00186592,-0.0003288923,8,1
-0.002072229,-0.0002593663,8,1
-0.002204637,-0.0002316531,8,1
-0.002240129,-0.0002575835,8,1
-0.002170117,-0.0003217614,8,1
-0.00201113,-0.0003940425,8,1
-0.001805956,-0.0004454172,8,1
-0.001598026,-0.0004575721,8,1
-0.001406951,-0.0004264556,8,1
-0.001220089,-0.0003632501,8,1
-0.001008756,-0.0002844864,8,1
-0.0007484793,-0.0002063709,8,1
-0.000444769,-0.0001399241,8,1
-0.000122259,-8.44978e-05,8,1
0.0002154851,-3.377136e-05,8,1
0.0005789978,1.9224e-05,8,1
0.0009642274,7.594687e-05,8,1
0.001339895,0.0001294284,8,1
0.001665161,0.0001692965,8,1
0.001904046,0.000187772,8,1
0.002038885,0.0001906891,8,1
0.002066598,0.000200251,8,1
0.001981676,0.0002415777,8,1
0.001772287,0.0003290929,8,1
0.001435352,0.0004516144,8,1
0.0009883752,0.0005759185,8,1
0.0004851619,0.0006673234,8,1
2.04508e-06,0.0007104329,8,1
-0.0003820497,0.0007089743,8,1
-0.0006238511,0.0006838542,8,1
-0.0007304901,0.0006671614,8,1
-0.0007449139,0.000673644,8,1
-0.0007186593,0.0006921195,8,1
-0.0006868945,0.0006914712,8,1
-0.0006640433,0.0006400964,8,1
-0.0006505919,0.000520168,8,1
-0.0006382749,0.0003521062,8,1
-0.0006118583,0.0001785342,8,1
-0.0005621043,4.061663e-05,8,1
-0.0004914437,-4.333321e-05,8,1
-0.000415111,-7.55842e-05,8,1
-0.0003442885,-6.91016e-05,8,1
-0.0002849726,-4.284701e-05,8,1
-0.0002332737,-1.432352e-05,8,1
-0.0001741199,3.665733e-06,8,1
-9.843541e-05,1.063454e-05,8,1
-1.043395e-05,1.322759e-05,8,1
6.930219e-05,1.419998e-05,8,1
0.0001116012,9.66215e-06,8,1
0.0001056048,-3.303076e-06,8,1
7.367795e-05,-1.788895e-05,8,1
6.83298e-05,-2.971972e-05,8,1
0.0001441764,-3.393342e-05,8,1
0.0003198552,-2.858527e-05,8,1
0.0005639257,-1.464765e-05,8,1
0.0008096169,1.720949e-06,8,1
0.0009812443,9.66215e-06,8,1
0.001011388,2.207145e-06,8,1
0.0008771982,-2.064406e-05,8,1
0.0006175694,-5.257093e-05,8,1
0.0003158036,-8.514606e-05,8,1
6.444023e-05,-0.0001138316,8,1
-7.444975e-05,-0.0001415448,8,1
-8.563225e-05,-0.0001699062,8,1
-2.81688e-06,-0.0001982676,8,1
0.0001172735,-0.0002229016,8,1
0.000225209,-0.0002395943,8,1
0.0002861456,-0.0002481838,8,1
0.0002759355,-0.0002486699,8,1
0.0001906891,-0.0002417012,8,1
5.957827e-05,-0.0002279256,8,1
-7.056019e-05,-0.0002110708,8,1
-0.0001629374,-0.0002029675,8,1
-0.0001994021,-0.0002135018,8,1
-0.0001577513,-0.0002431597,8,1
1.072688e-06,-0.0002830278,8,1
0.0002940868,-0.000328082,8,1
0.0006747784,-0.0003674638,8,1
0.001041371,-0.0003909633,8,1
0.001283172,-0.0003971218,8,1
0.001310237,-0.0003880461,8,1
0.001093556,-0.0003648708,8,1
0.0006823955,-0.0003344025,8,1
0.0001808031,-0.000300855,8,1
-0.0002938862,-0.0002656868,8,1
-0.0006522125,-0.0002292221,8,1
-0.0008528493,-0.0001904885,8,1
-0.0009032516,-0.0001493239,8,1
-0.0008486357,-0.0001078352,8,1
-0.000755124,-6.893953e-05,8,1
-0.0006808981,-3.733679e-05,8,1
-0.0006630709,-1.805102e-05,8,1
-0.0007035872,-1.108221e-05,8,1
-0.0007659824,-7.354709e-06,8,1
-0.0007966127,7.717366e-06,8,1
-0.0007544757,4.709924e-05,8,1
-0.0006449196,0.0001120874,8,1
-0.0005264499,0.0001913374,8,1
-0.0004788027,0.0002705873,8,1
-0.000544115,0.000341572,8,1
-0.0006958081,0.000401212,8,1
-0.0008502563,0.0004537212,8,1
-0.0009087619,0.0005025029,8,1
