EMG1,EMG2,class,user
0.0009233868,0.0003666921,8,1
0.0009501277,0.0004005638,8,1
0.0009664963,0.0004059119,8,1
0.0009687652,0.0004000776,8,1
0.0009553138,0.0004068843,8,1
0.0009387831,0.0004454559,8,1
0.0009402417,0.0005221128,8,1
0.0009664963,0.0006306967,8,1
0.0009964785,0.0007571077,8,1
0.001002475,0.0008891911,8,1
0.0009647136,0.001017223,8,1
0.0008793051,0.001128724,8,1
0.0007631041,0.001214943,8,1
0.0006412309,0.001267614,8,1
0.000530054,0.001284307,8,1
0.0004216323,0.001271666,8,1
0.0003018659,0.001240549,8,1
0.0001728619,0.001198412,8,1
6.006447e-05,0.001136503,8,1
-8.813297e-06,0.00104056,8,1
-2.7937e-05,0.0009050734,8,1
-2.566809e-05,0.0007392805,8,1
-2.89094e-05,0.0005691118,8,1
-4.43056e-05,0.0004243874,8,1
-6.537409e-05,0.0003111037,8,1
-8.725291e-05,0.0002062474,8,1
-0.0001020008,8.712937e-05,8,1
-8.465986e-05,-4.284701e-05,8,1
-2.307504e-05,-0.0001566169,8,1
6.249545e-05,-0.0002222533,8,1
0.0001287802,-0.0002151224,8,1
0.0001464453,-0.0001418689,8,1
0.0001182459,-3.652646e-05,8,1
6.03886e-05,6.476436e-05,8,1
-1.756482e-05,0.0001380179,8,1
-0.0001261486,0.0001777239,8,1
-0.0002799486,0.0001924718,8,1
-0.0004737787,0.0001936063,8,1
-0.0006804119,0.0001803169,8,1
-0.0008714869,0.000145635,8,1
-0.001024314,8.307774e-05,8,1
-0.001119123,5.86492e-07,8,1
-0.001136302,-8.320128e-05,8,1
-0.001077958,-0.0001486757,8,1
-0.0009513851,-0.0001864369,8,1
-0.0007505861,-0.0001964849,8,1
-0.000477182,-0.0001846542,8,1
-0.0001666649,-0.0001630995,8,1
0.0001179218,-0.0001430034,8,1
0.0003252034,-0.0001240417,8,1
0.0004336251,-9.746302e-05,8,1
0.000450804,-4.949169e-05,8,1
0.0004132049,2.619281e-05,8,1
0.0003751195,0.0001222976,8,1
0.0003733368,0.0002213195,8,1
0.0004042913,0.0003059176,8,1
0.0004444835,0.0003717161,8,1
0.0004796517,0.0004264942,8,1
0.0005055821,0.0004728449,8,1
0.0005141716,0.0005007202,8,1
0.0004939134,0.0004906721,8,1
0.0004430249,0.0004245494,8,1
0.0003619922,0.0003023522,8,1
0.0002483844,0.0001443384,8,1
0.0001075496,-1.740276e-05,8,1
-4.884343e-05,-0.0001553203,8,1
-0.000206695,-0.0002574215,8,1
-0.0003663294,-0.0003285682,8,1
-0.0005204534,-0.0003870737,8,1
-0.0006345474,-0.000449793,8,1
-0.0006518884,-0.0005254775,8,1
-0.0005420081,-0.0006094273,8,1
-0.0003222476,-0.0006864083,8,1
-5.305713e-05,-0.0007439415,8,1
0.000187934,-0.0007718167,8,1
0.0003457857,-0.0007693857,8,1
0.0004072085,-0.0007394037,8,1
0.0003950536,-0.0006864083,8,1
0.000346596,-0.0006180168,8,1
0.0002981384,-0.0005408737,8,1
0.0002735045,-0.0004651892,8,1
0.0002877662,-0.0004021458,8,1
0.0003504856,-0.0003572537,8,1
0.0004438352,-0.0003305129,8,1
0.0005240576,-0.0003143064,8,1
0.0005368608,-0.0002953447,8,1
0.0004443214,-0.0002640662,8,1
0.0002384984,-0.0002243602,8,1
-4.608832e-05,-0.0001906506,8,1
-0.0003566054,-0.0001760647,8,1
-0.0006494574,-0.0001857886,8,1
-0.0008970932,-0.000216419,8,1
-0.001096109,-0.0002556388,8,1
-0.001251854,-0.0002924276,8,1
-0.001370648,-0.0003217614,8,1
-0.001454922,-0.0003407231,8,1
-0.001509214,-0.0003468815,8,1
-0.001537413,-0.0003407231,8,1
-0.001547299,-0.0003246786,8,1
-0.001554106,-0.0003011791,8,1
-0.00157015,-0.0002726556,8,1
-0.001597864,-0.0002467252,8,1
-0.001617149,-0.0002319772,8,1
-0.00160305,-0.0002285739,8,1
-0.001546489,-0.0002310048,8,1
-0.001454274,-0.0002323013,8,1
-0.001334832,-0.0002284118,8,1
-0.001189945,-0.0002204706,8,1
-0.00101929,-0.0002052365,8,1
-0.0008431255,-0.0001825473,8,1
-0.0006875428,-0.0001541859,8,1
-0.000556594,-0.00012469,8,1
-0.0004177041,-9.405965e-05,8,1
-0.000221443,-5.402952e-05,8,1
5.99024e-05,-1.196227e-06,8,1
0.0004041292,5.536457e-05,8,1
0.0007519216,0.0001041462,8,1
0.001049636,0.0001376938,8,1
0.001288845,0.0001579519,8,1
0.001487861,0.0001725378,8,1
0.001646848,0.0001872858,8,1
0.001752515,0.000202844,8,1
0.001803241,0.0002167816,8,1
0.001799514,0.0002253711,8,1
0.001738739,0.0002206712,8,1
0.001620431,0.000200251,8,1
0.001444914,0.000165569,8,1
0.001221749,0.0001206769,8,1
0.0009822167,7.319176e-05,8,1
0.0007767176,3.202716e-05,8,1
0.0006556547,3.827799e-06,8,1
0.0006376655,-8.651231e-06,8,1
0.0006830437,-5.247859e-06,8,1
0.0007264773,1.322759e-05,8,1
0.0007261531,3.462021e-05,8,1
0.0006882299,3.672706e-05,8,1
0.0006407447,3.017472e-06,8,1
0.0006054144,-5.921561e-05,8,1
0.0005883976,-0.0001280934,8,1
0.0005890459,-0.0001765509,8,1
0.0005979594,-0.0001857886,8,1
0.0006034696,-0.0001575893,8,1
0.000591963,-0.0001248521,8,1
0.0005601982,-0.0001203142,8,1
0.0005029891,-0.0001514308,8,1
0.0004154738,-0.0001976194,8,1
0.0002948972,-0.0002266291,8,1
0.0001446626,-0.0002201465,8,1
-2.518189e-05,-0.0001763888,8,1
-0.0002019951,-0.0001114006,8,1
-0.0003690845,-4.560212e-05,8,1
-0.000504409,6.258778e-06,8,1
-0.0005903036,4.013043e-05,8,1
-0.0006283889,6.071273e-05,8,1
-0.0006418404,7.643307e-05,8,1
-0.0006590193,9.588091e-05,8,1
-0.0006870566,0.0001247285,8,1
-0.000710556,0.0001584381,8,1
-0.0007165525,0.0001884202,8,1
-0.0007034251,0.0002067336,8,1
-0.0006737672,0.0002106232,8,1
-0.0006277406,0.0002041406,8,1
-0.0005569181,0.0001937684,8,1
-0.0004455793,0.0001900409,8,1
-0.0002895104,0.0002000889,8,1
-0.0001071869,0.0002242366,8,1
6.930219e-05,0.0002652392,8,1
0.0002187264,0.0003277964,8,1
0.0003386548,0.0004222805,8,1
0.0004315182,0.0005564707,8,1
0.0004982892,0.0007293945,8,1
0.00052503,0.0009196594,8,1
0.000485486,0.001081077,8,1
0.0003525924,0.001175885,8,1
0.0001257009,0.001200681,8,1
-0.0001556445,0.001181557,8,1
-0.0004191627,0.001148982,8,1
-0.000593869,0.001114948,8,1
-0.0006355198,0.001082211,8,1
-0.0005449253,0.001055146,8,1
-0.0003689224,0.001045584,8,1
-0.0001762268,0.001052391,8,1
-2.631635e-05,0.001056443,8,1
5.179914e-05,0.001042343,8,1
6.897806e-05,0.001010092,8,1
5.455425e-05,0.0009695755,8,1
3.55926e-05,0.0009306798,8,1
2.39239e-05,0.0008930806,8,1
-4.761664e-06,0.0008491609,8,1
-7.218083e-05,0.0007804451,8,1
-0.0001812508,0.0006665131,8,1
-0.0003154408,0.0004864584,8,1
-0.0004408794,0.0002289366,8,1
-0.0005287188,-9.568031e-05,8,1
-0.000554001,-0.0004528722,8,1
-0.0005023021,-0.0007962886,8,1
-0.0003809152,-0.001089465,8,1
-0.0002203085,-0.001302581,8,1
-6.537409e-05,-0.001426885,8,1
3.624086e-05,-0.001471453,8,1
6.78436e-05,-0.001453625,8,1
5.504044e-05,-0.001390582,8,1
4.661304e-05,-0.001292208,8,1
6.849186e-05,-0.001166122,8,1
0.0001192183,-0.001025611,8,1
0.0001782101,-0.0008899623,8,1
0.000207706,-0.0007747339,8,1
0.0001769136,-0.0006852738,8,1
7.935024e-05,-0.0006181788,8,1
-7.428769e-05,-0.000576366,8,1
-0.0002640662,-0.0005851175,8,1
-0.000457248,-0.0006679329,8,1
-0.0006071584,-0.0008175191,8,1
-0.0006648536,-0.0009862292,8,1
-0.0006053757,-0.001117988,8,1
-0.0004501171,-0.001170173,8,1
-0.0002520733,-0.001131926,8,1
-7.266703e-05,-0.001018642,8,1
4.72613e-05,-0.000864518,8,1
9.944634e-05,-0.0006985632,8,1
0.0001039842,-0.0005431426,8,1
8.875003e-05,-0.0004246728,8,1
7.724339e-05,-0.0003681121,8,1
8.080883e-05,-0.0003990665,8,1
0.0001091703,-0.0005131605,8,1
0.0001654069,-0.0006603158,8,1
0.0002483844,-0.0007710064,8,1
0.0003501615,-0.0007959644,8,1
0.0004639314,-0.000735352,8,1
0.000596987,-0.0006324406,8,1
0.0007546768,-0.0005394151,8,1
0.0009172284,-0.0004788027,8,1
0.001038291,-0.0004329382,8,1
0.001077187,-0.0003640605,8,1
0.001024192,-0.0002371633,8,1
0.0009006977,-4.05781e-05,8,1
0.0007420356,0.0002088404,8,1
0.0005859666,0.0004734932,8,1
0.0004590694,0.0007115673,8,1
0.0003718782,0.0008919462,8,1
0.0003224483,0.001006689,8,1
0.0002934386,0.001071839,8,1
0.0002696149,0.001114948,8,1
0.0002360674,0.001164054,8,1
0.0001833962,0.001230015,8,1
0.000111115,0.001293869,8,1
3.056858e-05,0.001319151,8,1
-3.717473e-05,0.001265993,8,1
-7.104638e-05,0.001116893,8,1
-6.926366e-05,0.0008953495,8,1
-4.38194e-05,0.0006585719,8,1
-1.67545e-05,0.0004662003,8,1
-5.085794e-06,0.0003506476,8,1
-1.20546e-05,0.0003060797,8,1
-3.571614e-05,0.0003062417,8,1
-7.201877e-05,0.0003222862,8,1
-0.0001021629,0.0003376824,8,1
-8.871149e-05,0.0003431926,8,1
-1.124428e-05,0.0003389789,8,1
0.0001007429,0.0003256896,8,1
0.0001965235,0.0003033245,8,1
0.0002334744,0.0002783665,8,1
0.0001983062,0.0002624841,8,1
0.0001081979,0.0002686426,8,1
7.393236e-06,0.0003021901,8,1
-7.526008e-05,0.0003550234,8,1
-0.0001313347,0.0004051016,8,1
-0.0001697442,0.0004277907,8,1
-0.0002006986,0.0004101256,8,1
-0.0002185258,0.0003548613,8,1
-0.0002058847,0.0002715597,8,1
-0.0001533756,0.0001798307,8,1
-7.704279e-05,9.604298e-05,8,1
-8.002969e-06,3.753739e-05,8,1
3.429608e-05,2.262738e-05,8,1
5.390598e-05,5.61749e-05,8,1
7.20573e-05,0.0001222976,8,1
9.863601e-05,0.000192796,8,1
0.0001150046,0.0002462775,8,1
9.069481e-05,0.0002744769,8,1
3.503668e-06,0.0002701012,8,1
-0.0001438137,0.0002245608,8,1
-0.0003199787,0.0001349386,8,1
-0.0004946851,1.533444e-05,8,1
-0.0006556159,-0.0001102662,8,1
-0.000812333,-0.0002199844,8,1
-0.0009823395,-0.0003066893,8,1
-0.001170173,-0.0003775118,8,1
-0.001348283,-0.0004462276,8,1
-0.001472425,-0.0005201293,8,1
-0.001505,-0.0005974344,8,1
-0.001436122,-0.0006669604,8,1
-0.001285564,-0.0007152559,8,1
-0.001095785,-0.0007313004,8,1
-0.0009171893,-0.0007235213,8,1
-0.0007778131,-0.0007112043,8,1
-0.0006744154,-0.0007050458,8,1
-0.0005873864,-0.000705532,8,1
-0.0004980884,-0.0007219006,8,1
-0.0004071698,-0.000760148,8,1
-0.000333106,-0.0008144398,8,1
-0.0002921034,-0.0008658146,8,1
-0.0002838381,-0.0008966069,8,1
-0.0002945344,-0.0008909347,8,1
-0.0002985861,-0.0008432875,8,1
-0.0002705488,-0.0007611204,8,1
-0.0002006986,-0.0006655019,8,1
-9.713889e-05,-0.0005834968,8,1
2.651694e-05,-0.0005313118,8,1
0.0001519555,-0.0005016539,8,1
0.0002569738,-0.0004650271,8,1
0.000331848,-0.0003922598,8,1
0.0003757678,-0.0002705488,8,1
0.0003903536,-0.000104756,8,1
0.0003670162,8.599492e-05,8,1
0.0002918179,0.0002731804,8,1
0.0001579519,0.0004266563,8,1
-2.226472e-05,0.0005258403,8,1
-0.000204102,0.0005587396,8,1
-0.0003147926,0.0005365367,8,1
-0.000295993,0.0004875929,8,1
-0.0001478653,0.0004410801,8,1
7.967438e-05,0.0004261701,8,1
0.0003334687,0.0004615004,8,1
0.0005781874,0.0005465847,8,1
0.000807348,0.0006650545,8,1
0.001030674,0.0007903311,8,1
0.001249787,0.0008997253,8,1
0.001440538,0.0009916165,8,1
0.001559819,0.001073297,8,1
0.001590287,0.001148982,8,1
0.001562249,0.00121235,8,1
0.001531943,0.001244601,8,1
0.001559494,0.001224991,8,1
0.001672616,0.001141203,8,1
0.001834844,0.0009969646,8,1
0.001972276,0.0008143168,8,1
0.002009713,0.0006255105,8,1
0.001886543,0.0004593935,8,1
0.001577646,0.0003239069,8,1
0.001114786,0.0002167816,8,1
0.0005838597,0.0001315353,8,1
9.766362e-05,6.687121e-05,8,1
-0.0002507768,2.34377e-05,8,1
-0.0004326141,-1.196227e-06,8,1
-0.0004684305,-1.578211e-05,8,1
-0.0004021458,-2.728874e-05,8,1
-0.0002989102,-4.592625e-05,8,1
-0.0002110708,-8.012204e-05,8,1
-0.0001655305,-0.0001323071,8,1
-0.0001579134,-0.0001969711,8,1
-0.0001577513,-0.0002603387,8,1
-0.0001481895,-0.0003079858,8,1
-0.0001355484,-0.0003303509,8,1
-0.0001431655,-0.0003308371,8,1
-0.0001801163,-0.0003214373,8,1
-0.0002311669,-0.0003102548,8,1
-0.0002742763,-0.0003021515,8,1
-0.0002979378,-0.0002971275,8,1
-0.00030831,-0.000293562,8,1
-0.0003177098,-0.0002927517,8,1
-0.0003378059,-0.0002974516,8,1
-0.0003741085,-0.0003060411,8,1
-0.0004232143,-0.0003172236,8,1
-0.0004776682,-0.0003262992,8,1
-0.0005322842,-0.0003287302,8,1
-0.0005810658,-0.0003241924,8,1
-0.0006084549,-0.0003167374,8,1
-0.0005998655,-0.0003062031,8,1
-0.0005502735,-0.0002963172,8,1
-0.0004642168,-0.0002982619,8,1
-0.0003491504,-0.0003235441,8,1
-0.0002107467,-0.0003750809,8,1
-4.657452e-05,-0.0004408794,8,1
0.0001438522,-0.0005063537,8,1
0.0003574544,-0.0005606457,8,1
0.0005854804,-0.0005975965,8,1
0.0007981102,-0.0006167202,8,1
0.0009412141,-0.0006217443,8,1
0.0009616343,-0.0006144513,8,1
0.0008361956,-0.0005935449,8,1
0.0005901803,-0.0005549733,8,1
0.0002765838,-0.0005018159,8,1
-5.22468e-05,-0.0004366657,8,1
-0.0003499608,-0.0003617915,8,1
-0.0005880346,-0.0002856209,8,1
-0.0007556102,-0.0002131776,8,1
-0.0008596561,-0.0001489998,8,1
-0.000911517,-9.454585e-05,8,1
-0.0009283718,-4.90055e-05,8,1
-0.0009246443,-8.975362e-06,8,1
-0.0009131377,2.943412e-05,8,1
-0.0008990379,6.573675e-05,8,1
-0.0008876934,9.555677e-05,8,1
-0.000881697,0.0001153287,8,1
-0.0008821832,0.0001326697,8,1
-0.0008784557,0.000162976,8,1
-0.0008533355,0.0002143507,8,1
-0.0008058504,0.0002897111,8,1
-0.000752855,0.0003807918,8,1
-0.0007150938,0.0004709002,8,1
-0.0007003459,0.0005478812,8,1
-0.0006948357,0.000606873,8,1
-0.0006718224,0.0006533858,8,1
-0.0006207718,0.0006961711,8,1
-0.0005509217,0.0007363633,8,1
-0.0004877163,0.000770235,8,1
-0.0004554653,0.0007809313,8,1
-0.0004661616,0.0007522457,8,1
-0.0005058676,0.000681261,8,1
-0.0005429805,0.0005799701,8,1
-0.0005447632,0.0004721967,8,1
-0.0004901472,0.000381278,8,1
-0.000377836,0.0003224483,8,1
-0.0002326255,0.000294573,8,1
-8.725291e-05,0.0002830664,8,1
3.364782e-05,0.0002741528,8,1
0.0001219734,0.0002553532,8,1
0.0001809652,0.0002247229,8,1
0.0002148369,0.0001932822,8,1
0.0002185644,0.0001658931,8,1
0.0001885823,0.0001141943,8,1
0.0001449867,1.257933e-05,8,1
0.0001200286,-0.0001323071,8,1
0.0001354248,-0.0002849726,8,1
0.0001874478,-0.0004073319,8,1
0.0002608634,-0.0004752372,8,1
0.0003420582,-0.0004862577,8,1
0.0004274666,-0.000454817,8,1
0.0005294057,-0.0004063595,8,1
0.000656465,-0.0003630881,8,1
0.00080751,-0.0003365093,8,1
0.0009671446,-0.0003228959,8,1
0.001102307,-0.0003151167,8,1
0.001173454,-0.0003094444,8,1
0.001163406,-0.0003115513,8,1
0.001080104,-0.0003235441,8,1
0.0009334349,-0.0003412093,8,1
0.0007331221,-0.0003600088,8,1
0.0005120648,-0.0003775118,8,1
0.0003132105,-0.0003935563,8,1
0.0001577899,-0.0004060354,8,1
2.651694e-05,-0.0004130042,8,1
-0.0001195039,-0.0004123559,8,1
-0.0003062031,-0.0003989045,8,1
-0.0005298533,-0.0003593606,8,1
-0.0007643617,-0.0002781658,8,1
-0.000981043,-0.0001522411,8,1
-0.001155911,3.341602e-06,8,1
-0.001281026,0.0001647587,8,1
-0.001349741,0.0003162898,8,1
-0.001343421,0.0004563143,8,1
-0.001244885,0.0005934216,8,1
-0.001070017,0.0007295565,8,1
-0.0008675972,0.0008475402,8,1
-0.0006920806,0.0009178767,8,1
-0.000573935,0.000903939,8,1
-0.00051705,0.0007814175,8,1
-0.0004838267,0.0005619809,8,1
-0.000415111,0.0002940868,8,1
-0.0002509389,4.077869e-05,8,1
2.910999e-05,-0.0001536997,8,1
0.000396188,-0.0002705488,8,1
0.0007945448,-0.0003173856,8,1
0.001169402,-0.0003188442,8,1
0.001479434,-0.000303286,8,1
0.001694657,-0.0002940482,8,1
0.00179449,-0.0002968033,8,1
0.001768721,-0.0003081479,8,1
0.001627724,-0.0003203028,8,1
0.001403911,-0.0003233821,8,1
0.001141851,-0.000310741,8,1
0.0008854635,-0.0002770314,8,1
0.0006679717,-0.0002212809,8,1
0.0005029891,-0.0001486757,8,1
0.0003924605,-6.893953e-05,8,1
0.0003350894,7.879432e-06,8,1
0.0003281205,7.319176e-05,8,1
0.0003611819,0.0001231079,8,1
0.0004201737,0.0001592484,8,1
0.0004909963,0.0001880961,8,1
0.0005692738,0.0002104611,8,1
0.0006511169,0.0002234263,8,1
0.0007196706,0.0002196988,8,1
0.0007472217,0.0002049509,8,1
0.0007151327,0.0001898788,8,1
0.0006227554,0.0001871237,8,1
0.0004900239,0.0002018716,8,1
0.0003405996,0.0002281262,8,1
0.0001957132,0.00024255,8,1
6.379197e-05,0.0002049509,8,1
-5.240886e-05,9.328786e-05,8,1
-0.0001501342,-7.720486e-05,8,1
-0.0002183637,-0.0002658489,8,1
-0.0002476975,-0.0004313175,8,1
-0.0002224154,-0.0005481666,8,1
-0.0001212866,-0.0006147755,8,1
6.557468e-05,-0.0006463782,8,1
0.0003127243,-0.0006595054,8,1
0.0005661946,-0.0006671225,8,1
0.0007621317,-0.0006697156,8,1
0.0008609917,-0.0006541573,8,1
0.0008634226,-0.0006019723,8,1
0.0007971379,-0.0005014918,8,1
0.0006851507,-0.0003491504,8,1
0.000522599,-0.0001603444,8,1
0.0002936006,3.753739e-05,8,1
3.665733e-06,0.0002137024,8,1
-0.0002989102,0.0003488649,8,1
-0.0005434667,0.0004365423,8,1
-0.0006774947,0.0004861343,8,1
-0.0007000218,0.0005088235,8,1
-0.0006544815,0.0005135234,8,1
-0.0005802555,0.0005106062,8,1
-0.0004825302,0.0005154681,8,1
-0.000350447,0.0005386435,8,1
-0.0001846542,0.0005840218,8,1
-1.221667e-05,0.0006472273,8,1
0.0001200286,0.0007143224,8,1
0.000185341,0.0007794728,8,1
0.0001963614,0.0008413817,8,1
0.0001910133,0.0009023183,8,1
0.0002111094,0.0009499656,8,1
0.0002752873,0.0009635791,8,1
0.0003675024,0.0009306798,8,1
0.0004535592,0.0008478644,8,1
0.0005010443,0.0007020054,8,1
0.0004709002,0.0004822447,8,1
0.000329255,0.0001949028,8,1
6.83298e-05,-0.0001199901,8,1
-0.000285945,-0.0004055492,8,1
-0.0006843015,-0.0006175305,8,1
-0.001075527,-0.0007390795,8,1
-0.001415702,-0.0007872129,8,1
-0.001680355,-0.0007969369,8,1
-0.001859599,-0.0008030953,8,1
-0.001940308,-0.0008256224,8,1
-0.001913081,-0.000866949,8,1
-0.001790073,-0.000911517,8,1
-0.001612774,-0.0009403646,8,1
-0.00142964,-0.0009434438,8,1
-0.001268223,-0.0009361509,8,1
-0.001130629,-0.0009521954,8,1
-0.0009988702,-0.001015725,8,1
-0.0008567389,-0.001108913,8,1
-0.0006993735,-0.001185407,8,1
-0.0005408737,-0.001203883,8,1
-0.0004139766,-0.001137112,8,1
-0.0003347266,-0.0009821774,8,1
-0.0002922655,-0.000755286,8,1
-0.0002583939,-0.0004993849,8,1
-0.0002105846,-0.0002739521,8,1
-0.0001499722,-0.0001219349,8,1
-9.19528e-05,-4.203669e-05,8,1
-4.284701e-05,1.072688e-06,8,1
-1.196227e-06,5.228533e-05,8,1
2.522042e-05,0.0001394765,8,1
1.517237e-05,0.0002658874,8,1
-4.608832e-05,0.0004157979,8,1
-0.0001528894,0.0005687877,8,1
-0.0002768693,0.0007091364,8,1
-0.000377836,0.0008224201,8,1
-0.0004198109,0.0008822222,8,1
-0.0003856151,0.0008605054,8,1
-0.0002767073,0.0007514353,8,1
-0.0001201522,0.0005867769,8,1
3.672706e-05,0.0004208219,8,1
0.0001412592,0.0002965178,8,1
0.0001474177,0.0002329882,8,1
4.564065e-05,0.0002253711,8,1
-0.0001376552,0.0002574601,8,1
-0.0003462333,0.0003146691,8,1
-0.0005147812,0.0003882468,8,1
-0.0005779866,0.0004773828,8,1
-0.0004943609,0.0005833735,8,1
-0.0002708729,0.0007013571,8,1
4.158902e-05,0.0008209614,8,1
0.0003649094,0.0009214421,8,1
0.0006263209,0.0009891854,8,1
0.0007909794,0.001031485,8,1
0.0008679605,0.001068111,8,1
0.0008891911,0.001113328,8,1
0.0008838429,0.001167944,8,1
0.0008697432,0.001212026,8,1
0.0008577504,0.001214619,8,1
0.0008621261,0.001149955,8,1
0.0008953495,0.001015278,8,1
0.000948669,0.0008293889,8,1
0.001000044,0.0006196762,8,1
0.001043477,0.0004177427,8,1
0.001083508,0.0002456293,8,1
0.001135855,0.000110953,8,1
0.001201653,7.393236e-06,8,1
0.001250759,-7.493595e-05,8,1
0.001242332,-0.0001418689,8,1
0.001151413,-0.0002002124,8,1
0.0009810822,-0.0002540181,8,1
0.0007710453,-0.0003045825,8,1
0.0005819149,-0.0003528779,8,1
0.0004673347,-0.0004014975,8,1
0.0004475628,-0.0004540067,8,1
0.0005050959,-0.0005074882,8,1
0.0005849942,-0.0005533527,8,1
0.0006332897,-0.0005894933,8,1
0.0006097901,-0.000621258,8,1
0.0004950479,-0.0006617744,8,1
0.0002955454,-0.0007296797,8,1
3.575467e-05,-0.0008355084,8,1
-0.0002600145,-0.0009682399,8,1
-0.0005640491,-0.001099027,8,1
-0.0008379394,-0.001193673,8,1
-0.001046355,-0.00122641,8,1
-0.001179249,-0.001190269,8,1
-0.001250882,-0.00109692,8,1
-0.001287184,-0.0009726156,8,1
-0.001301608,-0.0008487977,8,1
-0.00128686,-0.0007486413,8,1
-0.001245534,-0.0006729569,8,1
-0.001189621,-0.0006081308,8,1
-0.001125281,-0.0005374703,8,1
-0.001048624,-0.0004567618,8,1
-0.0009496023,-0.0003744326,8,1
-0.0008283774,-0.000298424,8,1
-0.0007034251,-0.000231491,8,1
-0.0005920863,-0.0001760647,8,1
-0.000507002,-0.0001313347,8,1
-0.000467134,-9.584238e-05,8,1
-0.0005000332,-6.553616e-05,8,1
-0.0006076446,-3.749886e-05,8,1
-0.0007497758,-6.220252e-06,8,1
-0.0008687317,3.13789e-05,8,1
-0.0009120032,8.145709e-05,8,1
-0.0008413427,0.0001480659,8,1
-0.00064103,0.0002271538,8,1
-0.0003413713,0.0003096451,8,1
-1.027188e-05,0.0003874365,8,1
0.0002856594,0.0004569625,8,1
0.0005136854,0.0005156302,8,1
0.000686123,0.0005582534,8,1
0.0008417058,0.0005815908,8,1
0.001008147,0.0005911527,8,1
0.001183826,0.0005947181,8,1
0.00136534,0.0005903424,8,1
0.00156776,0.0005712186,8,1
0.001808589,0.000534916,8,1
0.002097067,0.0004888894,8,1
0.002424764,0.0004491834,8,1
0.002745169,0.0004277907,8,1
0.002979031,0.0004286011,8,1
0.003049206,0.0004478869,8,1
0.002928628,0.0004773828,8,1
0.002648253,0.000507689,8,1
0.00227696,0.0005307022,8,1
0.001880547,0.000542209,8,1
0.001496127,0.000534916,8,1
0.001135369,0.0005025029,8,1
0.000802486,0.0004475628,8,1
0.0005000719,0.0003769022,8,1
0.0002281262,0.000299597,8,1
-4.275467e-06,0.0002271538,8,1
-0.0001827094,0.0001710792,8,1
-0.0002869174,0.0001394765,8,1
-0.0003078238,0.0001375317,8,1
-0.0002668213,0.0001618415,8,1
-0.0002113949,0.0001945787,8,1
-0.0001908126,0.0002122438,8,1
-0.0002293842,0.0002017096,8,1
-0.0003245165,0.0001582761,8,1
-0.0004577342,8.826383e-05,8,1
-0.0006045654,4.638125e-06,8,1
-0.0007515585,-8.060823e-05,8,1
-0.0009079515,-0.0001574272,8,1
-0.001084441,-0.0002201465,8,1
-0.001268709,-0.0002715212,8,1
-0.001431747,-0.0003227338,8,1
-0.001563506,-0.0003856151,8,1
-0.001675007,-0.0004574101,8,1
-0.001777108,-0.0005223983,8,1
-0.001862516,-0.0005646973,8,1
-0.00190676,-0.000576366,8,1
-0.001882775,-0.0005583767,8,1
-0.00177176,-0.0005223983,8,1
-0.00157874,-0.0004857715,8,1
-0.0013371,-0.000459679,8,1
-0.001100485,-0.0004486585,8,1
-0.0009184858,-0.000452224,8,1
-0.0008217328,-0.0004656754,8,1
-0.0008139537,-0.000477182,8,1
-0.0008734317,-0.0004778303,8,1
-0.0009666192,-0.0004674581,8,1
-0.001062238,-0.0004619479,8,1
-0.00112285,-0.0004791268,8,1
-0.001096109,-0.0005189948,8,1
-0.00094863,-0.0005645352,8,1
-0.0007074767,-0.0005924104,8,1
-0.0004468758,-0.0005928966,8,1
-0.0002457528,-0.0005708557,8,1
-0.0001590478,-0.0005330946,8,1
-0.0002021572,-0.0004867439,8,1
-0.0003452609,-0.0004295348,8,1
-0.0005261258,-0.0003543365,8,1
-0.0007050458,-0.0002570974,8,1
-0.0008773212,-0.0001434896,8,1
-0.001042304,-2.518189e-05,8,1
-0.001183949,8.79397e-05,8,1
-0.001279081,0.0001885823,8,1
-0.001309874,0.000274801,8,1
-0.001272436,0.0003493511,8,1
-0.001171146,0.0004148255,8,1
-0.001004543,0.0004610142,8,1
-0.0007588515,0.0004791655,8,1
-0.0004292107,0.0004718725,8,1
-3.604027e-05,0.0004576108,8,1
0.0003875985,0.0004610142,8,1
0.0008018378,0.0004986133,8,1
0.001170537,0.0005681394,8,1
0.001462579,0.0006486859,8,1
0.001647334,0.0007201568,8,1
0.001712322,0.0007760693,8,1
0.001664837,0.0008242028,8,1
0.001532267,0.0008721742,8,1
0.001356912,0.0009130147,8,1
0.00118334,0.0009293833,8,1
0.001053039,0.0009006977,8,1
0.001004582,0.0008138306,8,1
0.001065842,0.0006728336,8,1
0.001238766,0.0004990995,8,1
0.001482189,0.0003200173,8,1
0.001729987,0.0001634622,8,1
0.001920577,4.888196e-05,8,1
0.002009551,-1.351319e-05,8,1
0.00196239,-3.101625e-05,8,1
0.001769694,-2.129233e-05,8,1
0.001461769,-7.516774e-06,8,1
0.001100849,-6.058186e-06,8,1
0.0007535422,-1.99958e-05,8,1
0.0004723587,-4.138842e-05,8,1
0.0002866318,-6.197072e-05,8,1
0.0001739964,-7.720486e-05,8,1
7.90261e-05,-9.276313e-05,8,1
-4.47918e-05,-0.000119666,8,1
-0.000201671,-0.000161965,8,1
-0.0003585502,-0.0002138259,8,1
-0.0004698891,-0.0002650386,8,1
-0.0004995471,-0.0003060411,8,1
-0.0004371519,-0.0003305129,8,1
-0.0002946965,-0.0003379679,8,1
-0.0001105903,-0.0003295405,8,1
5.779555e-05,-0.0003105789,8,1
0.0001649207,-0.0002966413,8,1
0.0001992786,-0.0003120375,8,1
0.0001718896,-0.0003642225,8,1
8.74535e-05,-0.0004339106,8,1
-4.80331e-05,-0.0004940368,8,1
-0.0002052365,-0.0005290429,8,1
-0.0003394265,-0.0005311498,8,1
-0.0004074939,-0.0005029504,8,1
-0.0003862634,-0.0004528722,8,1
-0.0002888622,-0.0003912874,8,1
-0.0001750923,-0.0003321336,8,1
-0.0001190177,-0.0002864312,8,1
-0.0001611547,-0.0002533699,8,1
-0.000305879,-0.0002271153,8,1
-0.0005264499,-0.0001974573,8,1
-0.0007789475,-0.0001566169,8,1
-0.001007946,-0.000119666,8,1
-0.001160773,-0.000112211,8,1
-0.001200479,-0.0001441378,8,1
-0.001124957,-0.000196647,8,1
-0.0009708329,-0.0002394322,8,1
-0.0007779752,-0.0002460769,8,1
-0.0005708557,-0.0002031296,8,1
-0.000365519,-0.0001154523,8,1
-0.0001763888,4.313994e-06,8,1
-1.659243e-05,0.0001376938,8,1
0.0001232699,0.0002618358,8,1
0.0002650771,0.0003527545,8,1
0.0004193634,0.0003989431,8,1
0.0005858046,0.0004028327,8,1
0.0007477079,0.0003790091,8,1
0.000898915,0.0003521062,8,1
0.001041857,0.0003451374,8,1
0.001186743,0.0003671783,8,1
0.001344757,0.00040105,8,1
0.00151995,0.0004119083,8,1
0.001702436,0.000373823,8,1
0.001854778,0.0002914938,8,1
0.001924304,0.000190365,8,1
0.001861261,0.000106091,8,1
0.001649765,6.816773e-05,8,1
0.001317044,9.26396e-05,8,1
0.0009099355,0.0001697827,8,1
0.0004786793,0.0002696149,8,1
6.573675e-05,0.000366368,8,1
-0.0003040963,0.000450642,8,1
-0.0006220684,0.0005235714,8,1
-0.0008804005,0.0005862907,8,1
-0.00107261,0.0006287518,8,1
-0.001196752,0.0006326414,8,1
-0.001260444,0.0005824011,8,1
-0.001265792,0.000478031,8,1
-0.001204045,0.0003339549,8,1
-0.001069369,0.0001707551,8,1
-0.0008722972,1.1769e-05,8,1
-0.0006407059,-0.0001199901,8,1
-0.0004196489,-0.0002050744,8,1
-0.0002533699,-0.0002353806,8,1
-0.0001674752,-0.0002146363,8,1
-0.0001605064,-0.0001626133,8,1
-0.0002088019,-0.0001015147,8,1
-0.0002831898,-4.041603e-05,8,1
-0.00035304,2.732727e-05,8,1
-0.0003967976,0.0001070634,8,1
-0.0004117076,0.0001971717,8,1
-0.0004139766,0.0002887387,8,1
-0.0004280762,0.0003652335,8,1
-0.00046211,0.0004146635,8,1
-0.0004979264,0.0004324906,8,1
-0.0005024642,0.0004166082,8,1
-0.0004732924,0.0003662059,8,1
-0.0004582204,0.0002874421,8,1
-0.0005084606,0.0001986303,8,1
-0.0006423265,0.0001156529,8,1
-0.0008189777,2.910999e-05,8,1
-0.0009549505,-0.0001062146,8,1
-0.0009609469,-0.0003374817,8,1
-0.000799854,-0.0006653398,8,1
-0.0005100812,-0.00103809,8,1
-0.0001690959,-0.001381344,8,1
0.000148228,-0.001627684,8,1
0.0003890571,-0.001745181,8,1
0.0005342677,-0.001740481,8,1
0.0005887217,-0.001642594,8,1
0.0005702463,-0.00149009,8,1
0.0005073649,-0.001317329,8,1
0.0004451317,-0.001142784,8,1
0.0004298976,-0.0009752086,8,1
0.0004846757,-0.0008183295,8,1
0.000591801,-0.0006710121,8,1
0.0007000606,-0.0005317981,8,1
0.0007556491,-0.0004094387,8,1
0.0007284221,-0.0003196545,8,1
0.0006211348,-0.0002720074,8,1
0.0004563143,-0.0002567732,8,1
0.0002615117,-0.0002533699,8,1
4.920609e-05,-0.0002454286,8,1
-0.000189192,-0.0002248464,8,1
-0.0004609755,-0.0001844921,8,1
-0.0007462104,-0.0001105903,8,1
-0.001007946,7.555301e-06,8,1
-0.001211662,0.0001665414,8,1
-0.00133629,0.0003430306,8,1
-0.001385558,0.0005107683,8,1
-0.001388313,0.0006631098,8,1
-0.001372593,0.0008133444,8,1
-0.001336938,0.0009742755,8,1
-0.001254933,0.001139906,8,1
-0.001100647,0.001285603,8,1
-0.0008828315,0.001369877,8,1
-0.0006499436,0.001352212,8,1
-0.0004685925,0.001229529,8,1
-0.0003922598,0.001031647,8,1
-0.0004259694,0.0008036205,8,1
-0.0005232086,0.0005871011,8,1
-0.000611048,0.0004093153,8,1
-0.0006133168,0.0002791768,8,1
-0.0004775062,0.0001932822,8,1
-0.0001981056,0.0001440143,8,1
0.0001767515,0.0001218114,8,1
0.0005689497,0.0001112771,8,1
0.0009016701,9.21534e-05,8,1
0.001121593,5.228533e-05,8,1
0.00121786,-1.043395e-05,8,1
0.001219319,-8.725291e-05,8,1
0.001177344,-0.0001571031,8,1
0.001140879,-0.0001959987,8,1
0.001140231,-0.0001925954,8,1
0.00118253,-0.0001543479,8,1
0.001258052,-9.908367e-05,8,1
0.001344271,-4.544006e-05,8,1
0.001422225,-2.330684e-06,8,1
0.001478786,2.052053e-05,8,1
0.001497099,8.203562e-06,8,1
0.001457069,-4.317115e-05,8,1
0.001351078,-0.0001165867,8,1
0.001191119,-0.000176875,8,1
0.00100053,-0.0001862748,8,1
0.0007994067,-0.0001259865,8,1
0.0006063868,-6.544382e-06,8,1
0.0004323286,0.0001492004,8,1
0.0002798251,0.000316938,8,1
0.000138342,0.0004700898,8,1
-6.868513e-06,0.000586939,8,1
-0.0001465688,0.0006632718,8,1
-0.0002624455,0.0007164293,8,1
-0.000350447,0.0007562974,8,1
-0.0004165696,0.0007780141,8,1
-0.0004742648,0.0007691005,8,1
-0.0005486528,0.0007180499,8,1
-0.0006572366,0.0006200004,8,1
-0.000792561,0.0004796517,8,1
-0.0009129756,0.0003156415,8,1
-0.0009716432,0.0001521176,8,1
-0.0009575436,1.193106e-05,8,1
-0.0008826694,-8.644259e-05,8,1
-0.0007664686,-0.0001394379,8,1
-0.000633575,-0.0001530514,8,1
-0.0005105674,-0.0001405724,8,1
-0.0004113835,-0.0001248521,8,1
-0.0003206269,-0.0001360346,8,1
-0.0002094502,-0.00019924,8,1
-5.402952e-05,-0.0003094444,8,1
0.0001373696,-0.0004355313,8,1
0.0003402755,-0.0005373082,8,1
0.000534916,-0.0005877105,8,1
0.0007130259,-0.000581552,8,1
0.000866664,-0.0005324463,8,1
0.0009851338,-0.0004588687,8,1
0.001058063,-0.0003775118,8,1
0.001081887,-0.0003019894,8,1
0.001053525,-0.000246401,8,1
0.0009626067,-0.0002172293,8,1
0.0008052412,-0.0002049123,8,1
0.0005966629,-0.000194216,8,1
0.0003670162,-0.000174444,8,1
0.0001595726,-0.0001383035,8,1
1.663096e-05,-9.568031e-05,8,1
-2.988179e-05,-7.056019e-05,8,1
2.781346e-05,-8.433573e-05,8,1
0.0001626518,-0.0001457585,8,1
0.0003172622,-0.0002347323,8,1
0.0004174185,-0.0003128478,8,1
0.0004125566,-0.0003475298,8,1
0.0002989488,-0.0003365093,8,1
0.0001163011,-0.0003050687,8,1
-6.926366e-05,-0.0002838381,8,1
-0.000201509,-0.000290969,8,1
-0.0002703867,-0.0003151167,8,1
-0.0002989102,-0.0003199787,8,1
-0.0003251648,-0.0002700626,8,1
-0.0003906392,-0.0001588858,8,1
-0.0005233706,-2.064406e-05,8,1
-0.0007259523,8.761557e-05,8,1
-0.000971157,0.0001213252,8,1
-0.001214579,7.465034e-05,8,1
-0.001402413,-2.534396e-05,8,1
-0.001497059,-0.0001336036,8,1
-0.001484256,-0.0002128535,8,1
-0.001364328,-0.0002447804,8,1
-0.001157532,-0.0002282497,8,1
-0.0008928794,-0.000174282,8,1
-0.0006071584,-0.0001079973,8,1
-0.0003301888,-7.104638e-05,8,1
-7.60704e-05,-9.956988e-05,8,1
0.0001446626,-0.0002023193,8,1
0.0003208276,-0.0003520676,8,1
0.0004402698,-0.0005032745,8,1
0.0004989374,-0.000608779,8,1
0.0005037994,-0.0006428128,8,1
0.0004736553,-0.0006082929,8,1
0.0004302217,-0.0005287188,8,1
0.00038614,-0.0004266177,8,1
0.0003324963,-0.0003198166,8,1
0.0002551911,-0.0002188499,8,1
0.000158114,-0.0001289037,8,1
5.56887e-05,-4.932962e-05,8,1
-2.988179e-05,2.570662e-05,8,1
-6.229485e-05,0.0001022015,8,1
2.531276e-06,0.0001814514,8,1
0.0001939304,0.0002576221,8,1
0.0004940755,0.0003269861,8,1
0.0008381404,0.000388895,8,1
0.001145741,0.0004472386,8,1
0.001352536,0.0005015305,8,1
0.001423845,0.000547395,8,1
0.001348323,0.0005872631,8,1
0.001126941,0.0006261588,8,1
0.000784983,0.0006665131,8,1
0.0003746333,0.0007071915,8,1
-3.604027e-05,0.0007477079,8,1
-0.0003922598,0.0007879001,8,1
-0.0006635571,0.0008225822,8,1
-0.0008436117,0.000849485,8,1
-0.0009371233,0.0008708776,8,1
-0.0009567332,0.0008956737,8,1
-0.0009223754,0.0009282488,8,1
-0.0008708386,0.0009570965,8,1
-0.0008408565,0.0009598516,8,1
-0.0008402083,0.0009199835,8,1
-0.0008428013,0.0008361956,8,1
-0.0008170329,0.0007251808,8,1
-0.0007560964,0.0006193521,8,1
-0.0006672846,0.0005576051,8,1
-0.0005512458,0.0005629533,8,1
-0.0004032803,0.000624052,8,1
-0.0002434839,0.0007047605,8,1
-0.00010978,0.0007490044,8,1
-2.226472e-05,0.0006964952,8,1
4.612685e-05,0.0005206542,8,1
0.0001349386,0.000249843,8,1
0.0002581083,-4.770897e-05,8,1
0.000393757,-0.0003060411,8,1
0.0005141716,-0.0004922541,8,1
0.0006054144,-0.0006040792,8,1
0.0006506307,-0.0006582089,8,1
0.0006251864,-0.0006711741,8,1
0.0005119027,-0.000653347,8,1
0.0003305515,-0.0006115342,8,1
0.0001385041,-0.0005564319,8,1
-9.299493e-06,-0.0005003574,8,1
-8.563225e-05,-0.0004546549,8,1
-8.903562e-05,-0.0004224039,8,1
-3.749886e-05,-0.0004039285,8,1
4.175109e-05,-0.0003955011,8,1
0.0001140322,-0.0003895047,8,1
0.0001425557,-0.0003814014,8,1
0.0001009049,-0.0003698948,8,1
-1.756482e-05,-0.0003562813,8,1
-0.0001820611,-0.0003363473,8,1
-0.0003297026,-0.0003037722,8,1
-0.0003985804,-0.0002517492,8,1
-0.0003583881,-0.0001778474,8,1
-0.0002151224,-8.741498e-05,8,1
1.002961e-07,8.041497e-06,8,1
0.0002376881,9.701536e-05,8,1
0.0004396215,0.0001824238,8,1
0.0005527431,0.0002712356,8,1
0.0005603603,0.000361506,8,1
0.0004807861,0.0004375147,8,1
0.0003629646,0.0004785172,8,1
0.000264753,0.0004611762,8,1
0.0002218057,0.0003777126,8,1
0.0002313675,0.0002406053,8,1
0.0002535705,7.90261e-05,8,1
0.0002337985,-7.493595e-05,8,1
0.000148228,-0.0001924333,8,1
1.484824e-05,-0.0002653627,8,1
-0.0001250141,-0.0002969654,8,1
-0.0002321393,-0.0002958309,8,1
-0.0002916173,-0.0002749245,8,1
-0.0003068514,-0.0002530457,8,1
-0.0002882139,-0.0002502906,8,1
-0.0002626076,-0.0002694143,8,1
-0.0002681178,-0.0002980999,8,1
-0.0003308371,-0.0003194925,8,1
-0.0004429862,-0.0003237062,8,1
-0.0005700454,-0.0003120375,8,1
-0.000678305,-0.0002951827,8,1
-0.0007488034,-0.0002818933,8,1
-0.000784944,-0.0002752487,8,1
-0.0008060125,-0.0002749245,8,1
-0.0008254603,-0.0002776796,8,1
-0.0008462047,-0.0002793003,8,1
-0.0008659766,-0.0002793003,8,1
-0.0008776453,-0.0002804347,8,1
-0.0008703524,-0.0002849726,8,1
-0.000841991,-0.0002921034,8,1
-0.0007915886,-0.0002955068,8,1
-0.0007112043,-0.0002914552,8,1
-0.0005880346,-0.0002828657,8,1
-0.000412518,-0.0002724935,8,1
-0.0001924333,-0.0002605007,8,1
5.034055e-05,-0.0002451045,8,1
0.0002827423,-0.0002227395,8,1
0.0004593935,-0.0001900023,8,1
0.0005420469,-0.0001478653,8,1
0.0005211404,-9.568031e-05,8,1
0.0004261701,-3.571614e-05,8,1
0.0003224483,2.116879e-05,8,1
0.00027707,6.379197e-05,8,1
0.000321638,9.21534e-05,8,1
0.0004289252,0.0001156529,8,1
0.0005483674,0.0001396385,8,1
0.0006451205,0.0001550348,8,1
0.0007037881,0.0001448246,8,1
0.0007261531,9.53947e-05,8,1
0.0007125397,8.851824e-06,8,1
0.0006554927,-9.924574e-05,8,1
0.0005496639,-0.0002036158,8,1
0.0004078567,-0.0002814071,8,1
0.0002689667,-0.0003209511,8,1
0.0001757791,-0.0003271096,8,1
0.0001414213,-0.0003081479,8,1
0.0001441764,-0.0002773555,8,1
0.0001412592,-0.0002460769,8,1
9.361199e-05,-0.0002290601,8,1
-1.124428e-05,-0.0002381357,8,1
-0.0001587237,-0.0002757348,8,1
-0.0003188442,-0.0003266234,8,1
-0.0004569239,-0.0003681121,8,1
-0.0005355255,-0.0003792946,8,1
-0.0005264499,-0.0003559572,8,1
-0.0004042526,-0.0003084721,8,1
-0.0001778474,-0.0002525595,8,1
9.426025e-05,-0.0001964849,8,1
0.000334117,-0.0001455964,8,1
0.0004867825,-0.0001015147,8,1
0.0005321609,-6.278104e-05,8,1
0.0004597176,-2.907146e-05,8,1
0.0002756114,2.04508e-06,8,1
2.149292e-05,3.056858e-05,8,1
-0.0002324634,5.61749e-05,8,1
-0.0004235384,7.983644e-05,8,1
-0.0005121881,9.993253e-05,8,1
-0.0004794509,0.0001224596,8,1
-0.0003313232,0.0001542244,8,1
-8.790117e-05,0.0002020337,8,1
0.0002161334,0.0002637806,8,1
0.0005331332,0.0003271482,8,1
0.0008138306,0.0003811159,8,1
0.001021112,0.000420984,8,1
0.001142986,0.0004491834,8,1
0.001195981,0.0004665244,8,1
0.001214781,0.0004798138,8,1
0.001256107,0.000500234,8,1
0.001370526,0.0005420469,8,1
0.001565005,0.0006101143,8,1
0.001801134,0.0006887161,8,1
0.002008093,0.0007383081,8,1
0.002099174,0.0007201568,8,1
0.002000151,0.0006284277,8,1
0.001691254,0.0004822447,8,1
0.001227098,0.0003166139,8,1
0.0007071915,0.000163138,8,1
0.0002279642,4.580272e-05,8,1
-0.0001598582,-2.031993e-05,8,1
-0.0004425001,-3.587821e-05,8,1
-0.0006267683,-1.497178e-05,8,1
-0.0007267626,2.651694e-05,8,1
-0.0007637134,7.546067e-05,8,1
-0.0007598239,0.0001166253,8,1
-0.0007264384,0.0001373696,8,1
-0.000650754,0.0001386662,8,1
-0.0005227224,0.0001265113,8,1
-0.0003557951,0.000108522,8,1
-0.0001823853,8.631905e-05,8,1
-4.446767e-05,6.184718e-05,8,1
1.906194e-05,4.337174e-05,8,1
-7.192643e-06,4.499239e-05,8,1
-0.0001133454,7.52986e-05,8,1
-0.0002708729,0.0001281319,8,1
-0.0004431483,0.0001936063,8,1
-0.0005984068,0.0002634565,8,1
-0.0007219006,0.0003315239,8,1
-0.000817357,0.0004018603,8,1
-0.0008959587,0.0004841895,8,1
-0.0009698605,0.0005887217,8,1
-0.001036631,0.0007101087,8,1
-0.001081523,0.00082712,8,1
-0.001098216,0.0009079906,8,1
-0.001096758,0.0009290591,8,1
-0.001080065,0.0008786568,8,1
-0.001029987,0.0007550009,8,1
-0.0009359888,0.0005639257,8,1
-0.0008186536,0.0003263378,8,1
-0.0007285453,7.740546e-05,8,1
-0.0007053699,-0.0001404103,8,1
-0.0007541516,-0.0002985861,8,1
-0.0008504183,-0.0003891806,8,1
-0.000956247,-0.000420135,8,1
-0.00103258,-0.0004074939,8,1
-0.001055269,-0.0003708672,8,1
-0.001030473,-0.0003309991,8,1
-0.0009865533,-0.0003021515,8,1
-0.0009361509,-0.0002961551,8,1
-0.0008632215,-0.0003175477,8,1
-0.000742807,-0.0003619536,8,1
-0.0005760419,-0.0004185144,8,1
-0.0003961493,-0.0004703753,8,1
-0.0002408908,-0.0005053814,8,1
-0.0001282554,-0.0005154294,8,1
-5.483985e-05,-0.0004988988,8,1
-1.545797e-05,-0.0004614617,8,1
-1.124428e-05,-0.000417542,8,1
-3.668853e-05,-0.0003825359,8,1
-7.817725e-05,-0.0003650328,8,1
-0.000114804,-0.0003651949,8,1
-0.0001352242,-0.0003728119,8,1
-0.0001381414,-0.0003747568,8,1
-0.0001266348,-0.0003632501,8,1
-9.762509e-05,-0.0003371576,8,1
-4.138842e-05,-0.0003074997,8,1
5.001642e-05,-0.0002916173,8,1
0.0001777239,-0.0002953447,8,1
0.0003324963,-0.0003126857,8,1
0.0004966686,-0.0003253268,8,1
0.0006601926,-0.0003138202,8,1
0.0008207994,-0.0002690902,8,1
0.0009739513,-0.0001979435,8,1
0.001109276,-0.0001151281,8,1
0.001215105,-4.219875e-05,8,1
0.001292248,5.448452e-06,8,1
0.001359019,2.651694e-05,8,1
0.001423521,3.348575e-05,8,1
0.0014689,3.996837e-05,8,1
0.001474248,5.779555e-05,8,1
0.001438431,9.069481e-05,8,1
0.001390946,0.0001329939,8,1
0.001374091,0.0001738343,8,1
0.001402453,0.0002047888,8,1
0.001455286,0.0002180782,8,1
0.001489158,0.0002148369,8,1
0.001461445,0.0001981441,8,1
0.00134654,0.0001743205,8,1
0.001132938,0.0001500107,8,1
0.0008237166,0.0001219734,8,1
0.0004525868,7.6271e-05,8,1
8.84259e-05,1.558884e-06,8,1
-0.0001938919,-9.746302e-05,8,1
-0.0003567675,-0.0002060468,8,1
-0.0004285624,-0.0003060411,8,1
-0.0004753993,-0.0003882082,8,1
-0.00055157,-0.0004527101,8,1
-0.0006706879,-0.000504409,8,1
-0.0008128192,-0.0005371462,8,1
-0.000931451,-0.0005251534,8,1
-0.0009773155,-0.0004390967,8,1
-0.0009267511,-0.0002818933,8,1
-0.0007953162,-0.0001054042,8,1
-0.0006402197,2.570662e-05,8,1
-0.0005277464,7.772959e-05,8,1
-0.0004937127,5.066468e-05,8,1
-0.0005350393,-2.728874e-05,8,1
-0.0006478368,-0.0001102662,8,1
-0.000814764,-0.0001559686,8,1
-0.0009873635,-0.000147055,8,1
-0.001113937,-8.611845e-05,8,1
-0.001161746,1.371378e-05,8,1
-0.001132412,0.0001373696,8,1
-0.001054134,0.0002688046,8,1
-0.0009572194,0.0003778746,8,1
-0.0008515528,0.0004342734,8,1
-0.0007220627,0.0004206599,8,1
-0.0005475183,0.0003446512,8,1
-0.0003425058,0.0002303951,8,1
-0.0001433275,0.0001064152,8,1
2.667901e-05,-7.100305e-07,8,1
0.0001571416,-7.201877e-05,8,1
0.000250005,-0.0001015147,8,1
0.0003115899,-9.600444e-05,8,1
0.0003461098,-7.444975e-05,8,1
0.0003551855,-6.197072e-05,8,1
0.0003405996,-7.931171e-05,8,1
0.0003101313,-0.0001269589,8,1
0.0002735045,-0.0001746061,8,1
0.0002221298,-0.0001895161,8,1
0.0001368834,-0.0001626133,8,1
6.096713e-06,-0.00010978,8,1
-0.0001583996,-5.840528e-05,8,1
-0.0003264613,-2.599222e-05,8,1
-0.0004536825,-1.286493e-05,8,1
-0.0004912817,4.244267e-07,8,1
-0.0004005251,4.110282e-05,8,1
-0.0001561307,0.0001360731,8,1
0.0002401191,0.0002924662,8,1
0.0007441425,0.0004874308,8,1
0.001289331,0.0006791542,8,1
0.001805186,0.000839437,8,1
0.002218616,0.0009690893,8,1
0.002465605,0.001089018,8,1
0.002501583,0.001217374,8,1
0.002322176,0.001343461,8,1
0.001969845,0.001423197,8,1
0.001518816,0.001400346,8,1
0.001052553,0.001247356,8,1
0.0006469032,0.0009807581,8,1
0.0003553475,0.0006396103,8,1
0.0001923098,0.0002819319,8,1
0.0001316974,-3.490581e-05,8,1
0.0001269974,-0.0002669833,8,1
0.0001276457,-0.0003924218,8,1
8.939829e-05,-0.0004181903,8,1
-5.409925e-06,-0.0003726499,8,1
-0.0001498101,-0.0002914552,8,1
-0.0003165753,-0.0002084778,8,1
-0.0004762096,-0.0001575893,8,1
-0.0006118583,-0.000169258,8,1
-0.0007236833,-0.0002442942,8,1
-0.0008134675,-0.0003515814,8,1
-0.0008862348,-0.0004528722,8,1
-0.0009432817,-0.0005159156,8,1
-0.0009774775,-0.0005270981,8,1
-0.0009773155,-0.0004883645,8,1
-0.0009371233,-0.0004130042,8,1
-0.0008616009,-0.0003227338,8,1
-0.000772465,-0.0002421874,8,1
-0.0007040734,-0.0001893541,8,1
-0.0006802498,-0.0001716889,8,1
-0.0006961322,-0.0001794681,8,1
-0.0007175248,-0.0001875713,8,1
-0.0007082871,-0.0001749302,8,1
-0.0006536711,-0.0001397621,8,1
-0.0005705316,-9.892161e-05,8,1
-0.0004835025,-7.201877e-05,8,1
-0.000415111,-6.650855e-05,8,1
-0.0003724878,-7.574627e-05,8,1
-0.0003496366,-8.547019e-05,8,1
-0.0003384541,-8.222889e-05,8,1
-0.0003523917,-6.602235e-05,8,1
-0.0004360174,-4.43056e-05,8,1
-0.0006220684,-2.453363e-05,8,1
-0.0008828315,-1.108221e-05,8,1
-0.001144567,-7.678839e-06,8,1
-0.001308091,-2.291298e-05,8,1
-0.001299663,-6.278104e-05,8,1
-0.001113612,-0.0001182074,8,1
-0.0008111986,-0.0001723372,8,1
-0.0004851232,-0.0002143121,8,1
-0.0002284118,-0.0002451045,8,1
-9.697683e-05,-0.0002677937,8,1
-8.741498e-05,-0.0002844864,8,1
-0.000144624,-0.0002930758,8,1
-0.0002013469,-0.000288538,8,1
-0.0002053985,-0.0002674695,8,1
-0.0001408965,-0.0002285739,8,1
-2.210265e-05,-0.0001794681,8,1
0.0001158149,-0.0001374932,8,1
0.0002388225,-0.0001170729,8,1
0.0003240689,-0.0001195039,8,1
0.0003734989,-0.0001379794,8,1
0.000403643,-0.0001605064,8,1
0.0004279528,-0.0001747682,8,1
0.0004475628,-0.0001752544,8,1
0.00046069,-0.0001679614,8,1
0.0004537212,-0.0001582375,8,1
0.0003989431,-0.0001477033,8,1
0.0002749631,-0.000137169,8,1
9.652917e-05,-0.0001259865,8,1
-7.60704e-05,-0.0001133454,8,1
-0.0001538618,-0.0001000561,8,1
-5.240886e-05,-8.303922e-05,8,1
0.0002545429,-5.970181e-05,8,1
0.0007024916,-3.474375e-05,8,1
0.001185447,-1.20546e-05,8,1
0.00159758,7.555301e-06,8,1
0.001854616,2.522042e-05,8,1
0.001907612,4.418206e-05,8,1
0.001758511,5.94162e-05,8,1
0.001454962,7.027458e-05,8,1
0.001070542,7.740546e-05,8,1
0.0006684579,8.194328e-05,8,1
0.0002741528,8.388807e-05,8,1
-9.276313e-05,7.918817e-05,8,1
-0.0004008493,6.962632e-05,8,1
-0.0006159099,6.200925e-05,8,1
-0.0007034251,5.649903e-05,8,1
-0.0006363301,5.536457e-05,8,1
-0.0004089525,5.844381e-05,8,1
-4.333321e-05,6.395404e-05,8,1
0.0003963501,7.092284e-05,8,1
0.0008256614,7.57848e-05,8,1
0.001181071,7.610894e-05,8,1
0.001425628,7.497447e-05,8,1
0.001543936,7.821578e-05,8,1
0.001532754,8.696731e-05,8,1
0.001399049,9.944634e-05,8,1
0.001164216,0.0001132219,8,1
0.0008694191,0.0001268354,8,1
0.0005601982,0.0001417454,8,1
0.000284687,0.0001587623,8,1
7.691926e-05,0.0001725378,8,1
-6.748094e-05,0.0001717275,8,1
-0.0001882196,0.0001344524,8,1
-0.0003186821,3.737532e-05,8,1
-0.0004651892,-0.0001282554,8,1
-0.0006134789,-0.0003361852,8,1
-0.000747831,-0.0005386047,8,1
-0.0008611146,-0.0006893255,8,1
-0.0009500885,-0.0007667927,8,1
-0.0009991943,-0.0007711684,8,1
-0.0009872015,-0.0007142835,8,1
-0.0008987138,-0.0006116962,8,1
-0.0007296797,-0.0004778303,8,1
-0.0004972781,-0.0003219235,8,1
-0.0002408908,-0.0001580754,8,1
7.23117e-06,-3.465141e-06,8,1
0.000237526,0.0001276457,8,1
0.0004477248,0.0002354192,8,1
0.0006248623,0.0003255275,8,1
0.0007362012,0.0004166082,8,1
0.0007481941,0.0005243817,8,1
0.0006582477,0.000651441,8,1
0.0004981271,0.0007814175,8,1
0.0003114278,0.0008953495,8,1
0.0001398006,0.0009859442,8,1
-8.720959e-07,0.00106098,8,1
-0.0001251762,0.001134234,8,1
-0.0002577456,0.001216726,8,1
-0.0004143007,0.001307644,8,1
-0.0005886829,0.001403587,8,1
-0.0007570688,0.001503744,8,1
-0.0008961208,0.001608438,8,1
-0.0009948185,0.001718481,8,1
-0.001051703,0.001817827,8,1
-0.001071151,0.001875361,8,1
-0.001057052,0.001855264,8,1
-0.0009966013,0.001729177,8,1
-0.0008727834,0.001485592,8,1
-0.0007078009,0.001138772,8,1
-0.0005650214,0.0007284221,8,1
-0.0005003574,0.0003114278,8,1
-0.0005295291,-5.532604e-05,8,1
-0.0006266062,-0.0003361852,8,1
-0.0007573929,-0.0005240189,8,1
-0.0008970932,-0.000640868,8,1
-0.001021235,-0.0007176869,8,1
-0.001094651,-0.0007838095,8,1
-0.00108282,-0.0008551183,8,1
-0.0009782879,-0.0009353406,8,1
-0.0007982334,-0.001013294,8,1
-0.0005791211,-0.001072286,8,1
-0.0003486642,-0.001105671,8,1
-0.0001067007,-0.001119285,8,1
0.0001616794,-0.001122202,8,1
0.0004608521,-0.001118799,8,1
0.000760349,-0.001110695,8,1
0.001008633,-0.001101295,8,1
0.001161947,-0.001093516,8,1
0.001202302,-0.001089627,8,1
0.001143796,-0.001088816,8,1
0.001018033,-0.001085251,8,1
0.0008575883,-0.001070017,8,1
0.0006948746,-0.001037604,8,1
0.000562305,-0.0009872015,8,1
0.0004893756,-0.0009209168,8,1
0.0005008822,-0.0008440978,8,1
0.0006083316,-0.0007638755,8,1
0.0007903311,-0.0006873807,8,1
0.0009862683,-0.0006168823,8,1
0.001114462,-0.0005488148,8,1
0.001106683,-0.0004875542,8,1
0.0009423485,-0.0004343968,8,1
0.0006499824,-0.0003861013,8,1
0.0002906835,-0.0003366714,8,1
-6.602235e-05,-0.0002880518,8,1
-0.0003609812,-0.0002417012,8,1
-0.0005659938,-0.000199078,8,1
-0.000683005,-0.0001606685,8,1
-0.0007332452,-0.000127283,8,1
-0.0007543136,-9.389759e-05,8,1
-0.000782351,-5.176061e-05,8,1
-0.0008342119,7.555301e-06,8,1
-0.0009048723,8.810177e-05,8,1
-0.0009745604,0.0001843686,8,1
-0.001020263,0.0002811216,8,1
-0.001018642,0.0003631267,8,1
-0.0009432817,0.0004251977,8,1
-0.0007723029,0.0004709002,8,1
-0.0005099192,0.0004945617,8,1
-0.0001958367,0.0004713863,8,1
0.0001125736,0.0003859779,8,1
0.0003589129,0.0002477361,8,1
0.0005120648,8.486046e-05,8,1
0.0005726772,-6.634648e-05,8,1
0.0005673291,-0.000176713,8,1
0.0005329712,-0.0002274394,8,1
0.0004963444,-0.0002130156,8,1
0.0004781931,-0.0001384655,8,1
0.0004919686,-3.085418e-05,8,1
0.0005407503,6.670914e-05,8,1
0.0006204865,0.0001205148,8,1
0.0007209671,0.0001180839,8,1
0.0008128582,6.751948e-05,8,1
0.0008486747,-1.027188e-05,8,1
0.0007864416,-9.486997e-05,8,1
0.000606873,-0.0001645581,8,1
0.0003276344,-0.0002000504,8,1
-2.654814e-06,-0.0001903264,8,1
-0.0003264613,-0.0001340898,8,1
-0.000593869,-4.592625e-05,8,1
-0.0007766787,5.714729e-05,8,1
-0.0008659766,0.0001579519,8,1
-0.0008695421,0.0002467637,8,1
-0.0007867267,0.0003264999,8,1
-0.0006089411,0.0003992672,8,1
-0.0003342404,0.0004645796,8,1
1.274139e-05,0.00052503,8,1
0.0003827366,0.0005836976,8,1
0.0007084881,0.0006438239,8,1
0.0009125285,0.0007015193,8,1
0.0009363521,0.0007426839,8,1
0.0007681281,0.0007494906,8,1
0.0004639314,0.0007052467,8,1
0.0001081979,0.0006078454,8,1
-0.0002465631,0.0004762483,8,1
-0.0005809038,0.0003470822,8,1
-0.0008697041,0.0002616738,8,1
-0.001071475,0.0002519498,8,1
-0.001157208,0.0003261758,8,1
-0.001129819,0.0004660382,8,1
-0.001015077,0.0006360448,8,1
-0.0008366429,0.0007956792,8,1
-0.0006027826,0.0009118802,8,1
-0.0003117133,0.0009522345,8,1
1.857574e-05,0.0009006977,8,1
0.0003487029,0.0007681281,8,1
0.0006383138,0.000589532,8,1
0.0008699053,0.0004086671,8,1
0.00103586,0.0002668598,8,1
0.001130993,0.0001809652,8,1
0.001156113,0.0001349386,8,1
0.001122079,0.0001022015,8,1
0.001033753,5.666109e-05,8,1
0.0008765499,-1.140634e-05,8,1
0.0006407447,-9.584238e-05,8,1
0.000368799,-0.0001833576,8,1
0.0001329939,-0.0002605007,8,1
-7.354709e-06,-0.0003203028,8,1
-4.025397e-05,-0.0003595226,8,1
-2.168618e-06,-0.0003773498,8,1
7.043665e-05,-0.0003700569,8,1
0.0001722137,-0.000345585,8,1
0.0003175863,-0.0003172236,8,1
0.0005219508,-0.0002982619,8,1
0.0007806072,-0.0002966413,8,1
0.001054336,-0.0003096065,8,1
0.001272638,-0.00032322,8,1
0.001357074,-0.0003293785,8,1
0.001266318,-0.0003219235,8,1
0.001013495,-0.000305879,8,1
0.0006608408,-0.0002878898,8,1
0.0002937627,-0.0002754107,8,1
-1.286493e-05,-0.0002716832,8,1
-0.0002198223,-0.000278652,8,1
-0.0003399127,-0.0002946965,8,1
-0.000410249,-0.0003151167,8,1
-0.0004687546,-0.0003366714,8,1
-0.0005364979,-0.0003507711,8,1
-0.0006115342,-0.0003497987,8,1
-0.000683005,-0.0003298647,8,1
-0.0007398899,-0.0002919414,8,1
-0.0007729512,-0.0002405667,8,1
-0.0007810544,-0.0001806025,8,1
-0.0007734374,-0.0001201522,8,1
-0.0007661444,-6.893953e-05,8,1
-0.0007734374,-3.620233e-05,8,1
-0.0008039057,-2.372331e-05,8,1
-0.0008533355,-2.971972e-05,8,1
-0.0009061688,-4.138842e-05,8,1
-0.0009395542,-4.544006e-05,8,1
-0.0009408508,-3.830919e-05,8,1
-0.0009123273,-2.745081e-05,8,1
-0.000871811,-2.080613e-05,8,1
-0.0008431255,-1.886135e-05,8,1
-0.0008319429,-2.080613e-05,8,1
-0.0008334015,-2.194059e-05,8,1
-0.0008439358,-2.372331e-05,8,1
-0.0008572251,-2.485776e-05,8,1
-0.000859494,-1.756482e-05,8,1
-0.0008340498,3.827799e-06,8,1
-0.0007807303,3.93201e-05,8,1
-0.0007125008,7.886404e-05,8,1
-0.0006405439,0.0001117633,8,1
-0.000561456,0.0001274836,8,1
-0.0004583824,0.0001252147,8,1
-0.0003177098,0.000103498,8,1
-0.0001329553,6.103686e-05,8,1
8.405014e-05,-2.654814e-06,8,1
0.0002992729,-8.093236e-05,8,1
0.000467983,-0.0001632615,8,1
0.0005431813,-0.0002381357,8,1
0.0004858102,-0.0002946965,8,1
0.000304297,-0.0003271096,8,1
6.508849e-05,-0.0003397507,8,1
-0.0001342519,-0.0003392644,8,1
-0.0002011848,-0.000330675,8,1
-7.963584e-05,-0.0003193304,8,1
0.000230071,-0.0003087962,8,1
0.0006669993,-0.000300855,8,1
0.001136017,-0.0002940482,8,1
0.001543288,-0.000286107,8,1
0.001825444,-0.0002757348,8,1
0.001954773,-0.0002596904,8,1
0.001937108,-0.0002284118,8,1
0.001813938,-0.0001716889,8,1
0.001637448,-8.660465e-05,8,1
0.001451396,2.133085e-05,8,1
0.001276042,0.0001373696,8,1
0.001106521,0.0002441707,8,1
0.0009219283,0.0003245551,8,1
0.0007052467,0.0003624784,8,1
0.0004603659,0.0003550234,8,1
0.0002083542,0.0003098072,8,1
-1.967167e-05,0.0002380122,8,1
-0.0002131776,0.0001550348,8,1
-0.0003867496,7.643307e-05,8,1
-0.0005609698,1.663096e-05,8,1
-0.000740376,-2.242678e-05,8,1
-0.0009136238,-4.43056e-05,8,1
-0.001057214,-5.338126e-05,8,1
-0.001153805,-5.467778e-05,8,1
-0.001205341,-5.257093e-05,8,1
-0.001232244,-5.889148e-05,8,1
-0.001248937,-0.0001003802,8,1
-0.001245209,-0.0001989159,8,1
-0.001199507,-0.0003468815,8,1
-0.001111668,-0.0005188328,8,1
-0.001008756,-0.0006763602,8,1
-0.0009154066,-0.0007841337,8,1
-0.0008329154,-0.0008287016,8,1
-0.0007450759,-0.0008256224,8,1
-0.0006304958,-0.0008009885,8,1
-0.000482206,-0.0007663065,8,1
-0.0003146305,-0.0007150938,8,1
-0.0001442999,-0.0006314681,8,1
3.218923e-05,-0.0005055434,8,1
0.0002261814,-0.0003465574,8,1
0.0004310321,-0.0001815749,8,1
0.0006174073,-4.025397e-05,8,1
0.0007331221,5.714729e-05,8,1
0.0007324737,0.0001127357,8,1
0.0006130316,0.0001514693,8,1
0.0004204978,0.0002080301,8,1
0.00024255,0.0003046211,8,1
0.000185341,0.0004477248,8,1
0.0003256896,0.0006298863,8,1
0.0006600305,0.0008313337,8,1
0.001097121,0.00103505,8,1
0.001517195,0.001230825,8,1
0.001826093,0.00141088,8,1
0.001974059,0.001572622,8,1
0.001958824,0.001719291,8,1
0.001806645,0.001854616,8,1
0.001558684,0.001969359,8,1
0.001254811,0.002043423,8,1
0.0009284109,0.002059305,8,1
0.0006059006,0.002013927,8,1
0.0003112658,0.001915877,8,1
6.379197e-05,0.001784117,8,1
-0.0001248521,0.001629669,8,1
-0.0002595283,0.001459014,8,1
-0.0003535262,0.001280417,8,1
-0.0004214316,0.001101335,8,1
-0.0004802613,0.0009229007,8,1
-0.0005514079,0.000738146,8,1
-0.0006449196,0.0005370228,8,1
-0.0007590136,0.0003102934,8,1
-0.0008802384,5.390598e-05,8,1
-0.0009930359,-0.0002191741,8,1
-0.001064993,-0.0004825302,8,1
-0.00106402,-0.0007050458,8,1
-0.0009902808,-0.0008661387,8,1
-0.0008638698,-0.0009526816,8,1
-0.0007181731,-0.0009700225,8,1
-0.0005810658,-0.0009445783,8,1
-0.0004653512,-0.0009053585,8,1
-0.0003692465,-0.0008747282,8,1
-0.0002831898,-0.0008616009,8,1
-0.0001919471,-0.0008677593,8,1
-8.255302e-05,-0.0008889899,8,1
3.348575e-05,-0.0009157307,8,1
0.0001250527,-0.000936475,8,1
0.0001757791,-0.0009476576,8,1
0.0001850168,-0.0009427955,8,1
0.0001657311,-0.0009184858,8,1
0.0001286181,-0.0008779695,8,1
7.30297e-05,-0.0008290258,8,1
5.448452e-06,-0.000780082,8,1
-6.472583e-05,-0.0007358382,8,1
-0.0001365208,-0.000695646,8,1
-0.0002109087,-0.0006561021,8,1
-0.0002904828,-0.0006152617,8,1
-0.0003716775,-0.0005672903,8,1
-0.0004442827,-0.0005134846,8,1
-0.0004946851,-0.0004608134,8,1
-0.0005164018,-0.0004159214,8,1
-0.0005207775,-0.0003804291,8,1
-0.0005363359,-0.0003551469,8,1
-0.0005786349,-0.0003321336,8,1
-0.0006390853,-0.000303286,8,1
-0.000695646,-0.0002666592,8,1
-0.0007272488,-0.0002277635,8,1
-0.0007288694,-0.0001934057,8,1
-0.0007061802,-0.0001702304,8,1
-0.0006711741,-0.0001543479,8,1
-0.0006371404,-0.0001376552,8,1
-0.0006129927,-0.0001092938,8,1
-0.0005891691,-6.974985e-05,8,1
-0.0005361738,-3.069211e-05,8,1
-0.0004143007,-7.030578e-06,8,1
-0.0002083157,-1.059602e-05,8,1
6.265751e-05,-4.106429e-05,8,1
0.0003637749,-8.838737e-05,8,1
0.0006431757,-0.0001303623,8,1
0.0008433265,-0.0001441378,8,1
0.0009395934,-0.000119666,8,1
0.000948507,-6.213279e-05,8,1
0.0009058838,1.160693e-05,8,1
0.0008439748,7.724339e-05,8,1
0.0007794728,0.0001166253,8,1
0.0007274497,0.0001278078,8,1
0.0007036261,0.0001255389,8,1
0.0007128638,0.000125863,8,1
0.00074317,0.0001398006,8,1
0.0007575939,0.0001699448,8,1
0.0007193465,0.0002120818,8,1
0.000616759,0.0002590807,8,1
0.0004720346,0.0003081865,8,1
0.0003221241,0.0003556717,8,1
0.0002039785,0.0003978086,8,1
0.000143204,0.0004302217,8,1
0.0001430419,0.0004493454,8,1
0.0001820997,0.0004540453,8,1
0.0002188885,0.0004452938,8,1
0.0002227781,0.0004239012,8,1
0.0001775618,0.0003872744,8,1
7.076078e-05,0.0003360618,8,1
-9.405965e-05,0.0002629703,8,1
-0.0002707109,0.0001582761,8,1
-0.0003820497,1.808955e-05,8,1
-0.0003630881,-0.0001477033,8,1
-0.0002026434,-0.0003196545,8,1
6.265751e-05,-0.0004729683,8,1
0.0003733368,-0.0005886829,8,1
0.0006783439,-0.0006548056,8,1
0.0009323005,-0.0006737672,8,1
0.001101983,-0.0006577228,8,1
0.001159678,-0.000621258,8,1
0.001101821,-0.0005770142,8,1
0.0009609861,-0.000529205,8,1
0.0007900069,-0.0004783165,8,1
0.0006331276,-0.0004212695,8,1
0.0005086614,-0.0003590364,8,1
0.0004157979,-0.000293562,8,1
0.0003423823,-0.0002225774,8,1
0.0002639427,-0.0001460826,8,1
0.0001451488,-6.472583e-05,8,1
-3.879538e-05,2.003433e-05,8,1
-0.000271035,0.0001077117,8,1
-0.0005086227,0.0002033302,8,1
-0.000713149,0.000304297,8,1
-0.0008528493,0.0004038051,8,1
-0.0009081136,0.0005049339,8,1
-0.0008710006,0.0006182176,8,1
-0.0007505861,0.0007584042,8,1
-0.0005668041,0.0009276005,8,1
-0.0003483401,0.001102793,8,1
-0.0001404103,0.001253028,8,1
5.772582e-06,0.001350268,8,1
5.504044e-05,0.001381384,8,1
1.720949e-06,0.001346216,8,1
-0.0001336036,0.001249301,8,1
-0.0003159271,0.001110086,8,1
-0.0005091089,0.0009501277,8,1
-0.0006763602,0.0007862795,8,1
-0.000797261,0.000624052,8,1
-0.000881697,0.0004600418,8,1
-0.0009640261,0.0002944109,8,1
-0.001069693,0.000135749,8,1
-0.001190107,-1.358292e-06,8,1
-0.001292857,-0.0001062146,8,1
-0.001343259,-0.000174444,8,1
-0.001319273,-0.0002104225,8,1
-0.001213283,-0.0002233878,8,1
-0.001032256,-0.0002241981,8,1
-0.0007969369,-0.0002256567,8,1
-0.0005376324,-0.0002366771,8,1
-0.0002852967,-0.000256287,8,1
-6.44017e-05,-0.0002773555,8,1
0.0001150046,-0.0002912931,8,1
0.0002561635,-0.0002961551,8,1
0.0003666921,-0.0002929138,8,1
0.0004553419,-0.0002828657,8,1
0.0005308643,-0.0002690902,8,1
0.0006050903,-0.0002558008,8,1
0.0006820714,-0.0002444563,8,1
0.0007477079,-0.000236353,8,1
0.0007913035,-0.0002319772,8,1
0.0008120479,-0.000231491,8,1
0.0008083204,-0.0002326255,8,1
0.0007614834,-0.0002365151,8,1
0.0006366931,-0.0002423494,8,1
0.0004193634,-0.0002489941,8,1
0.0001339663,-0.0002532078,8,1
-0.0001656925,-0.0002545043,8,1
-0.0004215936,-0.000253694,8,1
-0.0005917621,-0.0002502906,8,1
-0.0006541573,-0.0002442942,8,1
-0.000608779,-0.0002350565,8,1
-0.0004755614,-0.0002230636,8,1
-0.0002875656,-0.0002079916,8,1
-8.514606e-05,-0.0001909747,8,1
9.199134e-05,-0.0001731475,8,1
0.0002145127,-0.0001572651,8,1
0.0002683184,-0.000142031,8,1
0.0002592428,-0.0001324691,8,1
0.0002012234,-0.0001337657,8,1
0.0001112771,-0.0001506204,8,1
8.689758e-06,-0.000181737,8,1
-8.514606e-05,-0.0002207947,8,1
-0.0001421931,-0.000256287,8,1
-0.000134576,-0.0002840002,8,1
-4.560212e-05,-0.0003027998,8,1
0.000113384,-0.0003092824,8,1
0.0003175863,-0.0002979378,8,1
0.0005368608,-0.0002692523,8,1
0.000743008,-0.0002267911,8,1
0.0009180387,-0.0001739578,8,1
0.001051419,-0.0001164247,8,1
0.001131155,-5.727083e-05,8,1
0.001146551,-4.113403e-06,8,1
0.001092421,3.316162e-05,8,1
0.0009721686,5.504044e-05,8,1
0.0008010275,6.168512e-05,8,1
0.0006062248,5.536457e-05,8,1
0.0004253598,3.769945e-05,8,1
0.0002914938,9.175954e-06,8,1
0.0002255332,-2.728874e-05,8,1
0.000220185,-6.099833e-05,8,1
0.0002508154,-7.736692e-05,8,1
0.0002782044,-6.407757e-05,8,1
0.0002686426,-2.307504e-05,8,1
0.0002193747,3.008238e-05,8,1
0.0001645966,7.384002e-05,8,1
0.0001315353,9.361199e-05,8,1
0.0001069013,8.875003e-05,8,1
5.94162e-05,6.638502e-05,8,1
-2.988179e-05,3.55926e-05,8,1
-0.0001723372,1.014835e-05,8,1
-0.0003749188,-4.599598e-06,8,1
-0.0006338991,-1.513384e-05,8,1
-0.0009288579,-3.231277e-05,8,1
-0.001240347,-6.39155e-05,8,1
-0.001536117,-0.0001161005,8,1
-0.001757012,-0.0001963229,8,1
-0.001833831,-0.0003049066,8,1
-0.001734323,-0.0004335865,8,1
-0.001474856,-0.0005634008,8,1
-0.001113937,-0.0006794395,8,1
-0.0007186593,-0.0007766787,8,1
-0.0003442885,-0.0008515528,8,1
-2.145439e-05,-0.0008883416,8,1
0.0002360674,-0.0008607905,8,1
0.0004294114,-0.0007494517,8,1
0.000567005,-0.0005624284,8,1
0.0006601926,-0.0003340784,8,1
0.0007235601,-0.0001128592,8,1
0.0007609973,6.800567e-05,8,1
0.0007648868,0.0001989545,8,1
0.0007292324,0.0002879283,8,1
0.0006614891,0.0003576164,8,1
0.0005764047,0.0004268184,8,1
0.0004825689,0.0005049339,8,1
0.0003819262,0.0005828873,8,1
0.0002791768,0.0006412309,8,1
0.0001791825,0.0006707268,8,1
8.032264e-05,0.0006872575,8,1
1.558884e-06,0.0007114052,8,1
-6.706447e-06,0.0007533802,8,1
0.0001072255,0.0008156133,8,1
0.0003582647,0.0008929186,8,1
0.0007063812,0.0009801098,8,1
0.001070542,0.00107589,8,1
0.001360154,0.00117945,8,1
0.001502447,0.001276042,8,1
0.001467603,0.001339895,8,1
0.001272476,0.001348809,8,1
0.0009749237,0.001288196,8,1
0.0006368551,0.001170213,8,1
0.000304297,0.00102014,8,1
-2.006553e-06,0.0008720121,8,1
-0.0002742763,0.000750625,8,1
-0.0004951713,0.0006595443,8,1
-0.0006457299,0.0005781874,8,1
-0.0007116905,0.0004843516,8,1
-0.0007006701,0.0003710679,8,1
-0.0006450817,0.0002487085,8,1
-0.0005852795,0.0001399627,8,1
-0.0005433047,5.893001e-05,8,1
-0.0005198052,7.069105e-06,8,1
-0.0005065158,-2.307504e-05,8,1
-0.0004985746,-4.122636e-05,8,1
-0.0004998712,-6.06742e-05,8,1
-0.0005151053,-0.0001002181,8,1
-0.0005496252,-0.0001731475,8,1
-0.0006022964,-0.0002908069,8,1
-0.0006629088,-0.0004407173,8,1
-0.0007139594,-0.0005930586,8,1
-0.0007416725,-0.00072028,8,1
-0.000740376,-0.0008107124,8,1
-0.0007201179,-0.0008633836,8,1
-0.0006949978,-0.000879266,8,1
-0.0006839773,-0.0008607905,8,1
-0.0006985632,-0.0008120089,8,1
-0.0007361624,-0.0007419967,8,1
-0.000780082,-0.0006577228,8,1
-0.0008133054,-0.0005653456,8,1
-0.0008340498,-0.0004768579,8,1
-0.0008526873,-0.0004039285,8,1
-0.0008761868,-0.000350447,8,1
-0.0008920691,-0.0003104168,8,1
-0.0008855865,-0.0002825416,8,1
-0.0008457185,-0.0002726556,8,1
-0.0007734374,-0.0002916173,8,1
-0.0006820326,-0.0003463953,8,1
-0.0005865761,-0.0004425001,8,1
-0.0005003574,-0.000586414,8,1
-0.0004272659,-0.0007688995,8,1
-0.0003609812,-0.0009620814,8,1
-0.0002882139,-0.001133871,8,1
-0.0001959987,-0.001259309,8,1
-7.801519e-05,-0.001314411,8,1
5.94162e-05,-0.001278109,8,1
0.0001987924,-0.001140191,8,1
0.0003185587,-0.0009087619,8,1
0.0004114222,-0.0006074825,8,1
0.0004856481,-0.0002715212,8,1
0.0005592257,6.41161e-05,8,1
0.0006459308,0.0003592371,8,1
0.0007503009,0.0005793219,8,1
0.0008702294,0.0007047605,8,1
0.001004258,0.000738146,8,1
0.001157896,0.0006994124,8,1
0.001344433,0.0006188659,8,1
0.001559332,0.0005264886,8,1
0.001773259,0.0004360561,8,1
0.001950073,0.000351458,8,1
0.002065788,0.0002751252,8,1
0.002097715,0.0002171058,8,1
0.00202673,0.0001837203,8,1
0.001847647,0.000168,8,1
0.001578942,0.0001571416,8,1
0.001251245,0.0001475797,8,1
0.0009029666,0.0001479039,8,1
0.00056976,0.0001642725,8,1
0.000282256,0.0001921477,8,1
4.693717e-05,0.0002135403,8,1
-0.0001562927,0.0002227781,8,1
-0.0003452609,0.0002287745,8,1
-0.0005308256,0.0002495189,8,1
-0.000710718,0.00029198,8,1
-0.0008684076,0.0003495132,8,1
-0.0009795844,0.000411098,8,1
-0.001025935,0.0004668485,8,1
-0.001011349,0.0005084993,8,1
-0.0009596504,0.0005294057,8,1
-0.0008932036,0.0005271368,8,1
-0.000817357,0.0004989374,8,1
-0.0007280591,0.0004461041,8,1
-0.0006279027,0.0003692851,8,1
-0.000529205,0.0002791768,8,1
-0.0004570859,0.0001911753,8,1
-0.0004331002,0.0001175977,8,1
-0.0004546549,6.444023e-05,8,1
-0.0004946851,3.218923e-05,8,1
-0.00051705,1.436204e-05,8,1
-0.0004904714,7.555301e-06,8,1
-0.0004061974,1.306552e-05,8,1
-0.0002776796,2.992031e-05,8,1
-0.0001326312,5.390598e-05,8,1
6.258778e-06,7.724339e-05,8,1
0.0001177597,9.458438e-05,8,1
0.0001851789,0.0001051186,8,1
0.0002119197,0.000110953,8,1
0.000210299,0.0001093323,8,1
0.0001913374,9.344993e-05,8,1
0.0001710792,5.974033e-05,8,1
0.0001762653,9.824215e-06,8,1
0.0002315296,-4.446767e-05,8,1
0.0003282826,-9.422172e-05,8,1
0.0004300596,-0.0001373311,8,1
0.0004900239,-0.0001778474,8,1
0.0004674968,-0.0002194982,8,1
0.0003485408,-0.0002619593,8,1
0.0001488763,-0.0002993964,8,1
-9.811128e-05,-0.0003243544,8,1
-0.0003449367,-0.0003352128,8,1
-0.0005458977,-0.0003366714,8,1
-0.0006706879,-0.0003391024,8,1
-0.0007180111,-0.0003582261,8,1
-0.0007121767,-0.0004130042,8,1
-0.0006680949,-0.0005092709,8,1
-0.0005856037,-0.0006275786,8,1
-0.0004664857,-0.000735352,8,1
-0.0003275957,-0.0007974231,8,1
-0.0001977815,-0.0007936955,8,1
-9.616651e-05,-0.0007241695,8,1
-1.497178e-05,-0.0006045654,8,1
5.633696e-05,-0.0004614617,8,1
0.0001124116,-0.0003193304,8,1
0.0001401247,-0.0001898403,8,1
0.0001291043,-7.817725e-05,8,1
7.805372e-05,1.695509e-05,8,1
-6.382317e-06,9.733949e-05,8,1
-0.0001128592,0.0001636242,8,1
-0.0002177155,0.0002137024,8,1
-0.0002797865,0.0002446569,8,1
-0.0002588801,0.0002506533,8,1
-0.0001387897,0.0002263435,8,1
7.465034e-05,0.0001748067,8,1
0.0003665301,0.0001140322,8,1
0.0007227498,7.740546e-05,8,1
0.001116569,9.458438e-05,8,1
0.001497099,0.000177886,8,1
0.001801296,0.0003111037,8,1
0.001976003,0.0004636072,8,1
0.001994965,0.0006120591,8,1
0.001873902,0.0007519216,8,1
0.001668727,0.0008966461,8,1
0.001437135,0.00105466,8,1
0.001215591,0.001212026,8,1
0.001001178,0.001324985,8,1
0.0007668316,0.001340706,8,1
0.0004901859,0.001232932,8,1
0.0001902029,0.001015602,8,1
-7.007399e-05,0.0007425218,8,1
-0.0002327876,0.0004807861,8,1
-0.0002849726,0.0002827423,8,1
-0.0002603387,0.0001722137,8,1
-0.0002198223,0.0001410971,8,1
-0.0002057227,0.000165569,8,1
-0.0002335979,0.0002099749,8,1
-0.0002998826,0.0002461155,8,1
-0.0004036044,0.0002644289,8,1
-0.0005433047,0.0002652392,8,1
-0.0007024527,0.0002613496,8,1
-0.0008507425,0.0002652392,8,1
-0.0009581918,0.0002837146,8,1
-0.001009404,0.0003075383,8,1
-0.001019939,0.0003258516,8,1
-0.001018966,0.0003300653,8,1
-0.001023018,0.0003164518,8,1
-0.00102399,0.0002759355,8,1
-0.001001463,0.0002005751,8,1
-0.0009397164,9.26396e-05,8,1
-0.0008437737,-3.571614e-05,8,1
-0.0007442656,-0.0001673132,8,1
-0.0006744154,-0.0002878898,8,1
-0.0006416783,-0.0003891806,8,1
-0.0006296854,-0.0004677822,8,1
-0.000618665,-0.0005256396,8,1
-0.0005875485,-0.0005666421,8,1
-0.0005202913,-0.000586414,8,1
-0.0004178661,-0.0005865761,8,1
-0.0002974516,-0.0005732867,8,1
-0.0001809267,-0.000554163,8,1
-7.898758e-05,-0.0005343911,8,1
1.582063e-05,-0.0005228845,8,1
0.0001185701,-0.0005209396,8,1
0.0002470879,-0.0005274223,8,1
0.0004120704,-0.0005408737,8,1
0.0006023352,-0.0005556216,8,1
0.0007828761,-0.0005666421,8,1
0.0009104217,-0.0005732867,8,1
0.0009621205,-0.0005734488,8,1
0.0009475346,-0.0005634008,8,1
0.0008969702,-0.0005426564,8,1
0.0008374922,-0.000511864,8,1
0.0007814175,-0.0004753993,8,1
0.0007266394,-0.0004437966,8,1
0.0006644063,-0.000422566,8,1
0.0005929354,-0.0004155972,8,1
0.0005187094,-0.000415111,8,1
0.0004477248,-0.000410087,8,1
0.0003806297,-0.0003946908,8,1
0.0003133726,-0.0003698948,8,1
0.0002383363,-0.000340561,8,1
0.0001522796,-0.0003130099,8,1
5.309566e-05,-0.0002891863,8,1
-6.261898e-05,-0.0002664971,8,1
-0.0001972953,-0.000241377,8,1
-0.0003399127,-0.00021415,8,1
-0.0004734545,-0.0001874093,8,1
-0.000591438,-0.0001679614,8,1
-0.0007061802,-0.0001598582,8,1
-0.0008304843,-0.0001653684,8,1
-0.0009546264,-0.0001810887,8,1
-0.001046355,-0.0002000504,8,1
-0.001081037,-0.0002125294,8,1
-0.001054621,-0.0002146363,8,1
-0.0009850947,-0.0002075054,8,1
-0.0009048723,-0.0001950263,8,1
-0.0008413427,-0.0001794681,8,1
-0.0008102262,-0.0001598582,8,1
-0.000807309,-0.0001324691,8,1
-0.0008129813,-9.503204e-05,8,1
-0.0008056884,-5.078821e-05,8,1
-0.0007729512,-5.409925e-06,8,1
-0.000707963,3.802358e-05,8,1
-0.0006103997,8.097089e-05,8,1
-0.0004869059,0.0001265113,8,1
-0.000362926,0.0001714034,8,1
-0.000258718,0.000207706,8,1
-0.0001796301,0.0002316917,8,1
-0.0001144799,0.0002446569,8,1
-3.879538e-05,0.0002550291,8,1
6.946425e-05,0.0002707494,8,1
0.0002184023,0.0002965178,8,1
0.0003816021,0.0003261758,8,1
0.0005180612,0.0003461098,8,1
0.0006003904,0.0003469201,8,1
0.0006289139,0.0003300653,8,1
0.0006178935,0.0003018659,8,1
0.0005864528,0.0002720459,8,1
0.0005592257,0.000250005,8,1
0.0005532294,0.0002453052,8,1
0.0005822391,0.0002600531,8,1
0.0006592202,0.0002901973,8,1
0.0007926,0.0003264999,8,1
0.0009715204,0.0003608578,8,1
0.001162596,0.0003731747,8,1
0.00130813,0.0003384927,8,1
0.00134654,0.000250005,8,1
0.001236335,0.0001292664,8,1
0.0009807581,9.175954e-06,8,1
0.0006227554,-8.44978e-05,8,1
0.0002289366,-0.0001378173,8,1
-0.0001352242,-0.0001533756,8,1
-0.0004232143,-0.0001399241,8,1
-0.0006100755,-0.0001079973,8,1
-0.0006928909,-6.326724e-05,8,1
-0.0006904599,-2.81688e-06,8,1
-0.0006330888,8.226741e-05,8,1
-0.0005488148,0.000200413,8,1
-0.0004530343,0.0003378445,8,1
-0.0003499608,0.000463121,8,1
-0.0002425115,0.0005486915,8,1
-0.0001399241,0.0005846701,8,1
-5.240886e-05,0.0005689497,8,1
3.017472e-06,0.0005025029,8,1
1.614476e-05,0.0003897054,8,1
-1.027188e-05,0.0002503292,8,1
-4.47918e-05,0.0001150046,8,1
-3.782299e-05,1.533444e-05,8,1
3.056858e-05,-2.615429e-05,8,1
0.0001273216,4.244267e-07,8,1
0.0001963614,8.291568e-05,8,1
0.0002034923,0.0001864754,8,1
0.000150659,0.0002788527,8,1
6.346784e-05,0.0003425444,8,1
-1.529591e-05,0.0003741471,8,1
-3.506788e-05,0.0003700955,8,1
2.522042e-05,0.0003235827,8,1
0.000143204,0.0002312055,8,1
0.0002715597,9.993253e-05,8,1
0.0003705817,-4.835724e-05,8,1
0.0004311941,-0.0001919471,8,1
0.0004533971,-0.0003076617,8,1
0.0004287631,-0.0003801049,8,1
0.0003571303,-0.0004019837,8,1
0.0002444948,-0.0003736223,8,1
9.458438e-05,-0.0003110651,8,1
-8.660465e-05,-0.0002373254,8,1
-0.0002825416,-0.0001661787,8,1
-0.0004677822,-9.778715e-05,8,1
-0.000611048,-2.404744e-05,8,1
-0.0006902979,6.508849e-05,8,1
-0.0007006701,0.0001707551,8,1
-0.0006514022,0.0002782044,8,1
-0.0005505976,0.0003628026,8,1
-0.000412518,0.0004128807,8,1
-0.0002643903,0.000438325,8,1
-0.0001415448,0.0004647417,8,1
-6.261898e-05,0.0005086614,8,1
-1.659243e-05,0.0005584154,8,1
1.630683e-05,0.0005879114,8,1
4.920609e-05,0.0005760806,8,1
8.696731e-05,0.0005245438,8,1
0.0001263492,0.0004524247,8,1
0.0001573037,0.000373985,8,1
0.000168,0.0002901973,8,1
0.000150659,0.0001991165,8,1
0.000110953,0.0001026876,8,1
6.233338e-05,7.393236e-06,8,1
1.355172e-05,-8.190475e-05,8,1
-2.826114e-05,-0.0001674752,8,1
-6.407757e-05,-0.0002533699,8,1
-9.341139e-05,-0.0003384541,8,1
-0.0001037836,-0.0004188385,8,1
-6.48879e-05,-0.000484637,8,1
4.904402e-05,-0.0005228845,8,1
0.0002427121,-0.0005269361,8,1
0.0004947237,-0.0004972781,8,1
0.0007708832,-0.0004444448,8,1
0.001030026,-0.0003861013,8,1
0.001230339,-0.000335699,8,1
0.001337951,-0.0003024756,8,1
0.001342326,-0.0002828657,8,1
0.001259835,-0.0002702246,8,1
0.001115921,-0.000261311,8,1
0.0009347314,-0.0002582318,8,1
0.0007402529,-0.0002556388,8,1
0.0005517708,-0.0002468872,8,1
0.0003853296,-0.0002241981,8,1
0.0002441707,-0.0001922712,8,1
0.0001195424,-0.0001587237,8,1
-4.923729e-06,-0.0001326312,8,1
-0.0001417068,-0.0001211246,8,1
-0.0002921034,-0.0001191798,8,1
-0.0004455793,-0.0001195039,8,1
-0.0005935449,-0.0001141558,8,1
-0.0007269246,-0.0001005423,8,1
-0.0008382635,-8.417367e-05,8,1
-0.0009241581,-6.504996e-05,8,1
-0.0009891463,-4.300908e-05,8,1
-0.001031283,-1.691656e-05,8,1
-0.001046841,6.90704e-06,8,1
-0.001034038,2.278944e-05,8,1
-0.0009954668,2.797553e-05,8,1
-0.0009285338,2.327564e-05,8,1
-0.0008265948,1.014835e-05,8,1
-0.0006847876,-1.3027e-05,8,1
-0.0005079744,-4.47918e-05,8,1
-0.0003141443,-8.141856e-05,8,1
-0.0001290658,-0.0001177212,8,1
2.76514e-05,-0.0001439758,8,1
0.0001459591,-0.00015451,8,1
0.0002303951,-0.0001449482,8,1
0.0003007315,-0.0001144799,8,1
0.0003741471,-6.407757e-05,8,1
0.0004522626,5.448452e-06,8,1
0.0005247059,8.194328e-05,8,1
0.0005802943,0.0001521176,8,1
0.0006062248,0.0002064095,8,1
0.0005953664,0.0002404432,8,1
0.0005540397,0.0002372019,8,1
0.0004935893,0.00018291,8,1
0.0004232529,8.291568e-05,8,1
0.0003449753,-4.47918e-05,8,1
0.0002506533,-0.000174444,8,1
0.000130725,-0.0002896725,8,1
-1.788895e-05,-0.0003916115,8,1
-0.0001854645,-0.0004873921,8,1
-0.0003395886,-0.0005791211,8,1
-0.0004309934,-0.0006638812,8,1
-0.0004165696,-0.0007319486,8,1
-0.0002746004,-0.0007698719,8,1
-3.036798e-05,-0.0007609584,8,1
0.0002493568,-0.0006974287,8,1
0.0004838654,-0.0005875485,8,1
0.0006057385,-0.0004525481,8,1
0.0005783495,-0.0003225718,8,1
0.0003898674,-0.0002353806,8,1
5.601284e-05,-0.0002308428,8,1
-0.0003624398,-0.0003261372,8,1
-0.0007617687,-0.0004982505,8,1
-0.001045707,-0.0006953219,8,1
-0.001171308,-0.0008638698,8,1
-0.001161098,-0.0009734259,8,1
-0.001060941,-0.001019615,8,1
-0.0009006586,-0.001002111,8,1
-0.0006896496,-0.0009269132,8,1
-0.0004288866,-0.000814764,8,1
-0.0001203142,-0.000688029,8,1
0.0002030061,-0.0005531906,8,1
0.0004788414,-0.0003985804,8,1
0.0006456067,-0.0002157707,8,1
0.0006754267,-6.544382e-06,8,1
0.0005859666,0.000217592,8,1
0.0004300596,0.0004404318,8,1
0.0002569738,0.000651441,8,1
9.134307e-05,0.000842192,8,1
-6.229485e-05,0.001011226,8,1
-0.00021415,0.001163082,8,1
-0.0003695707,0.00130651,8,1
-0.0005084606,0.001448479,8,1
-0.0005922483,0.001593204,8,1
-0.0005896553,0.001738415,8,1
-0.0005013297,0.001870499,8,1
-0.000360333,0.001975679,8,1
-0.0002100984,0.002051202,8,1
-8.012204e-05,0.002104036,8,1
2.862379e-05,0.002128183,8,1
0.0001415833,0.002103225,8,1
0.000274801,0.00200242,8,1
0.0004208219,0.001806969,8,1
0.0005480433,0.001516061,8,1
0.0006224313,0.001157247,8,1
0.0006350724,0.0007804451,8,1
0.0005934216,0.0004430249,8,1
0.0005238955,0.0001814514,8,1
0.0004616624,5.124321e-06,8,1
0.000433301,-0.0001021629,8,1
0.000440756,-0.000171851,8,1
0.0004577728,-0.0002331117,8,1
0.000450642,-0.0003015032,8,1
0.0003971604,-0.0003817256,8,1
0.0003038107,-0.0004694029,8,1
0.0001992786,-0.0005588629,8,1
0.0001158149,-0.0006428128,8,1
7.059871e-05,-0.000712987,8,1
5.795762e-05,-0.0007562584,8,1
5.455425e-05,-0.0007619307,8,1
4.434413e-05,-0.0007264384,8,1
2.748934e-05,-0.0006536711,8,1
1.419998e-05,-0.0005561078,8,1
1.306552e-05,-0.0004457413,8,1
3.073064e-05,-0.0003311612,8,1
6.670914e-05,-0.000221605,8,1
0.0001088461,-0.0001282554,8,1
0.0001417454,-5.808115e-05,8,1
0.0001524417,-1.075808e-05,8,1
0.0001351007,2.278944e-05,8,1
9.328786e-05,5.406805e-05,8,1
3.721326e-05,8.696731e-05,8,1
-2.955766e-05,0.000121001,8,1
-0.0001156143,0.0001511452,8,1
-0.0002337599,0.0001645966,8,1
-0.0003911253,0.0001461212,8,1
-0.0005901415,8.680524e-05,8,1
-0.000819626,-7.516774e-06,8,1
-0.0010483,-0.0001204763,8,1
-0.001226572,-0.0002305186,8,1
-0.001309225,-0.000320789,8,1
-0.001282322,-0.000380267,8,1
-0.001174873,-0.000402794,8,1
-0.001045707,-0.0003922598,8,1
-0.0009434438,-0.0003617915,8,1
-0.0008945001,-0.0003311612,8,1
-0.0009098963,-0.0003113892,8,1
-0.0009920634,-0.0003037722,8,1
-0.001106806,-0.0003039342,8,1
-0.001186704,-0.0003074997,8,1
-0.001159477,-0.0003100927,8,1
-0.0009816912,-0.0003076617,8,1
-0.0006630709,-0.0002997205,8,1
-0.0002572594,-0.0002817312,8,1
0.0001707551,-0.000246401,8,1
0.0005571189,-0.0001971332,8,1
0.0008634226,-0.0001402483,8,1
0.001080753,-8.887356e-05,8,1
0.001225801,-5.240886e-05,8,1
0.001319961,-3.344723e-05,8,1
0.001368095,-3.134038e-05,8,1
0.001354481,-3.879538e-05,8,1
0.001259025,-5.22468e-05,8,1
0.00109469,-6.48879e-05,8,1
0.0009358659,-6.618442e-05,8,1
0.0008741189,-4.560212e-05,8,1
0.0009575827,-7.100305e-07,8,1
0.001173778,5.957827e-05,8,1
0.001463065,0.0001169494,8,1
0.001748625,0.000153252,8,1
0.001957852,0.0001652449,8,1
0.00202754,0.0001618415,8,1
0.001920901,0.0001553589,8,1
0.001648306,0.0001534141,8,1
0.001274421,0.0001543865,8,1
0.0008857877,0.0001558451,8,1
0.0005533914,0.0001496866,8,1
0.0003055935,0.0001312112,8,1
0.0001205148,0.0001023635,8,1
-4.268495e-05,7.092284e-05,8,1
-0.0002182017,4.061663e-05,8,1
-0.0004178661,1.257933e-05,8,1
-0.0006300096,-2.145439e-05,8,1
-0.0008287016,-7.039812e-05,8,1
-0.0009922255,-0.0001400862,8,1
-0.001109399,-0.0002300324,8,1
-0.001175197,-0.0003262992,8,1
-0.001191566,-0.0004089525,8,1
-0.001170011,-0.0004549791,8,1
-0.001128522,-0.0004556273,8,1
-0.001085737,-0.0004170558,8,1
-0.001055917,-0.0003579019,8,1
-0.00103809,-0.0002980999,8,1
-0.00102237,-0.000256287,8,1
-0.0009967634,-0.0002519113,8,1
-0.0009499265,-0.0002938862,8,1
-0.0008643559,-0.0003700569,8,1
-0.0007261143,-0.0004587066,8,1
-0.0005429805,-0.0005345531,8,1
-0.000348016,-0.0005805797,8,1
-0.0001969711,-0.0005958138,8,1
-0.0001285796,-0.0005873864,8,1
-0.0001532135,-0.0005612939,8,1
-0.0002548284,-0.00052175,8,1
-0.0003974459,-0.0004700511,8,1
-0.0005369841,-0.0004128421,8,1
-0.0006353577,-0.0003548227,8,1
-0.0006784671,-0.000303286,8,1
-0.0006723086,-0.0002558008,8,1
-0.0006240131,-0.0001985918,8,1
-0.0005407116,-0.0001157764,8,1
-0.0004420138,-8.651231e-06,8,1
-0.0003642225,0.0001026876,8,1
-0.0003327818,0.0001931201,8,1
-0.000333106,0.0002462775,8,1
-0.0003211132,0.0002595669,8,1
-0.0002475355,0.0002464396,8,1
-8.352541e-05,0.0002328261,8,1
0.0001748067,0.000242388,8,1
0.0005146578,0.0002890628,8,1
0.0009146354,0.000368961,8,1
0.001337302,0.0004721967,8,1
0.00172156,0.0005887217,8,1
0.002005823,0.0007127018,8,1
0.002148604,0.000834575,8,1
0.002144714,0.0009301936,8,1
0.002011658,0.0009711962,8,1
0.001772287,0.0009402417,8,1
0.00145399,0.0008399231,8,1
0.001094366,0.0006955228,8,1
0.0007389564,0.0005386435,8,1
0.0004224426,0.000396188,8,1
0.0001628139,0.0002838767,8,1
-3.069211e-05,0.000215161,8,1
-0.000159534,0.0001973338,8,1
-0.0002404046,0.0002260194,8,1
-0.0002908069,0.0002848491,8,1
-0.0003186821,0.0003503235,8,1
-0.000325813,0.0004023465,8,1
-0.0003152788,0.0004281149,8,1
-0.0002744383,0.0004318424,8,1
-0.0001835197,0.0004248736,8,1
-4.138842e-05,0.0004190393,8,1
0.0001278078,0.0004104497,8,1
0.0002936006,0.000378685,8,1
0.0004250357,0.0003086727,8,1
0.0004973168,0.0001936063,8,1
0.0004914824,3.13789e-05,8,1
0.0004096394,-0.0001713648,8,1
0.0002739907,-0.0003841565,8,1
0.0001112771,-0.0005705316,8,1
-6.472583e-05,-0.0007047217,8,1
-0.000246239,-0.0007810544,8,1
-0.0004232143,-0.0008064987,8,1
-0.0005940311,-0.00079483,8,1
-0.0007590136,-0.0007557723,8,1
-0.0009097343,-0.0006990494,8,1
-0.001039386,-0.0006345474,8,1
-0.001150401,-0.0005697213,8,1
-0.001235323,-0.0005073262,8,1
-0.001270654,-0.0004420138,8,1
-0.001228355,-0.0003692465,8,1
-0.001096271,-0.0002844864,8,1
-0.0008940139,-0.0001929195,8,1
-0.0006659881,-0.0001026491,8,1
-0.0004551412,-1.691656e-05,8,1
-0.0002893484,7.465034e-05,8,1
-0.0001733096,0.0001843686,8,1
-9.357346e-05,0.0003229345,8,1
-2.615429e-05,0.0004969927,8,1
5.844381e-05,0.0007050846,8,1
0.0001697827,0.0009391072,8,1
0.0002854973,0.001170861,8,1
0.0003684748,0.001354157,8,1
0.0003921364,0.0014454,8,1
0.0003610198,0.001436973,8,1
0.0003104554,0.00135594,8,1
0.0002717218,0.001245411,8,1
0.0002547049,0.001129858,8,1
0.0002616738,0.0009964785,8,1
0.0003012177,0.0008169098,8,1
0.0003879227,0.0005726772,8,1
0.0005229231,0.000279663,8,1
0.0006742922,-2.46957e-05,8,1
0.000787576,-0.0002977757,8,1
0.000819827,-0.0005082985,8,1
0.0007708832,-0.0006423265,8,1
0.0006755888,-0.0007042355,8,1
0.0005760806,-0.0007092595,8,1
0.0004909963,-0.0006800878,8,1
0.0004093153,-0.0006361681,8,1
0.000316776,-0.0005893312,8,1
0.0002143507,-0.0005424943,8,1
0.0001206769,-0.0004929024,8,1
6.217132e-05,-0.000430021,8,1
5.066468e-05,-0.000342992,8,1
7.546067e-05,-0.000238946,8,1
0.000106091,-0.0001374932,8,1
0.000113384,-6.002594e-05,8,1
9.020862e-05,-2.583016e-05,8,1
4.158902e-05,-3.814712e-05,8,1
-2.242678e-05,-9.357346e-05,8,1
-0.0001007043,-0.0001828714,8,1
-0.000199078,-0.0002924276,8,1
-0.0003250027,-0.0004107352,8,1
-0.0004749131,-0.0005369841,8,1
-0.0006353577,-0.0006779809,8,1
-0.0007917507,-0.0008361567,8,1
-0.0009280476,-0.001011673,8,1
-0.001021721,-0.001198859,8,1
-0.001051217,-0.001370648,8,1
-0.00100276,-0.001500138,8,1
-0.0008789418,-0.00157323,8,1
-0.0006985632,-0.001585871,8,1
-0.0004961436,-0.001540979,8,1
-0.0003076617,-0.001441471,8,1
-0.0001587237,-0.00129545,8,1
-4.835724e-05,-0.001119123,8,1
4.564065e-05,-0.0009306407,8,1
0.0001320215,-0.0007445897,8,1
0.0001905271,-0.0005753936,8,1
0.0001827479,-0.0004311555,8,1
6.946425e-05,-0.0003070135,8,1
-0.0001663408,-0.0001825473,8,1
-0.0004966299,-4.090223e-05,8,1
-0.0008440978,0.0001167873,8,1
-0.00111653,0.0002817699,8,1
-0.00125072,0.0004465904,8,1
-0.001235323,0.0006164349,8,1
-0.001105671,0.0007953551,8,1
-0.0009074653,0.0009794616,8,1
-0.0006664743,0.001165189,8,1
-0.0003830221,0.001349295,8,1
-5.467778e-05,0.00152465,8,1
0.0002984626,0.001680395,8,1
0.0006339379,0.00181021,8,1
0.0009023183,0.001911825,8,1
0.001068922,0.00197341,8,1
0.001127589,0.001977462,8,1
0.001099714,0.001911663,8,1
0.001022571,0.001775528,8,1
0.0009203076,0.001576187,8,1
0.0007937344,0.001330658,8,1
0.0006352345,0.001062439,8,1
0.0004430249,0.0007934103,8,1
0.0002302331,0.0005404262,8,1
2.829966e-05,0.0003128864,8,1
-0.0001195039,0.0001137081,8,1
-0.0001723372,-5.69467e-05,8,1
-0.0001259865,-0.0001998883,8,1
-7.678839e-06,-0.0003121996,8,1
0.0001492004,-0.0003924218,8,1
0.0003072141,-0.0004512515,8,1
0.0004371906,-0.0004980884,8,1
0.0005279472,-0.0005444391,8,1
0.0005825632,-0.0005903036,8,1
0.0005997422,-0.0006272545,8,1
0.0005757565,-0.0006478368,8,1
0.0005067165,-0.0006541573,8,1
0.0003934329,-0.0006520505,8,1
0.0002427121,-0.000646054,8,1
7.351589e-05,-0.0006355198,8,1
-8.660465e-05,-0.0006084549,8,1
-0.0002031296,-0.0005570802,8,1
-0.0002520733,-0.0004835025,8,1
-0.0002331117,-0.0004018217,8,1
-0.0001752544,-0.0003340784,8,1
-0.0001285796,-0.0003065273,8,1
-0.000137007,-0.000325651,8,1
-0.0002285739,-0.0003640605,8,1
-0.0003993907,-0.000387884,8,1
-0.0006108859,-0.0003809152,8,1
-0.0008024471,-0.0003536883,8,1
-0.0009201065,-0.0003335922,8,1
-0.0009515471,-0.0003499608,8,1
-0.0009058447,-0.0004094387,8,1
-0.0007917507,-0.0004873921,8,1
-0.0006159099,-0.0005489769,8,1
-0.0003896668,-0.0005685869,8,1
-0.0001311726,-0.000539091,8,1
0.0001402868,-0.0004666478,8,1
0.0003999155,-0.000370543,8,1
0.0006339379,-0.0002718453,8,1
0.0008412196,-0.0001853024,8,1
0.001021923,-0.0001193418,8,1
0.001169402,-7.169464e-05,8,1
0.001267614,-4.446767e-05,8,1
0.001297434,-3.587821e-05,8,1
0.001250273,-4.05781e-05,8,1
0.001141527,-4.138842e-05,8,1
0.000995344,-1.788895e-05,8,1
0.000824689,3.591673e-05,8,1
0.0006344241,0.0001056048,8,1
0.0004454559,0.0001660552,8,1
0.0002877662,0.000210137,8,1
0.0001748067,0.000259729,8,1
0.0001062531,0.0003444891,8,1
8.388807e-05,0.0004765725,8,1
0.0001205148,0.0006379896,8,1
0.0002213195,0.0007888725,8,1
0.0003598854,0.0008921082,8,1
0.000478031,0.0009306798,8,1
0.0005230852,0.0009122044,8,1
0.0004759242,0.0008603434,8,1
0.0003563199,0.0007972999,8,1
0.000207706,0.0007423597,8,1
7.416415e-05,0.0007042743,8,1
-2.031993e-05,0.0006804507,8,1
-8.190475e-05,0.0006632718,8,1
-0.0001339277,0.0006457687,8,1
-0.0001955125,0.0006214589,8,1
-0.0002718453,0.0005853184,8,1
-0.0003544986,0.0005316747,8,1
-0.0004343968,0.0004504799,8,1
-0.0005016539,0.000339141,8,1
-0.000546708,0.000210299,8,1
-0.0005486528,9.150514e-05,8,1
-0.0004791268,3.017472e-06,8,1
-0.0003295405,-5.370539e-05,8,1
-0.0001274451,-8.044617e-05,8,1
7.092284e-05,-7.65566e-05,8,1
0.0002085163,-4.689865e-05,8,1
0.000257298,-2.492749e-06,8,1
0.0002355812,4.904402e-05,8,1
0.0001819376,9.523264e-05,8,1
0.0001299146,0.000115977,8,1
9.31258e-05,9.280167e-05,8,1
6.881599e-05,2.262738e-05,8,1
4.272347e-05,-7.882551e-05,8,1
2.207145e-06,-0.0001831956,8,1
-5.937768e-05,-0.0002708729,8,1
-0.0001428413,-0.0003334301,8,1
-0.0002331117,-0.0003799429,8,1
-0.0003060411,-0.0004227281,8,1
-0.0003481781,-0.000472158,8,1
-0.0003673017,-0.0005277464,8,1
-0.000400201,-0.0005805797,8,1
-0.0004959816,-0.0006251476,8,1
-0.0006864083,-0.0006612882,8,1
-0.0009458748,-0.0006865704,8,1
-0.0012021,-0.0006933771,8,1
-0.001386368,-0.0006760361,8,1
-0.001462701,-0.0006379507,8,1
-0.001434988,-0.0005893312,8,1
-0.001323325,-0.0005395772,8,1
-0.00115348,-0.0004922541,8,1
-0.0009424714,-0.0004439586,8,1
-0.0006982391,-0.0003885323,8,1
-0.0004381243,-0.0003245165,8,1
-0.0001951884,-0.0002465631,8,1
-4.437533e-06,-0.0001535376,8,1
0.00010366,-5.483985e-05,8,1
0.0001158149,3.964424e-05,8,1
4.628891e-05,0.0001227837,8,1
-5.953974e-05,0.0001973338,8,1
-0.0001462447,0.0002709115,8,1
-0.0001689338,0.0003414099,8,1
-0.0001225832,0.0003957018,8,1
-4.009191e-05,0.0004119083,8,1
3.202716e-05,0.0003757678,8,1
6.136099e-05,0.0002932765,8,1
4.288554e-05,0.0001851789,8,1
-1.010982e-05,7.967438e-05,8,1
-8.174268e-05,9.106227e-07,8,1
-0.0001639098,-4.090223e-05,8,1
-0.0002501286,-4.932962e-05,8,1
-0.000348016,-3.701266e-05,8,1
-0.0004690787,-1.351319e-05,8,1
-0.0006052136,1.1769e-05,8,1
-0.0007110422,2.748934e-05,8,1
-0.0007317866,2.732727e-05,8,1
-0.0006356818,8.851824e-06,8,1
-0.0004379622,-2.388537e-05,8,1
-0.0001848162,-6.39155e-05,8,1
6.735741e-05,-0.0001008664,8,1
0.0002655633,-0.0001287416,8,1
0.0003908399,-0.0001455964,8,1
0.0004652279,-0.000152079,8,1
0.0005405883,-0.0001472171,8,1
0.0006601926,-0.0001405724,8,1
0.0008279303,-0.0001389517,8,1
0.001005554,-0.0001449482,8,1
0.00113861,-0.0001551583,8,1
0.001189498,-0.0001590478,8,1
0.001155303,-0.0001481895,8,1
0.001062115,-0.0001285796,8,1
0.0009488311,-0.0001058904,8,1
0.0008548332,-8.125649e-05,8,1
0.000809941,-4.819517e-05,8,1
0.0008245269,-2.330684e-06,8,1
0.000886598,5.909208e-05,8,1
0.000965848,0.0001318594,8,1
0.001013495,0.0002060853,8,1
0.0009763823,0.0002675081,8,1
0.0008243649,0.0003080245,8,1
0.0005655463,0.000324393,8,1
0.0002493568,0.0003218,8,1
-5.937768e-05,0.000304459,8,1
-0.000313334,0.0002757735,8,1
-0.0005003574,0.0002417397,8,1
-0.0006317923,0.0002085163,8,1
-0.0007146077,0.0001880961,8,1
-0.0007389174,0.0001897167,8,1
-0.0006878669,0.0002149989,8,1
-0.0005612939,0.0002582704,8,1
-0.0004049009,0.0003083486,8,1
-0.0002822175,0.0003576164,8,1
-0.0002104225,0.0004062361,8,1
-0.0001533756,0.0004571246,8,1
-6.116039e-05,0.0005096338,8,1
9.912221e-05,0.0005566327,8,1
0.000331686,0.0005930975,8,1
0.0006130316,0.0006091419,8,1
0.000903939,0.0005909906,8,1
0.001157896,0.0005274609,8,1
0.001337789,0.0004201737,8,1
0.001423197,0.0002880904,8,1
0.001408125,0.0001576278,8,1
0.001303593,5.293359e-05,8,1
0.001137313,-1.545797e-05,8,1
0.0009551517,-5.078821e-05,8,1
0.0007951931,-6.537409e-05,8,1
0.0006577615,-7.169464e-05,8,1
0.0005114165,-8.206682e-05,8,1
0.000319369,-0.0001003802,8,1
8.340187e-05,-0.0001238797,8,1
-0.0001588858,-0.0001486757,8,1
-0.0003713534,-0.0001715269,8,1
-0.0005337428,-0.0001893541,8,1
-0.0006523746,-0.0001989159,8,1
-0.0007368106,-0.0002031296,8,1
-0.0008032574,-0.0002110708,8,1
-0.0008701903,-0.0002271153,8,1
-0.0009434438,-0.0002496423,8,1
-0.001018642,-0.0002715212,8,1
-0.001087682,-0.0002794623,8,1
-0.001131602,-0.000268766,8,1
-0.001138084,-0.0002465631,8,1
-0.001111668,-0.0002272773,8,1
-0.001070503,-0.0002204706,8,1
-0.001030311,-0.0002263049,8,1
-0.001005677,-0.0002421874,8,1
-0.001010377,-0.0002655248,8,1
-0.001040197,-0.0002945344,8,1
-0.001076662,-0.0003209511,8,1
-0.001089465,-0.0003321336,8,1
-0.001050083,-0.0003224097,8,1
-0.0009374474,-0.0002943724,8,1
-0.0007400519,-0.0002533699,8,1
-0.0004578962,-0.0002049123,8,1
-0.0001152902,-0.0001592099,8,1
0.0002472499,-0.0001287416,8,1
0.0005853184,-0.0001211246,8,1
0.0008627744,-0.0001349001,8,1
0.001048826,-0.0001596961,8,1
0.00113861,-0.00018433,8,1
0.001150927,-0.0002060468,8,1
0.001117217,-0.0002386219,8,1
0.001067949,-0.0002945344,8,1
0.00102484,-0.0003713534,8,1
0.0009891854,-0.0004514136,8,1
0.0009420244,-0.000514295,8,1
0.0008502954,-0.0005528665,8,1
0.0006893643,-0.0005706937,8,1
0.000443349,-0.0005706937,8,1
0.000118408,-0.0005520562,8,1
-0.0002397564,-0.0005032745,8,1
-0.0005587008,-0.0004157593,8,1
-0.0007734374,-0.0002945344,8,1
-0.0008557665,-0.000161965,8,1
-0.0008252983,-4.722278e-05,8,1
-0.0007322728,3.786152e-05,8,1
-0.0006249856,9.474644e-05,8,1
-0.0005317981,0.0001305629,8,1
-0.0004668098,0.0001526038,8,1
-0.0004295348,0.0001717275,8,1
-0.0004024699,0.0002012234,8,1
-0.00035304,0.0002488706,8,1
-0.0002504527,0.0003124002,8,1
-8.206682e-05,0.0003866261,8,1
0.00013818,0.0004687933,8,1
0.0003751195,0.0005592257,8,1
0.0005658705,0.0006535479,8,1
0.0006550064,0.0007418735,8,1
0.0006302104,0.0008209614,8,1
0.0005311884,0.0008953495,8,1
0.0004222805,0.0009695755,8,1
0.0003559958,0.001035212,8,1
0.0003534027,0.001071029,8,1
0.0004106118,0.001055146,8,1
0.0005068787,0.0009741134,8,1
0.0006089798,0.0008324682,8,1
0.0006794783,0.0006507927,8,1
0.0006817472,0.0004613383,8,1
0.0006078454,0.000297004,8,1
0.0004765725,0.0001739964,8,1
0.0003141829,8.923623e-05,8,1
0.0001467694,2.959619e-05,8,1
-1.092015e-05,-2.145439e-05,8,1
-0.0001640719,-7.736692e-05,8,1
-0.0003311612,-0.0001439758,8,1
-0.0005110537,-0.0002185258,8,1
-0.0006789533,-0.0002888622,8,1
-0.0008035815,-0.0003389403,8,1
-0.0008556045,-0.0003608192,8,1
-0.000819626,-0.0003681121,8,1
-0.0007014804,-0.0003880461,8,1
-0.0005207775,-0.0004356933,8,1
-0.0002980999,-0.0005117019,8,1
-6.48879e-05,-0.0005998655,8,1
0.0001425557,-0.0006727948,8,1
0.0003028383,-0.0007027769,8,1
0.0004162841,-0.0006700397,8,1
0.000500234,-0.0005706937,8,1
0.0005689497,-0.0004144627,8,1
0.0006261588,-0.0002182017,8,1
0.0006650545,-3.858999e-07,8,1
0.0006645683,0.0002140265,8,1
0.00060428,0.0003948915,8,1
0.0004777069,0.0005203301,8,1
0.0002905214,0.0005845079,8,1
6.071273e-05,0.0006000663,8,1
-0.0001914609,0.0005759185,8,1
-0.0004502792,0.0005153061,8,1
-0.0006969426,0.0004214702,8,1
-0.0009081136,0.000309483,8,1
-0.001058672,0.0002018716,8,1
-0.001132898,0.0001289422,8,1
-0.001130143,0.0001098185,8,1
-0.001064345,0.0001414213,8,1
-0.0009559229,0.0001968476,8,1
-0.0008265948,0.0002407673,8,1
-0.0006954839,0.0002535705,8,1
-0.0005817142,0.0002331503,8,1
-0.0005035987,0.000187772,8,1
-0.0004741028,0.0001222976,8,1
-0.0004963057,3.899597e-05,8,1
-0.0005530285,-5.289507e-05,8,1
-0.0006100755,-0.0001417068,8,1
-0.0006262821,-0.000206695,8,1
-0.0005783107,-0.0002183637,8,1
-0.0004724821,-0.0001517549,8,1
-0.0003279199,-1.448558e-05,8,1
-0.0001596961,0.0001475797,8,1
3.364782e-05,0.0002720459,8,1
0.0002628082,0.0003130485,8,1
0.0005302161,0.0002621599,8,1
0.0008238787,0.0001479039,8,1
0.001112679,8.689758e-06,8,1
0.001352374,-0.0001365208,8,1
0.001505364,-0.0002887001,8,1
0.001561277,-0.0004468758,8,1
0.001535833,-0.0005987309,8,1
0.001451721,-0.0007288694,8,1
0.001316072,-0.0008351842,8,1
0.001119,-0.0009168651,8,1
0.0008554814,-0.0009734259,8,1
0.0005517708,-0.0009974116,8,1
0.0002550291,-0.0009815291,8,1
1.792748e-05,-0.0009277235,8,1
-0.0001349001,-0.0008429634,8,1
-0.0002034537,-0.0007431312,8,1
-0.00019924,-0.0006455678,8,1
-0.0001433275,-0.000559187,8,1
-6.958779e-05,-0.000487068,8,1
-1.983374e-05,-0.0004259694,8,1
-3.409549e-05,-0.0003682741,8,1
-0.0001264727,-0.0003063652,8,1
-0.0002671454,-0.000241377,8,1
-0.0004034423,-0.0001775233,8,1
-0.0005021401,-0.000119666,8,1
-0.0005583767,-6.407757e-05,8,1
-0.0005870623,1.720949e-06,8,1
-0.0006009999,9.150514e-05,8,1
-0.0006024585,0.0002130541,8,1
-0.0005940311,0.0003579406,8,1
-0.0005893312,0.000507689,8,1
-0.0006039171,0.0006459308,8,1
-0.0006350336,0.0007666696,8,1
-0.0006562641,0.0008799533,8,1
-0.0006350336,0.0009921027,8,1
-0.0005676145,0.00108918,8,1
-0.0004882024,0.001132289,8,1
-0.0004425001,0.001078646,8,1
-0.0004583824,0.0009143112,8,1
-0.0005395772,0.0006694303,8,1
-0.0006737672,0.0003989431,8,1
-0.0008390738,0.0001566554,8,1
-0.001000491,-1.837515e-05,8,1
-0.001115881,-0.0001120489,8,1
-0.001141001,-0.0001378173,8,1
-0.00104911,-0.0001274451,8,1
-0.0008462047,-0.0001141558,8,1
-0.0005693972,-0.0001175591,8,1
-0.0002554767,-0.0001400862,8,1
7.319176e-05,-0.0001710407,8,1
0.0003979707,-0.0001948643,8,1
0.0007101087,-0.0001998883,8,1
0.001012847,-0.0001914609,8,1
0.001306024,-0.0001888679,8,1
0.001575215,-0.0002013469,8,1
0.00178039,-0.0002222533,8,1
0.001880223,-0.0002391081,8,1
0.001861423,-0.0002400805,8,1
0.00176629,-0.0002269532,8,1
0.001671482,-0.0002117191,8,1
0.001638096,-0.0002071812,8,1
0.001669861,-0.0002193361,8,1
0.001706002,-0.0002451045,8,1
0.001652844,-0.0002697385,8,1
0.001448155,-0.0002768693,8,1
0.001099714,-0.000258718,8,1
0.0006678096,-0.0002130156,8,1
0.0002420638,-0.0001376552,8,1
-8.790117e-05,-3.992984e-05,8,1
-0.0002624455,6.573675e-05,8,1
-0.0002700626,0.000160545,8,1
-0.0001493239,0.0002363916,8,1
2.538249e-05,0.0002926282,8,1
0.0001764274,0.0003252034,8,1
0.0002563256,0.0003261758,8,1
0.0002610255,0.0002940868,8,1
0.0002167816,0.0002367157,8,1
0.0001542244,0.0001694586,8,1
8.907416e-05,0.0001039842,8,1
1.760335e-05,4.953022e-05,8,1
-7.850138e-05,6.420843e-06,8,1
-0.000204102,-2.599222e-05,8,1
-0.00033813,-4.819517e-05,8,1
-0.000449955,-6.002594e-05,8,1
-0.0005165638,-5.889148e-05,8,1
-0.0005452494,-3.928157e-05,8,1
-0.0005601594,-5.57199e-06,8,1
-0.0005834968,2.39239e-05,8,1
-0.0006228787,3.348575e-05,8,1
-0.0006752257,1.825161e-05,8,1
-0.0007407002,-1.3027e-05,8,1
-0.0008152502,-4.333321e-05,8,1
-0.0008787798,-6.06742e-05,8,1
-0.0009019551,-6.602235e-05,8,1
-0.0008591699,-7.056019e-05,8,1
-0.0007447518,-8.40116e-05,8,1
-0.000574097,-0.0001131834,8,1
-0.0003815635,-0.0001556445,8,1
-0.0002031296,-0.0002019951,8,1
-7.088431e-05,-0.0002366771,8,1
-1.358292e-06,-0.0002476975,8,1
5.772582e-06,-0.0002272773,8,1
-2.615429e-05,-0.0001720131,8,1
-6.618442e-05,-8.741498e-05,8,1
-9.405965e-05,1.501031e-05,8,1
-0.0001175591,0.0001145184,8,1
-0.0001663408,0.0001902029,8,1
-0.0002606628,0.0002299089,8,1
-0.0003961493,0.0002394708,8,1
-0.00053666,0.0002380122,8,1
-0.0006233649,0.0002469258,8,1
-0.0006029447,0.0002786906,8,1
-0.0004640547,0.0003297412,8,1
-0.0002355427,0.0003796573,8,1
4.158902e-05,0.0004049396,8,1
0.0003380065,0.0003974845,8,1
0.0006493342,0.0003756057,8,1
0.00097071,0.0003684748,8,1
0.001272962,0.000388895,8,1
0.001494506,0.0004253598,8,1
0.001569542,0.0004404318,8,1
0.001463389,0.0003974845,8,1
0.001194685,0.0002887387,8,1
0.0008277682,0.0001409351,8,1
0.0004427008,-5.085794e-06,8,1
0.0001022015,-0.0001204763,8,1
-0.0001653684,-0.0001914609,8,1
-0.0003661673,-0.0002191741,8,1
-0.0005283947,-0.000216581,8,1
-0.0006779809,-0.0002019951,8,1
-0.0008384255,-0.0001846542,8,1
-0.001039062,-0.0001614788,8,1
-0.001276002,-0.0001255003,8,1
-0.001499166,-7.671866e-05,8,1
-0.001637408,-2.599222e-05,8,1
-0.001637894,1.663096e-05,8,1
-0.00149949,4.645098e-05,8,1
-0.001258985,6.703327e-05,8,1
-0.0009622434,7.724339e-05,8,1
-0.0006491333,7.416415e-05,8,1
-0.0003569296,5.585077e-05,8,1
-0.0001068628,2.684107e-05,8,1
9.361199e-05,-6.868513e-06,8,1
0.0002402811,-3.928157e-05,8,1
0.0003256896,-6.553616e-05,8,1
0.0003457857,-8.368748e-05,8,1
0.0003049452,-9.794922e-05,8,1
0.0002253711,-0.0001255003,8,1
0.0001260251,-0.0001812508,8,1
1.906194e-05,-0.0002598524,8,1
-7.704279e-05,-0.0003415334,8,1
-0.0001433275,-0.0004032803,8,1
-0.0001676373,-0.0004285624,8,1
-0.0001400862,-0.0004149489,8,1
-4.284701e-05,-0.000370381,8,1
0.0001425557,-0.0003042584,8,1
0.0004156358,-0.0002254946,8,1
0.0007400909,-0.0001368449,8,1
0.001053363,-3.879538e-05,8,1
0.001296138,6.087479e-05,8,1
0.001432759,0.0001564933,8,1
0.001457555,0.0002427121,8,1
0.001383167,0.0003183966,8,1
0.001240063,0.000378685,8,1
0.001075566,0.0004248736,8,1
0.0009452657,0.0004597176,8,1
0.0008838429,0.0004845136,8,1
0.0008985908,0.0004943996,8,1
0.0009676307,0.0004916445,8,1
0.001058225,0.0004890515,8,1
0.001137475,0.0005018546,8,1
0.001175885,0.0005371849,8,1
0.001160327,0.0005885597,8,1
0.001098418,0.0006452826,8,1
0.001008633,0.0007018434,8,1
0.0009091251,0.0007622938,8,1
0.0008063756,0.0008195029,8,1
0.0007029778,0.0008554814,8,1
0.0006008766,0.0008465679,8,1
0.0004937514,0.0007734763,8,1
0.0003576164,0.0006294001,8,1
0.0001521176,0.0004271425,8,1
-0.0001575893,0.0001986303,8,1
-0.0005710179,-2.064406e-05,8,1
-0.001034687,-0.0002052365,8,1
-0.001467077,-0.0003403989,8,1
-0.001799635,-0.0004245108,8,1
-0.001994275,-0.0004606514,8,1
-0.002049054,-0.0004634065,8,1
-0.001984876,-0.0004525481,8,1
-0.001840475,-0.0004441207,8,1
-0.001658638,-0.0004437966,8,1
-0.001466429,-0.0004486585,8,1
-0.001272598,-0.0004536825,8,1
-0.001084279,-0.0004645409,8,1
-0.0009095722,-0.0004886886,8,1
-0.0007449139,-0.0005309877,8,1
-0.0005826865,-0.0005859278,8,1
-0.0004224039,-0.0006394094,8,1
-0.000276221,-0.0006828429,8,1
-0.0001525652,-0.0007199558,8,1
-5.548811e-05,-0.0007475069,8,1
1.59827e-05,-0.000752855,8,1
6.200925e-05,-0.0007244936,8,1
7.20573e-05,-0.0006593434,8,1
2.76514e-05,-0.0005653456,8,1
-7.299116e-05,-0.0004549791,8,1
-0.0002060468,-0.0003360231,8,1
-0.0003374817,-0.0002102605,8,1
-0.0004318037,-6.569822e-05,8,1
-0.0004625961,0.0001064152,8,1
-0.0004220798,0.0002966799,8,1
-0.0003347266,0.0004710622,8,1
-0.0002509389,0.0005932595,8,1
-0.0002276015,0.0006425274,8,1
-0.0002937241,0.0006256726,8,1
-0.0004413656,0.0005640878,8,1
-0.0006256338,0.0004777069,8,1
-0.0007789475,0.0003791712,8,1
-0.0008517149,0.00027707,8,1
-0.0008267568,0.0001790204,8,1
-0.00071558,9.426025e-05,8,1
-0.0005617801,3.55926e-05,8,1
-0.0004212695,1.22552e-05,8,1
-0.0003314853,2.846173e-05,8,1
-0.0002951827,7.400208e-05,8,1
-0.0002893484,0.0001299146,8,1
-0.0002908069,0.0001817755,8,1
-0.0002874036,0.0002141886,8,1
-0.0002755728,0.0002120818,8,1
-0.0002481838,0.0001702689,8,1
-0.0002005366,0.0001007429,8,1
-0.0001339277,2.278944e-05,8,1
-4.787104e-05,-4.625038e-05,8,1
6.265751e-05,-9.649064e-05,8,1
0.0002036544,-0.0001284175,8,1
0.0003820883,-0.0001475412,8,1
0.000586939,-0.0001609926,8,1
0.0007848209,-0.0001737958,8,1
0.000936028,-0.0001874093,8,1
0.001006527,-0.0001961608,8,1
0.0009737893,-0.0001943781,8,1
0.0008459196,-0.0001760647,8,1
0.0006694303,-0.0001392759,8,1
0.00051012,-8.725291e-05,8,1
0.0004145014,-2.89094e-05,8,1
0.0003874365,1.257933e-05,8,1
0.0004042913,2.207145e-06,8,1
0.0004490213,-8.352541e-05,8,1
0.0005161164,-0.0002347323,8,1
0.0006115729,-0.0004160834,8,1
0.0007287462,-0.0005825245,8,1
0.0008540229,-0.0006985632,8,1
0.0009750858,-0.0007484793,8,1
0.001075728,-0.0007347037,8,1
0.001129534,-0.0006684191,8,1
0.001106197,-0.0005687489,8,1
0.001001502,-0.0004509274,8,1
0.000837168,-0.0003301888,8,1
0.0006530617,-0.0002224154,8,1
0.0004986133,-0.0001399241,8,1
0.0004192013,-9.000802e-05,8,1
0.0004328148,-7.120844e-05,8,1
0.0005238955,-6.748094e-05,8,1
0.0006535479,-6.083626e-05,8,1
0.0007815796,-4.155049e-05,8,1
0.0008658536,-9.785688e-06,8,1
0.0008809257,3.494434e-05,8,1
0.0008287407,9.26396e-05,8,1
0.0007389564,0.0001652449,8,1
0.0006483617,0.0002537325,8,1
0.0005861287,0.000351458,8,1
0.0005715428,0.00044578,8,1
0.0005963388,0.0005227611,8,1
0.000624052,0.0005775391,8,1
0.0006162729,0.0006274553,8,1
0.0005533914,0.0006940642,8,1
0.0004423766,0.0007833623,8,1
0.0003051073,0.0008703915,8,1
0.000162976,0.0009037769,8,1
2.684107e-05,0.0008368439,8,1
-0.0001096179,0.0006571133,8,1
-0.0002656868,0.000396188,8,1
-0.0004617858,0.0001137081,8,1
-0.0007029389,-0.0001277692,8,1
-0.0009624055,-0.0002898345,8,1
-0.001194807,-0.000365357,8,1
-0.001360276,-0.0003718396,8,1
-0.001433367,-0.0003369955,8,1
-0.001408247,-0.0002916173,8,1
-0.001314897,-0.0002595283,8,1
-0.001212796,-0.0002570974,8,1
-0.001155101,-0.0002846485,8,1
-0.001159153,-0.0003345645,8,1
-0.001210527,-0.0003914495,8,1
-0.001270168,-0.0004415277,8,1
-0.001293991,-0.0004762096,8,1
-0.001251692,-0.0004972781,8,1
-0.001137112,-0.0005066779,8,1
-0.0009693743,-0.0005063537,8,1
-0.0007842957,-0.0004954954,8,1
-0.0006108859,-0.0004716718,8,1
-0.000459841,-0.000435045,8,1
-0.0003190063,-0.0003835083,8,1
-0.0001637477,-0.0003146305,8,1
1.711715e-05,-0.0002280877,8,1
0.0002085163,-0.0001295519,8,1
0.0003765781,-3.344723e-05,8,1
0.000483055,4.499239e-05,8,1
0.0005109303,0.0001015532,8,1
0.0004846757,0.0001406109,8,1
0.0004559901,0.000170593,8,1
0.0004626348,0.000200251,8,1
0.0005088235,0.0002372019,8,1
0.0005648981,0.000284525,8,1
0.0005846701,0.0003371962,8,1
0.0005310264,0.0003854917,8,1
0.0003971604,0.0004198496,8,1
0.0002132162,0.0004289252,8,1
2.246531e-05,0.0004107739,8,1
-0.0001314967,0.0003726885,8,1
-0.0002253326,0.0003253654,8,1
-0.0002522354,0.0002775562,8,1
-0.0002217671,0.0002386605,8,1
-0.0001571031,0.0002124059,8,1
-7.963584e-05,0.0001974959,8,1
9.106227e-07,0.0001880961,8,1
8.04847e-05,0.0001770756,8,1
0.0001618415,0.0001615174,8,1
0.0002696149,0.0001477418,8,1
0.0004261701,0.0001419075,8,1
0.0006183797,0.0001438522,8,1
0.0007985964,0.0001487142,8,1
0.0009117182,0.0001466074,8,1
0.0009251696,0.000130725,8,1
0.0008386266,0.0001002567,8,1
0.0006765611,6.298164e-05,8,1
0.0004812723,2.910999e-05,8,1
0.0003013798,1.112074e-05,8,1
0.000165569,1.663096e-05,8,1
7.886404e-05,4.061663e-05,8,1
3.364782e-05,7.513654e-05,8,1
1.825161e-05,0.0001099806,8,1
1.938607e-05,0.0001402868,8,1
1.614476e-05,0.0001639484,8,1
-1.20546e-05,0.0001869616,8,1
-7.461182e-05,0.0002122438,8,1
-0.0001655305,0.0002313675,8,1
-0.0002635799,0.0002297469,8,1
-0.0003438023,0.0002012234,8,1
-0.0003890185,0.0001448246,8,1
-0.0003805911,5.1475e-05,8,1
-0.0002987481,-7.995997e-05,8,1
-0.0001350622,-0.0002350565,8,1
7.20573e-05,-0.0003854531,8,1
0.0002509774,-0.0005050572,8,1
0.000336548,-0.0005799314,8,1
0.0002906835,-0.000611048,8,1
0.000118408,-0.0006128307,8,1
-0.0001353863,-0.0005997034,8,1
-0.0003985804,-0.0005823624,8,1
-0.0005984068,-0.0005671282,8,1
-0.0006911082,-0.000559025,8,1
-0.000675874,-0.0005522182,8,1
-0.0005843072,-0.0005296912,8,1
-0.0004489826,-0.0004728062,8,1
-0.0002896725,-0.0003758912,8,1
-0.0001152902,-0.0002535319,8,1
5.633696e-05,-0.0001318209,8,1
0.0001947408,-2.566809e-05,8,1
0.0002621599,6.589881e-05,8,1
0.0002376881,0.0001561692,8,1
0.0001328318,0.0002576221,8,1
-1.432352e-05,0.0003790091,8,1
-0.0001465688,0.0005268127,8,1
-0.0002203085,0.0007011951,8,1
-0.0002251705,0.0008895152,8,1
-0.0001912988,0.001073297,8,1
-0.0001541859,0.001235687,8,1
-0.0001263107,0.001359181,8,1
-9.632857e-05,0.001427087,8,1
-4.738484e-05,0.001416228,8,1
1.954813e-05,0.001307806,8,1
8.810177e-05,0.001105873,8,1
0.0001216493,0.0008415438,8,1
6.946425e-05,0.0005611706,8,1
-9.017008e-05,0.0003141829,8,1
-0.0003264613,0.0001318594,8,1
-0.0005656697,2.359977e-05,8,1
-0.0007335693,-2.129233e-05,8,1
-0.0007990437,-2.583016e-05,8,1
-0.0007839716,-9.623623e-06,8,1
-0.0007267626,6.744974e-06,8,1
-0.0006526987,1.112074e-05,8,1
-0.0005587008,-1.034161e-06,8,1
-0.0004245108,-2.696461e-05,8,1
-0.000238784,-6.278104e-05,8,1
-1.399939e-05,-9.616651e-05,8,1
0.0002140265,-0.0001173971,8,1
0.0004078567,-0.000122259,8,1
0.0005418848,-0.0001152902,8,1
0.0006081695,-0.0001036215,8,1
0.0006222692,-0.0001003802,8,1
0.0006131936,-0.0001193418,8,1
0.0006175694,-0.000164396,8,1
0.0006566271,-0.0002305186,8,1
0.0007316634,-0.0003074997,8,1
0.0008256614,-0.000380267,8,1
0.0009050734,-0.000434883,8,1
0.0009334349,-0.0004627582,8,1
0.00088676,-0.0004608134,8,1
0.0007665075,-0.0004343968,8,1
0.0005947181,-0.0003929081,8,1
0.0004101256,-0.0003399127,8,1
0.0002516257,-0.0002820554,8,1
0.0001360731,-0.0002225774,8,1
5.082674e-05,-0.0001710407,8,1
-3.182657e-05,-0.0001355484,8,1
-0.0001421931,-0.0001206384,8,1
-0.000290969,-0.0001293899,8,1
-0.0004669719,-0.0001575893,8,1
-0.0006418404,-0.0001900023,8,1
-0.0007859163,-0.0002183637,8,1
-0.0008784557,-0.0002397564,8,1
-0.0009077895,-0.0002645523,8,1
-0.0008815349,-0.0003068514,8,1
-0.0008225431,-0.0003716775,8,1
-0.0007591756,-0.0004468758,8,1
-0.000713149,-0.0005129984,8,1
-0.000695646,-0.00055157,8,1
-0.0006966184,-0.0005570802,8,1
-0.0006922426,-0.000534229,8,1
-0.0006622606,-0.0004912817,8,1
-0.0005987309,-0.0004371519,8,1
-0.0005092709,-0.0003783222,8,1
-0.0003946908,-0.000320789,8,1
-0.000258718,-0.0002681178,8,1
-0.0001084835,-0.0002201465,8,1
4.175109e-05,-0.0001773612,8,1
0.0001817755,-0.0001433275,8,1
0.0003052694,-0.000122097,8,1
0.0004114222,-0.0001068628,8,1
0.0004994237,-8.692878e-05,8,1
0.0005576051,-5.678463e-05,8,1
0.0005764047,-2.84232e-05,8,1
0.0005566327,-2.874733e-05,8,1
0.0005094717,-7.461182e-05,8,1
0.0004430249,-0.0001540238,8,1
0.0003605336,-0.0002316531,8,1
0.0002751252,-0.0002715212,8,1
0.0002106232,-0.0002595283,8,1
0.0001971717,-0.0002019951,8,1
0.0002516257,-0.0001157764,8,1
0.0003632887,-1.237873e-05,8,1
0.0004918066,0.0001000946,8,1
0.0005911527,0.0002158093,8,1
0.0006415551,0.0003256896,8,1
0.0006516031,0.0004102877,8,1
0.0006410689,0.0004448076,8,1
0.0006112488,0.0004175806,8,1
0.0005435055,0.0003349273,8,1
0.0004289252,0.0002271538,8,1
0.0002940868,0.0001318594,8,1
0.0001902029,7.837785e-05,8,1
0.0001564933,7.448828e-05,8,1
0.0002010613,0.0001163011,8,1
0.0002937627,0.0001945787,8,1
0.0003869503,0.0002983005,8,1
0.0004394595,0.0004169324,8,1
0.0004337872,0.0005388056,8,1
0.0003780367,0.0006473894,8,1
0.0002942489,0.0007284221,8,1
0.0002085163,0.0007830382,8,1
0.000135911,0.0008204753,8,1
7.497447e-05,0.0008515919,8,1
2.068259e-05,0.0008734707,8,1
-2.809907e-05,0.0008695811,8,1
-8.336335e-05,0.0008242028,8,1
-0.0001596961,0.0007339324,8,1
-0.0002650386,0.0006156246,8,1
-0.0003972838,0.0004866205,8,1
-0.0005522182,0.0003613439,8,1
-0.0007324349,0.0002453052,8,1
-0.0009244822,0.0001443384,8,1
-0.001093192,6.217132e-05,8,1
-0.001191404,2.623614e-07,8,1
-0.001181032,-4.090223e-05,8,1
-0.001054783,-6.731888e-05,8,1
-0.0008283774,-8.07703e-05,8,1
-0.0005327704,-8.352541e-05,8,1
-0.0002047502,-7.590833e-05,8,1
0.0001175977,-6.683268e-05,8,1
0.0003997535,-7.526008e-05,8,1
0.000629076,-0.0001079973,8,1
0.000812372,-0.0001558065,8,1
0.0009627688,-0.0001998883,8,1
0.001082373,-0.0002267911,8,1
0.00116454,-0.0002293842,8,1
0.001201491,-0.0002130156,8,1
0.001203112,-0.0001880575,8,1
0.001193064,-0.0001663408,8,1
0.001180909,-0.0001540238,8,1
0.001145741,-0.0001475412,8,1
0.001060818,-0.0001433275,8,1
0.0009100975,-0.0001423551,8,1
0.0007021675,-0.000144624,8,1
0.0004666864,-0.0001524032,8,1
0.0002333123,-0.0001639098,8,1
1.54965e-05,-0.000176713,8,1
-0.0001857886,-0.0001911368,8,1
-0.0003752429,-0.0002073433,8,1
-0.0005518941,-0.0002284118,8,1
-0.0006974287,-0.0002546664,8,1
-0.0007930472,-0.0002833519,8,1
-0.000834698,-0.0003113892,8,1
-0.0008299981,-0.0003363473,8,1
-0.0007909404,-0.00035304,8,1
-0.0007295177,-0.0003598467,8,1
-0.0006492953,-0.0003582261,8,1
-0.0005556216,-0.0003502849,8,1
-0.0004591928,-0.00033813,8,1
-0.0003760533,-0.0003246786,8,1
-0.0003149546,-0.0003087962,8,1
-0.0002684419,-0.0002914552,8,1
-0.0002196603,-0.0002734659,8,1
-0.0001551583,-0.0002655248,8,1
-7.007399e-05,-0.0002820554,8,1
3.688912e-05,-0.0003309991,8,1
0.0001501728,-0.0004036044,8,1
0.0002394708,-0.0004716718,8,1
0.000277232,-0.0005089468,8,1
0.0002517878,-0.0004995471,8,1
0.0001660552,-0.0004468758,8,1
2.781346e-05,-0.0003621157,8,1
-0.000144624,-0.0002671454,8,1
-0.0003285682,-0.0001851404,8,1
-0.0004980884,-0.0001277692,8,1
-0.0006246614,-9.373552e-05,8,1
-0.0006836532,-7.169464e-05,8,1
-0.0006679329,-4.949169e-05,8,1
-0.0005917621,-2.177852e-05,8,1
-0.0004865818,1.22552e-05,8,1
-0.0003854531,5.228533e-05,8,1
-0.0003076617,8.875003e-05,8,1
-0.0002632558,0.0001122495,8,1
-0.0002523975,0.0001169494,8,1
-0.0002648765,0.0001078737,8,1
-0.0002840002,9.571884e-05,8,1
-0.0002963172,9.555677e-05,8,1
-0.0002963172,0.0001137081,8,1
-0.0002891863,0.0001453108,8,1
-0.0002812451,0.0001799928,8,1
-0.0002789762,0.0002083542,8,1
-0.000293562,0.0002321778,8,1
-0.0003408851,0.0002637806,8,1
-0.0004298589,0.0003133726,8,1
-0.0005530285,0.0003781987,8,1
-0.0006870566,0.0004478869,8,1
-0.0008014747,0.000507527,8,1
-0.0008677593,0.0005404262,8,1
-0.0008677593,0.0005360505,8,1
-0.000809902,0.0004932652,8,1
-0.0007262764,0.0004255218,8,1
-0.0006395715,0.0003493511,8,1
-0.000561456,0.0002760976,8,1
-0.0004903093,0.0002060853,8,1
-0.0004180282,0.0001401247,8,1
-0.000330675,9.053275e-05,8,1
-0.0002185258,6.865393e-05,8,1
-9.179074e-05,7.546067e-05,8,1
4.094075e-05,0.0001049566,8,1
0.0001840444,0.0001503349,8,1
0.0003477304,0.000200413,8,1
0.0005297299,0.0002334744,8,1
0.0007071915,0.0002294227,8,1
0.0008447851,0.000185341,8,1
0.0009105837,0.0001245665,8,1
0.0008992391,7.643307e-05,8,1
0.000837168,6.78436e-05,8,1
0.0007759072,0.0001025256,8,1
0.0007629421,0.0001667035,8,1
0.0008195029,0.0002384984,8,1
0.0009233868,0.0002991108,8,1
0.001028405,0.0003407616,8,1
0.001077349,0.0003632887,8,1
0.00103116,0.0003699334,8,1
0.0008874084,0.0003628026,8,1
0.0006879058,0.000339303,8,1
0.0004943996,0.0002983005,8,1
0.0003509718,0.0002433604,8,1
0.000269777,0.0001722137,8,1
0.0002456293,7.124698e-05,8,1
0.0002561635,-7.704279e-05,8,1
0.0002704253,-0.0002703867,8,1
0.0002589186,-0.0004818819,8,1
0.0001986303,-0.0006750637,8,1
7.67572e-05,-0.0008299981,8,1
-9.405965e-05,-0.0009419852,8,1
-0.0002827037,-0.001021559,8,1
-0.0004549791,-0.00108282,8,1
-0.0005820383,-0.001131926,8,1
-0.0006411921,-0.001160935,8,1
-0.0006159099,-0.001158342,8,1
-0.0004972781,-0.001119771,8,1
-0.0002911311,-0.001048138,8,1
-3.101625e-05,-0.0009546264,8,1
0.0002261814,-0.0008478253,8,1
0.0004276287,-0.0007337314,8,1
0.0005334574,-0.0006147755,8,1
0.0005389676,-0.0004966299,8,1
0.0004697657,-0.0003872358,8,1
0.0003603715,-0.0002919414,8,1
0.0002384984,-0.000206533,8,1
0.0001200286,-0.0001238797,8,1
9.175954e-06,-3.182657e-05,8,1
-0.0001076731,7.886404e-05,8,1
-0.0002395943,0.0002114335,8,1
-0.0003724878,0.0003597233,8,1
-0.0004666478,0.0005097958,8,1
-0.0004807475,0.0006485239,8,1
-0.0003972838,0.0007720177,8,1
-0.0002340841,0.0008807636,8,1
-2.939559e-05,0.0009752478,8,1
0.0001751309,0.001048177,8,1
0.0003521062,0.001087073,8,1
0.0004934272,0.001078484,8,1
0.0006052523,0.001022085,8,1
0.0006943883,0.0009334349,8,1
0.0007556491,0.000839599,8,1
0.0007904932,0.0007639144,8,1
0.0008070238,0.0007152948,8,1
0.0008079963,0.0006916333,8,1
0.0007890346,0.0006814231,8,1
0.0007433321,0.0006694303,8,1
0.0006723474,0.0006451205,8,1
0.0005751082,0.0005986077,8,1
0.0004543695,0.0005243817,8,1
0.0003188828,0.0004286011,8,1
0.0001762653,0.000329255,8,1
3.105477e-05,0.0002466017,8,1
-0.0001154523,0.0001913374,8,1
-0.0002624455,0.0001634622,8,1
-0.0003984183,0.0001590864,8,1
-0.0005053814,0.0001783722,8,1
-0.0005702075,0.0002140265,8,1
-0.0005903036,0.0002521119,8,1
-0.0005800935,0.0002715597,8,1
-0.0005488148,0.0002566497,8,1
-0.000501978,0.000205275,8,1
-0.0004410415,0.0001316974,8,1
-0.0003723258,6.006447e-05,8,1
-0.0003094444,8.365628e-06,8,1
-0.0002707109,-1.480971e-05,8,1
-0.0002642282,-1.221667e-05,8,1
-0.0002846485,7.393236e-06,8,1
-0.0003203028,2.878586e-05,8,1
-0.0003569296,3.380988e-05,8,1
-0.0003831841,2.207145e-06,8,1
-0.000395339,-7.704279e-05,8,1
-0.0003967976,-0.0001938919,8,1
-0.000390315,-0.0003180339,8,1
-0.000377836,-0.0004170558,8,1
-0.0003590364,-0.000467134,8,1
-0.0003358611,-0.000459841,8,1
-0.0003193304,-0.0003969597,8,1
-0.0003193304,-0.0002924276,8,1
-0.0003334301,-0.0001695821,8,1
-0.0003434782,-5.953974e-05,8,1
-0.0003350507,8.365628e-06,8,1
-0.0003040963,2.278944e-05,8,1
-0.0002527216,-8.975362e-06,8,1
-0.0001882196,-6.926366e-05,8,1
-0.0001340898,-0.0001485136,8,1
-0.0001167488,-0.0002399184,8,1
-0.0001391138,-0.0003366714,8,1
-0.000174444,-0.0004292107,8,1
-0.000201509,-0.0005087847,8,1
-0.0002143121,-0.0005693972,8,1
-0.0002193361,-0.000608779,8,1
-0.0002285739,-0.0006304958,8,1
-0.0002577456,-0.0006371404,8,1
-0.00030831,-0.0006350336,8,1
-0.0003548227,-0.0006293613,8,1
-0.000367788,-0.0006189891,8,1
-0.0003324577,-0.0006000275,8,1
-0.0002600145,-0.0005750695,8,1
-0.000164396,-0.0005410357,8,1
-5.483985e-05,-0.0004941989,8,1
6.654708e-05,-0.000430021,8,1
0.0002010613,-0.0003528779,8,1
0.0003467581,-0.0002744383,8,1
0.0005008822,-0.0002092881,8,1
0.0006671614,-0.0001624512,8,1
0.0008389507,-0.0001290658,8,1
0.0009971267,-0.0001028112,8,1
0.001115759,-8.02841e-05,8,1
0.001175237,-5.743289e-05,8,1
0.001170051,-2.971972e-05,8,1
0.001095176,3.665733e-06,8,1
0.0009504518,3.93201e-05,8,1
0.0007433321,7.173317e-05,8,1
0.0004900239,9.896015e-05,8,1
0.0002086784,0.0001222976,8,1
-8.368748e-05,0.0001420695,8,1
-0.0003724878,0.0001571416,8,1
-0.0006494574,0.0001714034,8,1
-0.0009071412,0.0001869616,8,1
-0.001137922,0.0002088404,8,1
-0.001329159,0.0002407673,8,1
-0.001464646,0.0002743149,8,1
-0.001520072,0.0002819319,8,1
-0.001470156,0.0002383363,8,1
-0.001308091,0.0001409351,8,1
-0.001047652,1.306552e-05,8,1
-0.0007309763,-0.0001089697,8,1
-0.0004155972,-0.0002010227,8,1
-0.0001477033,-0.0002588801,8,1
5.795762e-05,-0.0002851347,8,1
0.0002145127,-0.0002849726,8,1
0.0003394651,-0.0002624455,8,1
0.0004451317,-0.0002241981,8,1
0.0005402642,-0.0001831956,8,1
0.0006357207,-0.0001507825,8,1
0.0007357151,-0.0001280934,8,1
0.0008348991,-0.0001081593,8,1
0.0009220903,-7.55842e-05,8,1
0.0009940475,-2.226472e-05,8,1
0.001057739,5.244739e-05,8,1
0.0011237,0.0001402868,8,1
0.001191119,0.0002331503,8,1
0.001241846,0.0003235827,8,1
0.001253514,0.0004136911,8,1
0.001207164,0.0005107683,8,1
0.001106683,0.0006140039,8,1
0.0009839993,0.0007164293,8,1
0.0008750914,0.000809941,8,1
0.0007916276,0.00088676,8,1
0.0007055709,0.0009489932,8,1
0.0005838597,0.001008309,8,1
0.0004269804,0.001075566,8,1
0.0002678322,0.001146875,8,1
0.0001435281,0.001195009,8,1
6.589881e-05,0.001186743,8,1
1.501031e-05,0.001100687,8,1
-3.182657e-05,0.0009418624,8,1
-8.044617e-05,0.0007337703,8,1
-0.0001159385,0.0005097958,8,1
-0.0001156143,0.0003010556,8,1
-6.602235e-05,0.0001344524,8,1
3.283749e-05,2.408596e-05,8,1
0.0001547106,-3.360929e-05,8,1
0.0002529222,-5.953974e-05,8,1
0.0002882525,-7.444975e-05,8,1
0.0002454672,-9.956988e-05,8,1
0.0001344524,-0.0001454344,8,1
-1.25408e-05,-0.0002042641,8,1
-0.0001562927,-0.0002558008,8,1
-0.000273628,-0.0002887001,8,1
-0.0003669776,-0.000303286,8,1
-0.0004439586,-0.0003089583,8,1
-0.0005082985,-0.0003131719,8,1
-0.0005651835,-0.0003185201,8,1
-0.000621096,-0.0003246786,8,1
-0.0006872186,-0.0003277578,8,1
-0.0007718167,-0.0003274337,8,1
-0.0008651663,-0.0003290543,8,1
-0.0009508989,-0.0003408851,8,1
-0.001013942,-0.0003783222,8,1
-0.00104911,-0.0004412035,8,1
-0.001050407,-0.0005159156,8,1
-0.001015887,-0.000583821,8,1
-0.0009500885,-0.0006303337,8,1
-0.0008666249,-0.0006489712,8,1
-0.0007744097,-0.0006395715,8,1
-0.0006651777,-0.0006045654,8,1
-0.0005228845,-0.0005471942,8,1
-0.0003441264,-0.0004702132,8,1
-0.0001472171,-0.000377836,8,1
3.18651e-05,-0.0002765452,8,1
0.0001590864,-0.000174282,8,1
0.0002153231,-8.158062e-05,8,1
0.0001919856,-2.978945e-06,8,1
9.750156e-05,5.682316e-05,8,1
-3.976777e-05,0.0001026876,8,1
-0.0001791439,0.0001440143,8,1
-0.0002869174,0.0001825859,8,1
-0.0003515814,0.0002070577,8,1
-0.0003797808,0.0001981441,8,1
-0.000395177,0.0001445005,8,1
-0.0004313175,5.082674e-05,8,1
-0.0005147812,-6.083626e-05,8,1
-0.000648485,-0.0001707166,8,1
-0.0007979092,-0.0002650386,8,1
-0.000904224,-0.0003358611,8,1
-0.000911355,-0.0003818876,8,1
-0.0007996919,-0.0004031182,8,1
-0.0005901415,-0.000402632,8,1
-0.0003222476,-0.0003883702,8,1
-3.960571e-05,-0.000370543,8,1
0.0002227781,-0.0003548227,8,1
0.0004499937,-0.0003350507,8,1
0.0006379896,-0.0002955068,8,1
0.000779959,-0.0002290601,8,1
0.0008673123,-0.0001498101,8,1
0.0008998874,-8.352541e-05,8,1
0.0008853014,-4.85193e-05,8,1
0.0008336026,-4.284701e-05,8,1
0.0007496527,-5.451572e-05,8,1
0.0006353966,-6.683268e-05,8,1
0.0004794896,-6.991193e-05,8,1
0.0002743149,-6.229485e-05,8,1
2.992031e-05,-4.916756e-05,8,1
-0.0002332737,-4.657452e-05,8,1
-0.0004917679,-8.465986e-05,8,1
-0.0007134732,-0.0001784957,8,1
-0.0008624112,-0.0003110651,8,1
-0.0009120032,-0.0004431483,8,1
-0.0008692179,-0.0005316359,8,1
-0.0007640376,-0.0005528665,8,1
-0.0006254718,-0.0005068399,8,1
-0.0004698891,-0.0004032803,8,1
-0.0003087962,-0.0002522354,8,1
-0.0001439758,-6.375344e-05,8,1
3.040651e-05,0.0001587623,8,1
0.0002153231,0.0004076947,8,1
0.0004018603,0.0006546823,8,1
0.0005773771,0.0008511057,8,1
0.0007227498,0.0009611481,8,1
0.0008136685,0.0009784892,8,1
0.0008331164,0.0009246834,8,1
0.0007913035,0.0008336026,8,1
0.0007261531,0.0007248566,8,1
0.0006749405,0.0006096281,8,1
0.0006478756,0.0004952099,8,1
0.0006302104,0.0003932708,8,1
0.0006052523,0.000321638,8,1
0.0005563086,0.0002934386,8,1
0.0004671726,0.000309483,8,1
0.0003256896,0.0003530786,8,1
0.0001291043,0.0004047775,8,1
-0.000104756,0.0004597176,8,1
-0.0003339163,0.0005274609,8,1
-0.0005039228,0.0006114109,8,1
-0.0005723144,0.000693416,8,1
-0.0005211017,0.0007407391,8,1
-0.0003600088,0.0007209671,8,1
-0.0001143178,0.0006235657,8,1
0.0001918236,0.0004639314,8,1
0.0005316747,0.0002759355,8,1
0.0008613158,9.782569e-05,8,1
0.001133748,-3.976777e-05,8,1
0.001323203,-0.0001269589,8,1
0.001433245,-0.0001650443,8,1
0.00149402,-0.0001684476,8,1
0.001534212,-0.0001592099,8,1
0.001562087,-0.0001559686,8,1
0.001567273,-0.0001660166,8,1
0.001527892,-0.0001895161,8,1
0.001418659,-0.0002211189,8,1
0.00123277,-0.000251101,8,1
0.0009930751,-0.0002765452,8,1
0.0007451148,-0.0002964792,8,1
0.000530054,-0.0003070135,8,1
0.0003734989,-0.0003081479,8,1
0.0002874421,-0.0003011791,8,1
0.0002616738,-0.0002849726,8,1
0.0002654013,-0.0002652006,8,1
0.0002642668,-0.0002496423,8,1
0.0002297469,-0.0002470493,8,1
0.0001436902,-0.000261311,8,1
1.12828e-05,-0.0002852967,8,1
-0.0001457585,-0.0003074997,8,1
-0.0002963172,-0.0003146305,8,1
-0.0004207833,-0.0002993964,8,1
-0.0005188328,-0.0002622834,8,1
-0.0005982448,-0.0002112329,8,1
-0.0006625847,-0.0001580754,8,1
-0.0007094215,-0.0001126972,8,1
-0.000732759,-8.255302e-05,8,1
-0.0007366485,-6.748094e-05,8,1
-0.0007293556,-6.310517e-05,8,1
-0.0007243316,-6.44017e-05,8,1
-0.000727897,-6.456377e-05,8,1
-0.000737783,-6.213279e-05,8,1
-0.0007522068,-5.759496e-05,8,1
-0.000767603,-5.435365e-05,8,1
-0.0007753822,-5.127441e-05,8,1
-0.0007638755,-4.187462e-05,8,1
-0.0007317866,-2.323711e-05,8,1
-0.0006920806,-1.196227e-06,8,1
-0.0006661501,1.079661e-05,8,1
-0.0006718224,4.244267e-07,8,1
-0.000713149,-3.506788e-05,8,1
-0.0007821888,-8.725291e-05,8,1
-0.0008732696,-0.0001366828,8,1
-0.0009821774,-0.00016942,8,1
-0.001091085,-0.000176713,8,1
-0.001165797,-0.0001590478,8,1
-0.00117779,-0.0001185315,8,1
-0.00112204,-6.44017e-05,8,1
-0.001018156,-7.840905e-06,8,1
-0.0008982276,4.191315e-05,8,1
-0.0007826751,8.097089e-05,8,1
-0.0006749016,0.0001124116,8,1
-0.0005645352,0.0001393144,8,1
-0.0004314796,0.0001658931,8,1
-0.0002588801,0.0001986303,8,1
-5.208474e-05,0.0002394708,8,1
0.0001560072,0.0002840388,8,1
0.0003234207,0.0003219621,8,1
0.0004290873,0.0003347652,8,1
0.0004777069,0.0003072141,8,1
0.000485486,0.0002381743,8,1
0.0004671726,0.000138342,8,1
0.0004247115,3.056858e-05,8,1
0.0003587509,-6.472583e-05,8,1
0.0002783665,-0.0001363587,8,1
0.000205275,-0.0001752544,8,1
0.0001628139,-0.0001796301,8,1
0.0001539003,-0.000159534,8,1
0.0001566554,-0.0001386276,8,1
0.0001380179,-0.0001438137,8,1
8.259155e-05,-0.000191785,8,1
-8.720959e-07,-0.0002874036,8,1
-8.44978e-05,-0.0004193247,8,1
-0.0001485136,-0.0005611319,8,1
-0.0002002124,-0.0006844635,8,1
-0.0002629317,-0.0007659824,8,1
-0.000355633,-0.0007945059,8,1
-0.000467296,-0.0007687375,8,1
-0.0005548113,-0.0006998597,8,1
-0.0005697213,-0.0006027826,8,1
-0.0004883645,-0.0004922541,8,1
-0.0003170615,-0.0003805911,8,1
-9.033215e-05,-0.000276221,8,1
0.0001406109,-0.0001825473,8,1
0.0003290929,-0.000102325,8,1
0.0004498317,-3.749886e-05,8,1
0.0005084993,1.517237e-05,8,1
0.000532647,6.670914e-05,8,1
0.0005563086,0.0001253768,8,1
0.0006021731,0.0001876099,8,1
0.0006644063,0.0002414156,8,1
0.0007180499,0.0002832284,8,1
0.0007358771,0.000324393,8,1
0.0007070294,0.0003811159,8,1
0.0006425274,0.0004674968,8,1
0.0005637637,0.0005841838,8,1
0.0004832171,0.0007211292,8,1
0.0003999155,0.000854347,8,1
0.0003013798,0.0009567724,8,1
0.0001767515,0.001018519,8,1
2.197911e-05,0.001042343,8,1
-0.0001549962,0.001030026,8,1
-0.0003353749,0.0009775168,8,1
-0.0004948471,0.0008827084,8,1
-0.0006105618,0.0007606731,8,1
-0.0006671225,0.0006399344,8,1
-0.0006702017,0.0005470709,8,1
-0.0006358439,0.0004982892,8,1
-0.0005919242,0.0004893756,8,1
-0.0005784728,0.0005026649,8,1
-0.000621258,0.0005156302,8,1
-0.0007011562,0.0005112545,8,1
-0.0007703581,0.0004824068,8,1
-0.0007758683,0.0004269804,8,1
-0.0006873807,0.0003469201,8,1
-0.0004914437,0.0002509774,8,1
-0.0001853024,0.000155683,8,1
0.0002132162,7.497447e-05,8,1
0.0006629477,1.889987e-05,8,1
0.001116893,-1.432352e-05,8,1
0.001528864,-4.284701e-05,8,1
0.001850889,-9.098041e-05,8,1
0.002034185,-0.0001715269,8,1
0.002037426,-0.0002744383,8,1
0.001847485,-0.0003771877,8,1
0.001496613,-0.0004588687,8,1
0.001056119,-0.0005087847,8,1
0.0006102764,-0.0005248293,8,1
0.0002294227,-0.0005136467,8,1
-6.359137e-05,-0.000484475,8,1
-0.0002878898,-0.0004502792,8,1
-0.0004828543,-0.0004308313,8,1
-0.0006810602,-0.0004379622,8,1
-0.0008868831,-0.000464703,8,1
-0.001069044,-0.0004838267,8,1
-0.00117147,-0.0004706994,8,1
-0.001129981,-0.0004112214,8,1
-0.0009027654,-0.0003016653,8,1
-0.0004941989,-0.0001577513,8,1
5.260946e-05,-1.756482e-05,8,1
0.0006597064,8.340187e-05,8,1
0.001231798,0.0001265113,8,1
0.001688012,0.0001069013,8,1
0.001987996,3.640293e-05,8,1
0.002128021,-6.083626e-05,8,1
0.002129318,-0.0001582375,8,1
0.002021058,-0.0002347323,8,1
0.001821393,-0.000276221,8,1
0.001558684,-0.0002805968,8,1
0.001274097,-0.0002605007,8,1
0.001007175,-0.0002298704,8,1
0.0007721797,-0.0002011848,8,1
0.0005564707,-0.0001833576,8,1
0.0003384927,-0.0001882196,8,1
0.0001130598,-0.0002241981,8,1
-0.0001076731,-0.0002951827,8,1
-0.0003066893,-0.0003964735,8,1
-0.0004698891,-0.0005079744,8,1
-0.0006000275,-0.0006027826,8,1
-0.0007173628,-0.0006518884,8,1
-0.0008400462,-0.0006405439,8,1
-0.0009698605,-0.0005672903,8,1
-0.001088978,-0.000447362,8,1
-0.001177628,-0.0003044204,8,1
-0.001222682,-0.0001624512,8,1
-0.001213931,-3.425755e-05,8,1
-0.001148619,8.372601e-05,8,1
-0.001039224,0.0002057612,8,1
-0.000916541,0.0003431926,8,1
-0.0008084435,0.0004824068,8,1
-0.0007343796,0.0005932595,8,1
-0.0006993735,0.0006430136,8,1
-0.000683167,0.0006101143,8,1
-0.0006465403,0.0004982892,8,1
-0.0005612939,0.0003383307,8,1
-0.0004262935,0.0001749688,8,1
-0.0002723315,4.645098e-05,8,1
-0.0001439758,-2.518189e-05,8,1
-6.958779e-05,-4.203669e-05,8,1
-5.986387e-05,-1.934754e-05,8,1
-0.0001055663,2.133085e-05,8,1
-0.0001836818,5.876794e-05,8,1
-0.0002619593,7.967438e-05,8,1
-0.0003138202,8.242948e-05,8,1
-0.0003285682,7.351589e-05,8,1
-0.0003126857,6.298164e-05,8,1
-0.0002862691,6.362991e-05,8,1
-0.0002721694,7.659513e-05,8,1
-0.0002833519,9.328786e-05,8,1
-0.0003211132,0.0001025256,8,1
-0.0003723258,9.814982e-05,8,1
-0.0004240246,7.643307e-05,8,1
-0.0004635685,3.98063e-05,8,1
-0.0004833405,-7.030578e-06,8,1
-0.0004755614,-5.581224e-05,8,1
-0.0004356933,-9.389759e-05,8,1
-0.000375405,-0.0001141558,8,1
-0.0003141443,-0.0001120489,8,1
-0.0002669833,-8.465986e-05,8,1
-0.0002433218,-3.863332e-05,8,1
-0.0002447804,1.59827e-05,8,1
-0.000268604,7.140904e-05,8,1
-0.0003065273,0.0001211631,8,1
-0.0003488263,0.000160707,8,1
-0.0003942046,0.0001913374,8,1
-0.0004442827,0.0002169437,8,1
-0.0004933886,0.0002394708,8,1
-0.0005444391,0.0002556773,8,1
-0.0006094273,0.0002641047,8,1
-0.0006838153,0.0002636185,8,1
-0.0007264384,0.0002564877,8,1
-0.0006907841,0.0002372019,8,1
-0.0005551354,0.0001970097,8,1
-0.0003324577,0.0001351007,8,1
-6.861539e-05,6.670914e-05,8,1
0.0001761032,8.041497e-06,8,1
0.0003569682,-2.566809e-05,8,1
0.0004592314,-3.490581e-05,8,1
0.0005000719,-2.777494e-05,8,1
0.0005018546,-8.489166e-06,8,1
0.000483055,2.359977e-05,8,1
0.0004632831,6.83298e-05,8,1
0.0004571246,0.0001174356,8,1
0.0004585832,0.000150659,8,1
0.0004480489,0.0001425557,8,1
0.0004149876,7.837785e-05,8,1
0.0003712299,-4.365734e-05,8,1
0.0003380065,-0.0002039399,8,1
0.0003300653,-0.0003617915,8,1
0.0003495132,-0.0004742648,8,1
0.0003869503,-0.00051705,8,1
0.0004321665,-0.0004977643,8,1
0.0004765725,-0.0004491447,8,1
0.0005170888,-0.0004079801,8,1
0.0005462606,-0.0003967976,8,1
0.0005601982,-0.0004227281,8,1
0.0005540397,-0.000474589,8,1
0.0005235714,-0.0005353634,8,1
0.0004726828,-0.000578959,8,1
0.0004120704,-0.0005857658,8,1
0.0003637749,-0.0005496252,8,1
0.0003425444,-0.0004739407,8,1
0.0003495132,-0.0003715154,8,1
0.0003743092,-0.000251263,8,1
0.0004065602,-0.0001128592,8,1
0.0004448076,4.304761e-05,8,1
0.0005034753,0.0002112714,8,1
0.0005952043,0.0003752816,8,1
0.0007102708,0.0005214646,8,1
0.0008183684,0.0006524134,8,1
0.0008765499,0.0007900069,8,1
0.0008639088,0.0009637412,8,1
0.0007854691,0.001183664,8,1
0.0006550064,0.001426276,8,1
0.0004895377,0.001627562,8,1
0.0003115899,0.001708271,8,1
0.0001462832,0.001626265,8,1
1.047248e-05,0.001398725,8,1
