EMG1,EMG2,class,user
0.001596121,0.0001094944,8,1
0.001980541,8.226741e-05,8,1
0.002245195,6.573675e-05,8,1
0.002327362,4.82337e-05,8,1
0.002216185,2.748934e-05,8,1
0.001958662,2.369211e-06,8,1
0.001630155,-2.453363e-05,8,1
0.001307644,-4.80331e-05,8,1
0.00104445,-6.116039e-05,8,1
0.0008559676,-6.294311e-05,8,1
0.0007292324,-5.808115e-05,8,1
0.0006559788,-5.921561e-05,8,1
0.0006284277,-8.660465e-05,8,1
0.0006279415,-0.0001486757,8,1
0.0006360448,-0.0002261429,8,1
0.0006438239,-0.0002862691,8,1
0.0006410689,-0.0003021515,8,1
0.0005989318,-0.0002663351,8,1
0.0004733311,-0.0001851404,8,1
0.0002441707,-7.60704e-05,8,1
-5.824322e-05,3.850978e-05,8,1
-0.0003666535,0.0001417454,8,1
-0.0006126686,0.0002237505,8,1
-0.0007547998,0.0002807975,8,1
-0.0007907783,0.0003060797,8,1
-0.0007706822,0.0002830664,8,1
-0.0007661444,0.0001976579,8,1
-0.0008227052,4.547859e-05,8,1
-0.0009408508,-0.0001506204,8,1
-0.001093678,-0.0003598467,8,1
-0.001246992,-0.0005536768,8,1
-0.001374538,-0.0007225489,8,1
-0.001461891,-0.0008765109,8,1
-0.0015144,-0.001034525,8,1
-0.001543572,-0.001198048,8,1
-0.001569178,-0.001345042,8,1
-0.001624604,-0.001443577,8,1
-0.001730433,-0.001466104,8,1
-0.001872889,-0.001416512,8,1
-0.002001244,-0.001330942,8,1
-0.002065746,-0.001252178,8,1
-0.002033657,-0.001204855,8,1
-0.001901088,-0.001178114,8,1
-0.001686838,-0.001134033,8,1
-0.001420078,-0.001045707,8,1
-0.001132574,-0.0009192961,8,1
-0.0008423151,-0.0007839716,8,1
-0.000544277,-0.0006705259,8,1
-0.0002183637,-0.000591438,8,1
0.0001453108,-0.0005326084,8,1
0.0005297299,-0.0004604893,8,1
0.0009011839,-0.0003476919,8,1
0.001215105,-0.0001883817,8,1
0.001425952,1.883015e-06,8,1
0.001512657,0.000200413,8,1
0.001496127,0.0003884089,8,1
0.001415904,0.0005650602,8,1
0.001322392,0.0007384702,8,1
0.001241522,0.0009041011,8,1
0.001160651,0.001029702,8,1
0.001036833,0.001081077,8,1
0.0008400852,0.001049474,8,1
0.0005848321,0.0009593654,8,1
0.000329255,0.0008540229,8,1
0.0001433661,0.0007684522,8,1
6.914012e-05,0.0007143224,8,1
0.0001069013,0.0006932539,8,1
0.0002234263,0.0007003848,8,1
0.0003686369,0.0007302048,8,1
0.0005039615,0.0007721797,8,1
0.000599256,0.0008120479,8,1
0.0006255105,0.0008337647,8,1
0.0005704083,0.0008233925,8,1
0.0004404318,0.0007741245,8,1
0.0002550291,0.0006906608,8,1
3.672706e-05,0.0005879114,8,1
-0.0001887058,0.000490348,8,1
-0.0003875599,0.0004250357,8,1
-0.0005308256,0.0004068843,8,1
-0.0006039171,0.0004355699,8,1
-0.0006074825,0.0005015305,8,1
-0.0005512458,0.0005913147,8,1
-0.0004412035,0.0006917953,8,1
-0.0002801106,0.0007870898,8,1
-8.417367e-05,0.0008590469,8,1
0.0001211631,0.0008900014,8,1
0.0003081865,0.0008755776,8,1
0.0004752759,0.0008254994,8,1
0.0006332897,0.000752894,8,1
0.000775421,0.0006577615,8,1
0.0008815739,0.0005276231,8,1
0.0009316522,0.0003480546,8,1
0.0009050734,0.0001122495,8,1
0.0007867657,-0.0001583996,8,1
0.0005754323,-0.0004191627,8,1
0.0002960316,-0.000623689,8,1
-3.627206e-06,-0.0007324349,8,1
-0.0002716832,-0.0007219006,8,1
-0.0004755614,-0.0005971103,8,1
-0.0006078067,-0.0004034423,8,1
-0.0006808981,-0.0002225774,8,1
-0.0007264384,-0.0001267968,8,1
-0.0007680892,-0.000142031,8,1
-0.0008131433,-0.0002486699,8,1
-0.0008564148,-0.0004005251,8,1
-0.000889152,-0.0005470322,8,1
-0.0009022792,-0.0006570745,8,1
-0.0008966069,-0.0007222248,8,1
-0.0008784557,-0.0007512344,8,1
-0.0008530114,-0.0007598239,8,1
-0.000819788,-0.0007620928,8,1
-0.0007815406,-0.0007669547,8,1
-0.0007434553,-0.0007766787,8,1
-0.0007139594,-0.0007860785,8,1
-0.0007032631,-0.0007852681,8,1
-0.0007133111,-0.0007606342,8,1
-0.0007288694,-0.0007035872,8,1
-0.0007288694,-0.0006163961,8,1
-0.0006914323,-0.0005115399,8,1
-0.0005997034,-0.0004070078,8,1
-0.0004470379,-0.0003162512,8,1
-0.0002439701,-0.0002415391,8,1
-2.501983e-05,-0.0001695821,8,1
0.0001598967,-8.806324e-05,8,1
0.0002665357,9.175954e-06,8,1
0.000274801,0.0001213252,8,1
0.0001979821,0.0002435224,8,1
7.659513e-05,0.0003585888,8,1
-4.138842e-05,0.0004328148,8,1
-0.0001138316,0.0004414042,8,1
-0.0001118868,0.0003879227,8,1
-3.604027e-05,0.0003030004,8,1
6.816773e-05,0.0002133783,8,1
0.0001313732,0.0001232699,8,1
0.0001138702,2.230325e-05,8,1
2.943412e-05,-8.903562e-05,8,1
-8.773911e-05,-0.0001958367,8,1
-0.0001997262,-0.0002763831,8,1
-0.0002713591,-0.0003141443,8,1
-0.0002723315,-0.0003027998,8,1
-0.0001909747,-0.000251101,8,1
-3.830919e-05,-0.0001802784,8,1
0.0001461212,-0.0001120489,8,1
0.0003081865,-5.986387e-05,8,1
0.0004119083,-2.566809e-05,8,1
0.0004559901,-6.382317e-06,8,1
0.000468145,5.610517e-06,8,1
0.0004756001,1.938607e-05,8,1
0.000485486,3.672706e-05,8,1
0.000492779,5.52025e-05,8,1
0.0004809482,7.57848e-05,8,1
0.0004292493,0.0001018773,8,1
0.0003237448,0.0001338042,8,1
0.0001667035,0.0001657311,8,1
-1.156841e-05,0.0001916615,8,1
-0.0001741199,0.0002081922,8,1
-0.0002865932,0.000217592,8,1
-0.0003279199,0.0002263435,8,1
-0.0003115513,0.0002391467,8,1
-0.0002668213,0.0002547049,8,1
-0.000224036,0.0002692908,8,1
-0.0002010227,0.00027707,8,1
-0.0002005366,0.0002757735,8,1
-0.0002182017,0.0002654013,8,1
-0.0002261429,0.0002441707,8,1
-0.0001809267,0.0002153231,8,1
-4.365734e-05,0.0001908512,8,1
0.0001932822,0.0001791825,8,1
0.0004822447,0.0001840444,8,1
0.0007370116,0.0001984683,8,1
0.0008870842,0.00021273,8,1
0.0009256558,0.0002195368,8,1
0.0009037769,0.0002179161,8,1
0.0009008598,0.0002106232,8,1
0.0009677928,0.0001974959,8,1
0.001096797,0.0001791825,8,1
0.00124298,0.0001611932,8,1
0.001368257,0.0001448246,8,1
0.001453828,0.0001318594,8,1
0.001498234,0.0001190562,8,1
0.001521085,0.000105929,8,1
0.00154426,9.280167e-05,8,1
0.001569866,8.648112e-05,8,1
0.001571001,9.361199e-05,8,1
0.001520274,0.0001098185,8,1
0.001415418,0.0001302388,8,1
0.001287872,0.0001422316,8,1
0.001184312,0.0001250527,8,1
0.00112921,6.541262e-05,8,1
0.001118838,-3.587821e-05,8,1
0.001137313,-0.0001583996,8,1
0.001163244,-0.0002838381,8,1
0.001174102,-0.0004013355,8,1
0.001146389,-0.0005141329,8,1
0.001065518,-0.000621258,8,1
0.0009227386,-0.0007152559,8,1
0.0007222636,-0.0007860785,8,1
0.0004696036,-0.0008218948,8,1
0.0001665414,-0.0008230293,8,1
-0.0001741199,-0.0007995299,8,1
-0.0005223983,-0.0007554481,8,1
-0.0008473391,-0.0006902979,8,1
-0.001126578,-0.00061121,8,1
-0.001336614,-0.0005330946,8,1
-0.00145395,-0.000467296,8,1
-0.001469184,-0.0004073319,8,1
-0.001399334,-0.0003298647,8,1
-0.001281026,-0.0002191741,8,1
-0.001155749,-7.477388e-05,8,1
-0.001056565,8.502253e-05,8,1
-0.0009987081,0.0002406053,8,1
-0.000978774,0.00038614,8,1
-0.0009987081,0.0005253541,8,1
-0.001063534,0.0006566271,8,1
-0.001157208,0.0007679661,8,1
-0.001239699,0.0008438127,8,1
-0.001275516,0.0008689329,8,1
-0.001250071,0.0008399231,8,1
-0.00116677,0.0007658592,8,1
-0.001042142,0.0006691061,8,1
-0.0008888278,0.0005804563,8,1
-0.0007144455,0.0005198439,8,1
-0.0005340669,0.0004874308,8,1
-0.0003613053,0.0004721967,8,1
-0.0002084778,0.0004649037,8,1
-9.730096e-05,0.0004747897,8,1
-5.64605e-05,0.0005187094,8,1
-0.0001070249,0.0006052523,8,1
-0.0002308428,0.000720805,8,1
-0.0003671397,0.000832144,8,1
-0.0004559515,0.0008982667,8,1
-0.0004588687,0.0008836808,8,1
-0.0003859393,0.0007768797,8,1
-0.0002948586,0.0005995801,8,1
-0.0002428356,0.0004002396,8,1
-0.0002468872,0.0002302331,8,1
-0.0002848105,0.0001179218,8,1
-0.0003305129,5.228533e-05,8,1
-0.0003783222,-1.034161e-06,8,1
-0.0004160834,-7.23429e-05,8,1
-0.0004224039,-0.0001697442,8,1
-0.0003767015,-0.0002796244,8,1
-0.0002750866,-0.000370381,8,1
-0.0001287416,-0.0004183523,8,1
3.721326e-05,-0.0004113835,8,1
0.0001955511,-0.0003611433,8,1
0.0003286068,-0.0003015032,8,1
0.0004230909,-0.0002755728,8,1
0.0004687933,-0.0003023136,8,1
0.0004483731,-0.0003689224,8,1
0.0003480546,-0.0004460655,8,1
0.0001697827,-0.0005100812,8,1
-5.516398e-05,-0.0005462218,8,1
-0.000271035,-0.0005523803,8,1
-0.0004292107,-0.0005361738,8,1
-0.000519481,-0.0005079744,8,1
-0.0005598353,-0.0004775062,8,1
-0.000583983,-0.0004507654,8,1
-0.0006150996,-0.0004382863,8,1
-0.0006598296,-0.0004493068,8,1
-0.0007112043,-0.0004841508,8,1
-0.0007690616,-0.0005371462,8,1
-0.0008351842,-0.0005948414,8,1
-0.0009053585,-0.0006436231,8,1
-0.0009591642,-0.0006773326,8,1
-0.0009662951,-0.0006967805,8,1
-0.0009131377,-0.0007001839,8,1
-0.0008141157,-0.000680736,8,1
-0.0007050458,-0.0006256338,8,1
-0.000616234,-0.0005201293,8,1
-0.0005549733,-0.0003621157,8,1
-0.0005078124,-0.0001647201,8,1
-0.000459841,4.418206e-05,8,1
-0.0004013355,0.0002384984,8,1
-0.0003313232,0.00040105,8,1
-0.0002527216,0.0005287575,8,1
-0.0001780095,0.0006269692,8,1
-0.0001144799,0.0006890402,8,1
-5.402952e-05,0.0007023296,8,1
2.781346e-05,0.0006541961,8,1
0.0001534141,0.0005431813,8,1
0.0003355756,0.0003827366,8,1
0.0005652222,0.0001999268,8,1
0.0008096169,2.910999e-05,8,1
0.001030674,-9.66527e-05,8,1
0.001193064,-0.0001627754,8,1
0.001290789,-0.0001733096,8,1
0.001364853,-0.0001468929,8,1
0.001473438,-0.0001079973,8,1
0.001639393,-8.239095e-05,8,1
0.001835816,-8.628052e-05,8,1
0.001988644,-0.0001204763,8,1
0.002022678,-0.0001703924,8,1
0.001913284,-0.0002203085,8,1
0.001693685,-0.0002590421,8,1
0.001408773,-0.0002694143,8,1
0.001112517,-0.0002397564,8,1
0.0008509436,-0.0001690959,8,1
0.0006491721,-7.104638e-05,8,1
0.0004982892,3.721326e-05,8,1
0.0003790091,0.0001385041,8,1
0.0002850112,0.0002260194,8,1
0.0002206712,0.0002999212,8,1
0.0001939304,0.000361506,8,1
0.0002088404,0.0004119083,8,1
0.0002701012,0.000450642,8,1
0.000373823,0.0004747897,8,1
0.0005007202,0.000483055,8,1
0.0006206486,0.0004747897,8,1
0.0007050846,0.0004540453,8,1
0.0007383081,0.0004279528,8,1
0.0007186982,0.0004015361,8,1
0.0006575995,0.000371392,8,1
0.0005687877,0.0003310377,8,1
0.0004639314,0.0002793389,8,1
0.000341734,0.0002193747,8,1
0.000180479,0.0001649207,8,1
-4.981582e-05,0.000128456,8,1
-0.0003668155,0.0001141943,8,1
-0.0007554481,0.0001190562,8,1
-0.001153156,0.0001326697,8,1
-0.001477449,0.0001438522,8,1
-0.001655235,0.0001399627,8,1
-0.001655397,0.0001088461,8,1
-0.001493818,4.304761e-05,8,1
-0.001227382,-5.64605e-05,8,1
-0.0009340441,-0.0001812508,8,1
-0.0006792775,-0.0003123616,8,1
-0.0004924161,-0.0004288866,8,1
-0.0003697327,-0.0005173742,8,1
-0.0003013411,-0.0005723144,8,1
-0.0002848105,-0.0005916001,8,1
-0.0003138202,-0.0005773384,8,1
-0.0003585502,-0.0005433047,8,1
-0.0003745947,-0.0005029504,8,1
-0.0003345645,-0.0004614617,8,1
-0.0002404046,-0.000417542,8,1
-0.000104756,-0.0003718396,8,1
5.439218e-05,-0.0003326198,8,1
0.0002179161,-0.0003063652,8,1
0.0003624784,-0.0002930758,8,1
0.00046069,-0.000285945,8,1
0.0004759242,-0.00027849,8,1
0.0003809539,-0.0002652006,8,1
0.0001811273,-0.0002402425,8,1
-8.060823e-05,-0.0001998883,8,1
-0.0003476919,-0.0001467309,8,1
-0.0005869002,-8.903562e-05,8,1
-0.0007896438,-3.668853e-05,8,1
-0.0009659709,2.531276e-06,8,1
-0.001125767,2.278944e-05,8,1
-0.001265954,1.97102e-05,8,1
-0.001367731,-8.489166e-06,8,1
-0.001399982,-5.127441e-05,8,1
-0.001325432,-9.276313e-05,8,1
-0.001115719,-0.0001203142,8,1
-0.0007714926,-0.000127283,8,1
-0.0003478539,-0.0001162626,8,1
6.330578e-05,-9.179074e-05,8,1
0.0003875985,-5.64605e-05,8,1
0.0006008766,-3.14101e-06,8,1
0.0007201568,7.951231e-05,8,1
0.0007635903,0.0002115956,8,1
0.0007410632,0.0003973225,8,1
0.0006898505,0.0006023352,8,1
0.0006754267,0.0007606731,8,1
0.0007574318,0.0008112376,8,1
0.0009376486,0.0007321496,8,1
0.001160489,0.000549826,8,1
0.001359991,0.0003218,8,1
0.001493858,0.0001038221,8,1
0.001550419,-6.569822e-05,8,1
0.001533564,-0.0001676373,8,1
0.001448803,-0.0001885437,8,1
0.001307482,-0.0001267968,8,1
0.001132775,1.720949e-06,8,1
0.0009674687,0.0001662173,8,1
0.0008502954,0.0003333067,8,1
0.0008039447,0.0004786793,8,1
0.0008361956,0.000594394,8,1
0.0009502898,0.0006872575,8,1
0.001130345,0.0007676419,8,1
0.001342813,0.0008404093,8,1
0.001534536,0.0008992391,8,1
0.001639879,0.0009243593,8,1
0.001612004,0.0009018321,8,1
0.001442159,0.0008368439,8,1
0.001165675,0.0007626179,8,1
0.0008400852,0.000718212,8,1
0.0005122268,0.0007303669,8,1
0.0002078681,0.0007963275,8,1
-6.359137e-05,0.000889029,8,1
-0.0002966413,0.0009768684,8,1
-0.0004813957,0.001037967,8,1
-0.0006048895,0.001061629,8,1
-0.0006656639,0.001039912,8,1
-0.0006817085,0.0009629308,8,1
-0.000688029,0.0008190167,8,1
-0.0007146077,0.0006047662,8,1
-0.0007687375,0.0003324963,8,1
-0.0008465288,2.473423e-05,8,1
-0.0009452265,-0.0002820554,8,1
-0.001073258,-0.0005473563,8,1
-0.001233703,-0.0007463724,8,1
-0.001413271,-0.0008695421,8,1
-0.001590733,-0.0009272373,8,1
-0.001750367,-0.0009426335,8,1
-0.001887799,-0.0009387439,8,1
-0.002006917,-0.0009259408,8,1
-0.002114528,-0.0009001724,8,1
-0.00221355,-0.00085447,8,1
-0.002318245,-0.0007920748,8,1
-0.002446763,-0.0007261143,8,1
-0.002583708,-0.0006766844,8,1
-0.002681109,-0.000660802,8,1
-0.002694237,-0.0006815463,8,1
-0.002601373,-0.0007300039,8,1
-0.002406408,-0.0007982334,8,1
-0.002113718,-0.0008854245,8,1
-0.001729785,-0.0009823395,8,1
-0.001281836,-0.0010718,8,1
-0.0008186536,-0.001135329,8,1
-0.0003911253,-0.001157694,8,1
-2.988179e-05,-0.001129171,8,1
0.0002501671,-0.001054134,8,1
0.000438325,-0.0009424714,8,1
0.0005097958,-0.0008116848,8,1
0.0004611762,-0.0006847876,8,1
0.0003360618,-0.0005783107,8,1
0.0002172679,-0.0004972781,8,1
0.0001842065,-0.0004420138,8,1
0.0002816078,-0.0004154351,8,1
0.000500234,-0.0004188385,8,1
0.0008002172,-0.0004437966,8,1
0.001142013,-0.0004694029,8,1
0.001492237,-0.0004679443,8,1
0.001812641,-0.0004305072,8,1
0.00206514,-0.0003614674,8,1
0.002220561,-0.0002742763,8,1
0.00225735,-0.0001763888,8,1
0.00216951,-7.526008e-05,8,1
0.001971952,2.554455e-05,8,1
0.001710053,0.000128456,8,1
0.001443131,0.0002310434,8,1
0.001209757,0.0003282826,8,1
0.001021112,0.00041596,8,1
0.0008590469,0.0005013684,8,1
0.0006995744,0.0005963388,8,1
0.0005276231,0.0007041123,8,1
0.0003475684,0.0008207994,8,1
0.0001785342,0.0009382969,8,1
4.483033e-05,0.001053525,8,1
-4.884343e-05,0.001160003,8,1
-0.000129714,0.001242656,8,1
-0.0002253326,0.0012869,8,1
-0.0003442885,0.001279931,8,1
-0.0004650271,0.001220453,8,1
-0.0005489769,0.0011284,8,1
-0.0005672903,0.001025812,8,1
-0.0005222362,0.0009229007,8,1
-0.0004402311,0.0008141547,8,1
-0.0003489884,0.0006930918,8,1
-0.0002750866,0.0005627912,8,1
-0.0002400805,0.0004298976,8,1
-0.0002496423,0.0003067279,8,1
-0.0002974516,0.000200413,8,1
-0.0003557951,0.0001141943,8,1
-0.0003891806,4.191315e-05,8,1
-0.0003788084,-2.907146e-05,8,1
-0.0003305129,-0.0001052422,8,1
-0.000268766,-0.0001822232,8,1
-0.000221443,-0.0002467252,8,1
-0.0001989159,-0.0002865932,8,1
-0.0001851404,-0.0002980999,8,1
-0.0001549962,-0.0002895104,8,1
-0.00010978,-0.0002699005,8,1
-7.574627e-05,-0.0002509389,8,1
-8.790117e-05,-0.0002569353,8,1
-0.0001645581,-0.0003040963,8,1
-0.0003110651,-0.0003767015,8,1
-0.0005230465,-0.0004390967,8,1
-0.0007706822,-0.000459679,8,1
-0.0009868774,-0.0004319658,8,1
-0.001096433,-0.0003690845,8,1
-0.001051866,-0.0002927517,8,1
-0.0008497701,-0.0002319772,8,1
-0.0005324463,-0.0002144742,8,1
-0.0001695821,-0.0002554767,8,1
0.0001678379,-0.0003463953,8,1
0.0004255218,-0.0004617858,8,1
0.0005979594,-0.0005599973,8,1
0.0007229118,-0.0006065101,8,1
0.0008536987,-0.0005869002,8,1
0.001025326,-0.0005099192,8,1
0.001237308,-0.0003993907,8,1
0.001465658,-0.0002895104,8,1
0.001679423,-0.0002099363,8,1
0.001859802,-0.0001687718,8,1
0.002004527,-0.0001428413,8,1
0.00211927,-9.341139e-05,8,1
0.002208406,1.112074e-05,8,1
0.002268695,0.0001657311,8,1
0.002287656,0.000331848,8,1
0.002245033,0.0004636072,8,1
0.002127373,0.0005446399,8,1
0.001938404,0.0005926113,8,1
0.001685582,0.0006399344,8,1
0.001373119,0.0007023296,8,1
0.001003285,0.0007655351,8,1
0.0005801322,0.0007940586,8,1
0.0001203528,0.0007540284,8,1
-0.0003415334,0.0006321552,8,1
-0.0007583653,0.0004420525,8,1
-0.00107261,0.0002224539,8,1
-0.001232568,1.484824e-05,8,1
-0.001209069,-0.0001441378,8,1
-0.001012646,-0.0002382978,8,1
-0.0006925668,-0.0002702246,8,1
-0.0003206269,-0.0002590421,8,1
2.619281e-05,-0.0002224154,8,1
0.0002819319,-0.0001726613,8,1
0.0004114222,-0.0001204763,8,1
0.0004201737,-7.526008e-05,8,1
0.0003388169,-4.300908e-05,8,1
0.0001958752,-2.501983e-05,8,1
7.717366e-06,-1.869928e-05,8,1
-0.0001981056,-2.339918e-05,8,1
-0.0003804291,-3.652646e-05,8,1
-0.0005079744,-5.889148e-05,8,1
-0.0005859278,-9.373552e-05,8,1
-0.0006389232,-0.0001423551,8,1
-0.000688191,-0.000191623,8,1
-0.0007372968,-0.0002222533,8,1
-0.0007813785,-0.0002259808,8,1
-0.0008180053,-0.000204102,8,1
-0.00085447,-0.0001720131,8,1
-0.0009004966,-0.0001459206,8,1
-0.0009554367,-0.0001426792,8,1
-0.00100908,-0.0001728234,8,1
-0.001049759,-0.0002290601,8,1
-0.001067262,-0.0002917793,8,1
-0.001065641,-0.0003449367,8,1
-0.001050083,-0.0003773498,8,1
-0.001024314,-0.0003870737,8,1
-0.0009852567,-0.0003815635,8,1
-0.000923996,-0.0003660052,8,1
-0.0008431255,-0.000340561,8,1
-0.0007572309,-0.0003013411,8,1
-0.0006938633,-0.0002480217,8,1
-0.0006860842,-0.0001925954,8,1
-0.000747669,-0.0001425172,8,1
-0.0008523631,-0.0001021629,8,1
-0.00094863,-6.472583e-05,8,1
-0.0009881739,-2.113026e-05,8,1
-0.0009583539,3.753739e-05,8,1
-0.0008828315,0.0001114392,8,1
-0.0007915886,0.000190365,8,1
-0.0006993735,0.0002579462,8,1
-0.0006060239,0.0002991108,8,1
-0.0005032745,0.000311914,8,1
-0.0003750809,0.0003064038,8,1
-0.0002104225,0.0002950592,8,1
-1.351319e-05,0.0002859836,8,1
0.0001924718,0.0002827423,8,1
0.0003589129,0.0002790148,8,1
0.0004269804,0.0002652392,8,1
0.0003723644,0.0002355812,8,1
0.0002164575,0.0001983062,8,1
1.047248e-05,0.0001715654,8,1
-0.0001851404,0.0001662173,8,1
-0.0003154408,0.0001798307,8,1
-0.0003483401,0.0001991165,8,1
-0.0002917793,0.0002114335,8,1
-0.0001912988,0.0002088404,8,1
-0.0001079973,0.000192796,8,1
-7.299116e-05,0.0001654069,8,1
-8.222889e-05,0.0001279698,8,1
-0.0001243659,8.242948e-05,8,1
-0.000196647,3.575467e-05,8,1
-0.0003013411,-1.682422e-06,8,1
-0.0004306693,-2.226472e-05,8,1
-0.0005606457,-2.939559e-05,8,1
-0.0006680949,-3.377136e-05,8,1
-0.0007342176,-4.560212e-05,8,1
-0.0007489655,-6.245691e-05,8,1
-0.000710556,-7.299116e-05,8,1
-0.0006207718,-6.423963e-05,8,1
-0.0004804233,-3.231277e-05,8,1
-0.0002969654,1.954813e-05,8,1
-9.276313e-05,8.04847e-05,8,1
0.0001033359,0.0001378558,8,1
0.0002670219,0.0001850168,8,1
0.0003948915,0.0002218057,8,1
0.0005067165,0.0002504913,8,1
0.0006370172,0.0002707494,8,1
0.0008177201,0.0002783665,8,1
0.001054174,0.000262322,8,1
0.001320448,0.0002093267,8,1
0.001575539,0.0001188942,8,1
0.001772773,8.203562e-06,8,1
0.001863206,-9.762509e-05,8,1
0.001818313,-0.0001844921,8,1
0.001656572,-0.0002506147,8,1
0.001449452,-0.0003039342,8,1
0.001281876,-0.0003475298,8,1
0.001209271,-0.0003757291,8,1
0.001233256,-0.0003786463,8,1
0.001333251,-0.0003546606,8,1
0.001494668,-0.0003026377,8,1
0.001703409,-0.0002271153,8,1
0.001923332,-0.0001447861,8,1
0.002108249,-7.914964e-05,8,1
0.00221732,-4.462973e-05,8,1
0.002230447,-3.895745e-05,8,1
0.002153303,-4.868137e-05,8,1
0.002004851,-5.338126e-05,8,1
0.001805024,-3.409549e-05,8,1
0.001569056,1.711715e-05,8,1
0.001319637,9.182927e-05,8,1
0.001078484,0.0001641104,8,1
0.0008507816,0.0002119197,8,1
0.0006219451,0.0002303951,8,1
0.0003665301,0.0002279642,8,1
6.638502e-05,0.0002221298,8,1
-0.0002729798,0.0002357433,8,1
-0.000616072,0.00029198,8,1
-0.0009209168,0.0004038051,8,1
-0.001155587,0.0005634395,8,1
-0.001311332,0.0007353909,8,1
-0.001400468,0.0008684467,8,1
-0.001446333,0.0009160939,8,1
-0.001471453,0.0008606675,8,1
-0.001489766,0.000718212,8,1
-0.001503217,0.0005264886,8,1
-0.001500462,0.0003334687,8,1
-0.00146578,0.0001749688,8,1
-0.001398037,6.573675e-05,8,1
-0.001310522,-2.978945e-06,8,1
-0.001228679,-4.85193e-05,8,1
-0.001160287,-8.579432e-05,8,1
-0.001094651,-0.0001177212,8,1
-0.001017184,-0.000134576,8,1
-0.0009199444,-0.000119666,8,1
-0.0008095779,-6.683268e-05,8,1
-0.0007053699,1.484824e-05,8,1
-0.0006230408,0.0001081979,8,1
-0.0005744212,0.0001984683,8,1
-0.0005588629,0.0002832284,8,1
-0.0005677765,0.000363937,8,1
-0.0005928966,0.000440756,8,1
-0.0006222305,0.0005013684,8,1
-0.0006447575,0.0005214646,8,1
-0.0006543194,0.0004770586,8,1
-0.0006429748,0.0003568061,8,1
-0.0005995413,0.0001707551,8,1
-0.0005361738,-4.625038e-05,8,1
-0.0004943609,-0.0002470493,8,1
-0.0004959816,-0.0004006872,8,1
-0.0005129984,-0.0005031124,8,1
-0.0004992229,-0.0005698834,8,1
-0.0004251591,-0.0006134789,8,1
-0.000295993,-0.0006381128,8,1
-0.000137007,-0.0006447575,8,1
2.862379e-05,-0.0006361681,8,1
0.0001850168,-0.0006180168,8,1
0.0003088348,-0.0005987309,8,1
0.0003762539,-0.000583821,8,1
0.0003752816,-0.0005779866,8,1
0.0002835526,-0.0005810658,8,1
7.57848e-05,-0.0005941931,8,1
-0.0002276015,-0.0006147755,8,1
-0.0005518941,-0.0006353577,8,1
-0.0008042298,-0.0006445955,8,1
-0.0009154066,-0.0006369784,8,1
-0.0008635456,-0.0006100755,8,1
-0.0006727948,-0.0005726385,8,1
-0.0003872358,-0.0005353634,8,1
-5.775702e-05,-0.0005014918,8,1
0.0002676702,-0.0004685925,8,1
0.0005389676,-0.000430021,8,1
0.000720643,-0.0003822118,8,1
0.0008078342,-0.0003230579,8,1
0.0008214476,-0.000253856,8,1
0.0007832003,-0.0001827094,8,1
0.0007161052,-0.0001229073,8,1
0.0006423654,-8.725291e-05,8,1
0.0005757565,-8.465986e-05,8,1
0.0005219508,-0.000112373,8,1
0.0004788414,-0.0001530514,8,1
0.0004503179,-0.0001921092,8,1
0.0004365423,-0.0002206326,8,1
0.0004247115,-0.0002350565,8,1
0.0004000776,-0.0002379736,8,1
0.0003618301,-0.0002318152,8,1
0.0003140208,-0.0002201465,8,1
0.0002514636,-0.000209126,8,1
0.0001613553,-0.0002013469,8,1
3.672706e-05,-0.0002008607,8,1
-0.0001083214,-0.0002068571,8,1
-0.0002395943,-0.0002135018,8,1
-0.0003089583,-0.0002143121,8,1
-0.000283514,-0.0002049123,8,1
-0.0001684476,-0.0001840059,8,1
-3.789272e-06,-0.0001486757,8,1
0.0001702689,-0.0001039456,8,1
0.0003161277,-5.483985e-05,8,1
0.0004123946,-6.382317e-06,8,1
0.0004613383,4.02925e-05,8,1
0.0004749518,9.118101e-05,8,1
0.000468145,0.0001514693,8,1
0.000450642,0.0002229401,8,1
0.0004232529,0.0003067279,8,1
0.000386302,0.0004029947,8,1
0.0003532407,0.0005200059,8,1
0.0003339549,0.0006684579,8,1
0.0003237448,0.0008522401,8,1
0.0003075383,0.001048664,8,1
0.0002566497,0.001215753,8,1
0.0001448246,0.001314775,8,1
-2.46957e-05,0.001331468,8,1
-0.0002083157,0.001281066,8,1
-0.0003588744,0.001182206,8,1
-0.0004600031,0.001039102,8,1
-0.0005254775,0.0008478644,8,1
-0.0005731247,0.0006212969,8,1
-0.0006029447,0.0003926226,8,1
-0.0006060239,0.0002021958,8,1
-0.0005721523,7.367795e-05,8,1
-0.0004950092,6.90704e-06,8,1
-0.0003861013,-1.480971e-05,8,1
-0.0002632558,-1.3027e-05,8,1
-0.0001387897,-6.868513e-06,8,1
-1.740276e-05,-4.599598e-06,8,1
0.0001004187,-6.706447e-06,8,1
0.0002086784,-8.813297e-06,8,1
0.0003038107,-9.137427e-06,8,1
0.0003918123,-1.594417e-05,8,1
0.0004885653,-4.462973e-05,8,1
0.0005930975,-0.0001070249,8,1
0.0006968193,-0.0002100984,8,1
0.0007961654,-0.0003465574,8,1
0.0008887049,-0.0004930644,8,1
0.0009664963,-0.0006176926,8,1
0.00100053,-0.0006901358,8,1
0.0009334349,-0.0006988873,8,1
0.0007246946,-0.0006488092,8,1
0.0003885709,-0.0005570802,8,1
-8.489166e-06,-0.0004403932,8,1
-0.0003752429,-0.0003159271,8,1
-0.0006374646,-0.0001883817,8,1
-0.0007779752,-5.824322e-05,8,1
-0.0008167088,6.395404e-05,8,1
-0.0007727891,0.0001691344,8,1
-0.0006590193,0.0002585945,8,1
-0.0004890127,0.0003410858,8,1
-0.0002767073,0.0004180668,8,1
-4.884343e-05,0.0004815964,8,1
0.0001553589,0.0005188715,8,1
0.0002981384,0.0005235714,8,1
0.0003652335,0.0005034753,8,1
0.0003709058,0.0004833792,8,1
0.0003493511,0.0004992616,8,1
0.0003388169,0.0005717048,8,1
0.0003623164,0.0006904988,8,1
0.0004080188,0.0008209614,8,1
0.0004438352,0.0009306798,8,1
0.000443187,0.001007175,8,1
0.0003948915,0.001054336,8,1
0.0003059176,0.00107427,8,1
0.0001882582,0.001046395,8,1
4.709924e-05,0.0009382969,8,1
-0.000122259,0.0007310151,8,1
-0.0003322956,0.0004389733,8,1
-0.0005768522,0.0001091703,8,1
-0.0008194639,-0.0001998883,8,1
-0.001011673,-0.000434883,8,1
-0.001107616,-0.0005659938,8,1
-0.001079255,-0.0005917621,8,1
-0.000943768,-0.0005463839,8,1
-0.0007614446,-0.0004818819,8,1
-0.0006078067,-0.0004352071,8,1
-0.0005345531,-0.0004241867,8,1
-0.0005609698,-0.0004478482,8,1
-0.0006744154,-0.0004950092,8,1
-0.0008265948,-0.0005538389,8,1
-0.0009544643,-0.0006128307,8,1
-0.001008918,-0.0006616123,8,1
-0.0009633779,-0.0006843015,8,1
-0.0008199501,-0.0006729569,8,1
-0.0005961379,-0.0006303337,8,1
-0.0003214373,-0.0005672903,8,1
-2.696461e-05,-0.0004948471,8,1
0.0002676702,-0.0004212695,8,1
0.0005522569,-0.0003514194,8,1
0.0008136685,-0.000288538,8,1
0.001031485,-0.000231329,8,1
0.001190147,-0.0001737958,8,1
0.001285117,-0.0001118868,8,1
0.001316396,-5.727083e-05,8,1
0.001281066,-2.129233e-05,8,1
0.001185447,1.234753e-06,8,1
0.001041371,2.667901e-05,8,1
0.000861802,6.703327e-05,8,1
0.0006629477,0.0001235941,8,1
0.0004704139,0.000192796,8,1
0.0003138588,0.0002654013,8,1
0.0002099749,0.0003282826,8,1
0.0001561692,0.0003696093,8,1
0.0001310491,0.0003846814,8,1
0.0001125736,0.0003723644,8,1
9.442231e-05,0.0003324963,8,1
8.080883e-05,0.0002649151,8,1
7.367795e-05,0.0001678379,8,1
7.546067e-05,4.45062e-05,8,1
7.772959e-05,-9.730096e-05,8,1
6.654708e-05,-0.0002405667,8,1
3.267542e-05,-0.0003661673,8,1
-2.356124e-05,-0.0004658375,8,1
-9.778715e-05,-0.0005452494,8,1
-0.0001934057,-0.0006201236,8,1
-0.0003188442,-0.0007039114,8,1
-0.000467296,-0.0008006644,8,1
-0.0006019723,-0.0009132997,8,1
-0.0006726327,-0.001036793,8,1
-0.000643299,-0.001163366,8,1
-0.0005199672,-0.001279081,8,1
-0.00035304,-0.001359303,8,1
-0.0002323013,-0.001382803,8,1
-0.0002271153,-0.001341152,8,1
-0.000342992,-0.00124213,8,1
-0.0005149432,-0.001105347,8,1
-0.000663395,-0.0009612711,8,1
-0.0007311383,-0.0008374532,8,1
-0.0006878669,-0.0007492896,8,1
-0.000539253,-0.0006891634,8,1
-0.0003204649,-0.0006390853,8,1
-9.049421e-05,-0.0005846313,8,1
9.101894e-05,-0.0005227224,8,1
0.0001874478,-0.0004625961,8,1
0.0002010613,-0.0004152731,8,1
0.0001626518,-0.0003760533,8,1
0.0001117633,-0.0003269475,8,1
7.772959e-05,-0.0002468872,8,1
7.270556e-05,-0.0001225832,8,1
0.0001000946,3.591673e-05,8,1
0.0001504969,0.0001989545,8,1
0.0001989545,0.0003399513,8,1
0.0002047888,0.0004389733,8,1
0.0001244044,0.0004934272,8,1
-4.284701e-05,0.0005178991,8,1
-0.0002514251,0.0005410745,8,1
-0.0004347209,0.0005838597,8,1
-0.0005403875,0.0006371793,8,1
-0.0005429805,0.0006653786,8,1
-0.0004496309,0.0006426895,8,1
-0.0002874036,0.000579646,8,1
-8.757704e-05,0.0005237334,8,1
0.0001023635,0.0005211404,8,1
0.0002365536,0.000586939,8,1
0.0003002453,0.0007015193,8,1
0.0003263378,0.00082712,8,1
0.0003645853,0.000938621,8,1
0.0004498317,0.001029378,8,1
0.0005786736,0.001105062,8,1
0.0007130259,0.001175885,8,1
0.0008112376,0.001242656,8,1
0.0008564538,0.001294193,8,1
0.000844461,0.001314127,8,1
0.0007768797,0.001290789,8,1
0.0006550064,0.001218508,8,1
0.0004849998,0.001112679,8,1
0.000299435,0.001010254,8,1
0.0001628139,0.000950938,8,1
0.0001467694,0.0009551517,8,1
0.0002851732,0.0009891854,8,1
0.0005477191,0.0009799477,8,1
0.0008759017,0.0008677984,8,1
0.001202626,0.0006481997,8,1
0.001457717,0.0003676645,8,1
0.00157408,9.361199e-05,8,1
0.001518006,-0.0001164247,8,1
0.001299217,-0.0002253326,8,1
0.0009664963,-0.0002230636,8,1
0.0005875872,-0.0001267968,8,1
0.0002305572,3.543054e-05,8,1
-6.0188e-05,0.0002261814,8,1
-0.0002733039,0.0004015361,8,1
-0.000422566,0.000517575,8,1
-0.0005356876,0.0005413986,8,1
-0.00064103,0.0004662003,8,1
-0.0007455621,0.0003096451,8,1
-0.0008335636,0.0001080358,8,1
-0.0008838038,-9.551824e-05,8,1
-0.0008847762,-0.0002598524,8,1
-0.0008406945,-0.0003562813,8,1
-0.0007805682,-0.0003694086,8,1
-0.0007499378,-0.0003005308,8,1
-0.0007716547,-0.0001618029,8,1
-0.0008264327,2.035846e-05,8,1
-0.0008692179,0.0002132162,8,1
-0.0008622491,0.000383871,8,1
-0.0007920748,0.0005188715,8,1
-0.0006784671,0.000624214,8,1
-0.0005609698,0.000710919,8,1
-0.0004732924,0.0007806072,8,1
-0.0004309934,0.0008243649,8,1
-0.0004340726,0.0008178822,8,1
-0.0004762096,0.0007293945,8,1
-0.0005444391,0.0005490156,8,1
-0.0006233649,0.0003015418,8,1
-0.0007056941,3.948217e-05,8,1
-0.000782513,-0.000186761,8,1
-0.0008301602,-0.0003512573,8,1
-0.0008205983,-0.000454817,8,1
-0.0007254661,-0.0005133225,8,1
-0.0005238568,-0.0005426564,8,1
-0.0002227395,-0.0005536768,8,1
0.0001190562,-0.0005530285,8,1
0.0004072085,-0.0005486528,8,1
0.0005567948,-0.0005488148,8,1
0.0005303781,-0.0005593491,8,1
0.0003525924,-0.000578797,8,1
8.437427e-05,-0.0006009999,8,1
-0.0002010227,-0.0006267683,8,1
-0.0004384484,-0.0006572366,8,1
-0.0005881967,-0.0006904599,8,1
-0.0006437852,-0.0007214144,8,1
-0.00062612,-0.0007436173,8,1
-0.0005621043,-0.0007500999,8,1
-0.0004789647,-0.0007410243,8,1
-0.0003943667,-0.0007233592,8,1
-0.0003203028,-0.0007052079,8,1
-0.0002801106,-0.0006920806,8,1
-0.0003018274,-0.000683005,8,1
-0.0003997148,-0.0006716604,8,1
-0.0005596732,-0.0006501057,8,1
-0.0007385933,-0.0006181788,8,1
-0.000881697,-0.0005770142,8,1
-0.0009555988,-0.0005290429,8,1
-0.0009484679,-0.0004775062,8,1
-0.000844584,-0.0004237005,8,1
-0.0006347094,-0.0003747568,8,1
-0.0003564434,-0.0003340784,8,1
-8.336335e-05,-0.0003005308,8,1
0.0001235941,-0.0002754107,8,1
0.0002488706,-0.0002608248,8,1
0.0003224483,-0.000256287,8,1
0.0003969983,-0.0002566112,8,1
0.00051012,-0.0002543422,8,1
0.0006705648,-0.0002415391,8,1
0.0008635847,-0.0002183637,8,1
0.001061629,-0.0001911368,8,1
0.00123909,-0.0001679614,8,1
0.001385436,-0.0001528894,8,1
0.001497261,-0.0001434896,8,1
0.001578618,-0.0001340898,8,1
0.001629507,-0.0001209625,8,1
0.001655275,-9.66527e-05,8,1
0.001673913,-5.775702e-05,8,1
0.001699843,-3.303076e-06,8,1
0.001719615,6.622294e-05,8,1
0.001696764,0.0001420695,8,1
0.001586235,0.0002099749,8,1
0.001354319,0.0002553532,8,1
0.0009976128,0.0002728562,8,1
0.0005470709,0.0002694529,8,1
6.622294e-05,0.000257298,8,1
-0.0003559572,0.0002469258,8,1
-0.0006470265,0.0002412535,8,1
-0.0007735994,0.0002360674,8,1
-0.0007343796,0.0002295848,8,1
-0.0005580526,0.000217754,8,1
-0.0002977757,0.000202682,8,1
-8.813297e-06,0.0001900409,8,1
0.0002654013,0.0001840444,8,1
0.0005046097,0.0001812893,8,1
0.00071335,0.0001788584,8,1
0.0009052355,0.0001751309,8,1
0.001095825,0.0001707551,8,1
0.001285117,0.0001626518,8,1
0.001445886,0.0001461212,8,1
0.00153324,0.0001229458,8,1
0.001499206,9.993253e-05,8,1
0.001317855,8.291568e-05,8,1
0.001017871,7.708133e-05,8,1
0.0006707268,8.032264e-05,8,1
0.0003532407,8.583286e-05,8,1
0.0001038221,8.534666e-05,8,1
-7.60704e-05,7.400208e-05,8,1
-0.0002036158,4.920609e-05,8,1
-0.000303286,4.313994e-06,8,1
-0.0003955011,-6.229485e-05,8,1
-0.0004927403,-0.0001467309,8,1
-0.0005975965,-0.000251263,8,1
-0.0007027769,-0.000370543,8,1
-0.0008009885,-0.0004901472,8,1
-0.0008859106,-0.0005961379,8,1
-0.0009559229,-0.0006834911,8,1
-0.001014266,-0.0007547998,8,1
-0.001065155,-0.0008163847,8,1
-0.001114099,-0.0008653284,8,1
-0.001165797,-0.0008902864,8,1
-0.001219927,-0.0008820211,8,1
-0.001276002,-0.0008416669,8,1
-0.001331752,-0.000777651,8,1
-0.001376969,-0.0006998597,8,1
-0.001393337,-0.0006123445,8,1
-0.0013653,-0.0005104054,8,1
-0.00129075,-0.0003942046,8,1
-0.001179573,-0.0002684419,8,1
-0.001044573,-0.0001431655,8,1
-0.0008906106,-2.712668e-05,8,1
-0.000710556,7.659513e-05,8,1
-0.0005035987,0.000177886,8,1
-0.0002857829,0.0002914938,8,1
-7.769106e-05,0.0004251977,8,1
0.0001018773,0.0005726772,8,1
0.0002397949,0.0007175637,8,1
0.0003281205,0.0008517539,8,1
0.0003642611,0.0009878889,8,1
0.0003517821,0.001149955,8,1
0.0003025142,0.001354319,8,1
0.0002331503,0.001580887,8,1
0.0001594105,0.001775852,8,1
9.863601e-05,0.001885895,8,1
5.585077e-05,0.001885571,8,1
2.732727e-05,0.00178898,8,1
-7.100305e-07,0.001642958,8,1
-4.754691e-05,0.001511847,8,1
-0.0001199901,0.00145091,8,1
-0.0002044261,0.001463713,8,1
-0.0002681178,0.001501961,8,1
-0.000281083,0.001496937,8,1
-0.0002357047,0.001399374,8,1
-0.0001527273,0.001203922,8,1
-6.342931e-05,0.0009493173,8,1
5.286387e-06,0.0006887161,8,1
4.418206e-05,0.0004610142,8,1
6.330578e-05,0.0002806354,8,1
7.805372e-05,0.0001412592,8,1
0.0001070634,2.829966e-05,8,1
0.0001709172,-7.007399e-05,8,1
0.0002835526,-0.0001650443,8,1
0.0004268184,-0.0002596904,8,1
0.000547233,-0.0003512573,8,1
0.0005741358,-0.0004369898,8,1
0.0004825689,-0.000511864,8,1
0.0003012177,-0.0005745832,8,1
8.858796e-05,-0.0006214201,8,1
-0.0001029732,-0.0006543194,8,1
-0.0002399184,-0.000678143,8,1
-0.0003084721,-0.0006937013,8,1
-0.0003159271,-0.0007003459,8,1
-0.0002823795,-0.0006984011,8,1
-0.0002319772,-0.0006873807,8,1
-0.0001794681,-0.0006723086,8,1
-0.0001266348,-0.0006582089,8,1
-7.785312e-05,-0.0006476747,8,1
-6.245691e-05,-0.0006382749,8,1
-0.0001115627,-0.0006251476,8,1
-0.0002298704,-0.0006071584,8,1
-0.000385291,-0.000586414,8,1
-0.0005305015,-0.0005658317,8,1
-0.0006384369,-0.0005486528,8,1
-0.0007053699,-0.0005358497,8,1
-0.0007484793,-0.0005249913,8,1
-0.0007902921,-0.0005202913,8,1
-0.0008497701,-0.0005230465,8,1
-0.0009235098,-0.0005322842,8,1
-0.0009797465,-0.0005421702,8,1
-0.0009742362,-0.0005496252,8,1
-0.0008909347,-0.0005510838,8,1
-0.0007603101,-0.0005470322,8,1
-0.0006504298,-0.0005364979,8,1
-0.0006040792,-0.0005212637,8,1
-0.0006058619,-0.0005037607,8,1
-0.0006068342,-0.0004864197,8,1
-0.0005507597,-0.0004708614,8,1
-0.0004008493,-0.0004554653,8,1
-0.0001504584,-0.000437314,8,1
0.0001714034,-0.0004121938,8,1
0.0005217887,-0.0003786463,8,1
0.0008660157,-0.0003363473,8,1
0.001193226,-0.0002927517,8,1
0.001511523,-0.000251263,8,1
0.001833223,-0.0002159328,8,1
0.002154762,-0.0001911368,8,1
0.002440809,-0.0001731475,8,1
0.00264566,-0.0001572651,8,1
0.002740793,-0.0001376552,8,1
0.002732204,-0.0001062146,8,1
0.002647929,-6.48879e-05,8,1
0.002526056,-1.691656e-05,8,1
0.002400778,3.316162e-05,8,1
0.002278256,8.064677e-05,8,1
0.002136611,0.0001205148,8,1
0.001953962,0.0001448246,8,1
0.001723019,0.0001550348,8,1
0.001441348,0.0001521176,8,1
0.001106683,0.0001399627,8,1
0.000723236,0.0001221355,8,1
0.0003052694,0.000101067,8,1
-0.000122259,7.967438e-05,8,1
-0.0005326084,6.476436e-05,8,1
-0.0009011448,6.379197e-05,8,1
-0.001198373,7.691926e-05,8,1
-0.001392689,9.377406e-05,8,1
-0.001459136,0.0001031738,8,1
-0.001391554,9.620504e-05,8,1
-0.001192862,7.173317e-05,8,1
-0.0008834797,3.883391e-05,8,1
-0.0005113778,9.66215e-06,8,1
-0.0001506204,-3.951337e-06,8,1
0.0001195424,9.500085e-06,8,1
0.0002550291,6.281957e-05,8,1
0.0002566497,0.0001634622,8,1
0.0001639484,0.000299597,8,1
3.056858e-05,0.0004415663,8,1
-0.0001000561,0.0005577672,8,1
-0.0001997262,0.000629238,8,1
-0.0002545043,0.0006567892,8,1
-0.0002431597,0.0006553305,8,1
-0.0001428413,0.0006441481,8,1
4.920609e-05,0.0006251864,8,1
0.0003002453,0.0005762426,8,1
0.000544964,0.0004746277,8,1
0.0007071915,0.0003250413,8,1
0.0007324737,0.0001584381,8,1
0.0005911527,1.744129e-05,8,1
0.0002757735,-7.396356e-05,8,1
-0.0001818991,-0.0001185315,8,1
-0.0006959701,-0.000134576,8,1
-0.001167418,-0.0001360346,8,1
-0.001520072,-0.0001336036,8,1
-0.001718116,-0.00012469,8,1
-0.001758146,-9.794922e-05,8,1
-0.001664635,-4.592625e-05,8,1
-0.001484904,1.938607e-05,8,1
-0.001274057,8.064677e-05,8,1
-0.001069369,0.0001229458,8,1
-0.0008844521,0.0001436902,8,1
-0.0007347037,0.0001488763,8,1
-0.0006279027,0.0001472556,8,1
-0.0005428185,0.0001391524,8,1
-0.0004402311,0.0001237561,8,1
-0.0003011791,0.0001096565,8,1
-0.0001501342,0.0001175977,8,1
-2.291298e-05,0.0001671896,8,1
5.325772e-05,0.0002605393,8,1
6.46023e-05,0.0003790091,8,1
1.22552e-05,0.0004986133,8,1
-7.590833e-05,0.0006052523,8,1
-0.0001585616,0.0006930918,8,1
-0.0002052365,0.0007619697,8,1
-0.000206533,0.000797462,8,1
-0.0001726613,0.0007757452,8,1
-0.0001162626,0.0006796404,8,1
-5.208474e-05,0.0005169268,8,1
-3.789272e-06,0.0003135347,8,1
1.079661e-05,0.0001072255,8,1
-1.788895e-05,-7.104638e-05,8,1
-8.482193e-05,-0.0002131776,8,1
-0.0001712027,-0.0003305129,8,1
-0.0002554767,-0.0004441207,8,1
-0.0003201407,-0.0005643732,8,1
-0.0003609812,-0.0006899738,8,1
-0.000387722,-0.0008055263,8,1
-0.0004087905,-0.0008881796,8,1
-0.0004295348,-0.0009201065,8,1
-0.0004512515,-0.0008995241,8,1
-0.0004718339,-0.0008400462,8,1
-0.0004919299,-0.0007611204,8,1
-0.0005113778,-0.0006700397,8,1
-0.0005288809,-0.0005705316,8,1
-0.0005386047,-0.000479613,8,1
-0.0005262878,-0.0004254832,8,1
-0.0004830164,-0.0004245108,8,1
-0.0004084663,-0.0004766958,8,1
-0.000320789,-0.00056648,8,1
-0.0002449425,-0.0006617744,8,1
-0.0001969711,-0.0007288694,8,1
-0.0001786577,-0.000747831,8,1
-0.0001872472,-0.0007121767,8,1
-0.0002122053,-0.000628551,8,1
-0.0002480217,-0.000512026,8,1
-0.0003172236,-0.0003820497,8,1
-0.0004412035,-0.0002600145,8,1
-0.0006029447,-0.0001585616,8,1
-0.0007426449,-7.65566e-05,8,1
-0.0008014747,-6.382317e-06,8,1
-0.000750262,6.346784e-05,8,1
-0.0005982448,0.0001448246,8,1
-0.0003731361,0.0002509774,8,1
-0.0001079973,0.0003875985,8,1
0.000173024,0.0005475571,8,1
0.0004533971,0.0007211292,8,1
0.000708326,0.0009016701,8,1
0.0009086389,0.001079942,8,1
0.001053201,0.00124687,8,1
0.001171833,0.001396456,8,1
0.001290465,0.001521895,8,1
0.001405208,0.001605035,8,1
0.00149402,0.001613462,8,1
0.001551391,0.001510064,8,1
0.001595797,0.001287872,8,1
0.001652196,0.0009833511,8,1
0.001729987,0.0006608408,8,1
0.001818313,0.0003798194,8,1
0.001892864,0.0001728619,8,1
0.00193889,4.645098e-05,8,1
0.001950721,-1.237873e-05,8,1
0.001919767,-2.647842e-05,8,1
0.001838085,-1.821308e-05,8,1
0.001700492,-8.002969e-06,8,1
0.001508768,-4.275467e-06,8,1
0.001271504,-7.030578e-06,8,1
0.001000368,-6.220252e-06,8,1
0.0007102708,4.244267e-07,8,1
0.0004148255,5.772582e-06,8,1
0.0001158149,-2.006553e-06,8,1
-0.0001851404,-3.668853e-05,8,1
-0.0004708614,-0.0001028112,8,1
-0.0007259523,-0.0001945401,8,1
-0.0009505748,-0.0002938862,8,1
-0.001156074,-0.000382698,8,1
-0.001343097,-0.0004553032,8,1
-0.00150581,-0.0005162397,8,1
-0.00163919,-0.000571504,8,1
-0.001734161,-0.0006209339,8,1
-0.001783753,-0.0006567503,8,1
-0.001783591,-0.0006640433,8,1
-0.001730919,-0.0006329267,8,1
-0.001624604,-0.0005645352,8,1
-0.001456705,-0.0004715097,8,1
-0.001225113,-0.0003742705,8,1
-0.0009411749,-0.0002916173,8,1
-0.0006322784,-0.0002350565,8,1
-0.0003309991,-0.0002052365,8,1
-6.310517e-05,-0.0001900023,8,1
0.0001620036,-0.0001650443,8,1
0.0003457857,-0.0001120489,8,1
0.000497803,-2.696461e-05,8,1
0.0006302104,7.497447e-05,8,1
0.0007400909,0.0001586002,8,1
0.0008162616,0.0001842065,8,1
0.0008441369,0.0001406109,8,1
0.0008164236,4.272347e-05,8,1
0.0007397667,-7.380149e-05,8,1
0.0006219451,-0.0001754164,8,1
0.0004694416,-0.0002405667,8,1
0.0002869559,-0.0002626076,8,1
8.437427e-05,-0.0002465631,8,1
-0.0001162626,-0.0002028055,8,1
-0.000290969,-0.0001421931,8,1
-0.000420135,-7.720486e-05,8,1
-0.0004885266,-2.939559e-05,8,1
-0.0004841508,-2.453363e-05,8,1
-0.0004081422,-7.33153e-05,8,1
-0.0002750866,-0.0001665028,8,1
-0.0001169109,-0.0002746004,8,1
2.781346e-05,-0.0003673017,8,1
0.0001237561,-0.0004191627,8,1
0.0001537382,-0.0004167317,8,1
0.0001158149,-0.000362926,8,1
1.987227e-05,-0.0002749245,8,1
-0.0001235555,-0.0001734716,8,1
-0.00030831,-7.218083e-05,8,1
-0.0005162397,1.808955e-05,8,1
-0.0007039114,8.648112e-05,8,1
-0.0008274051,0.0001281319,8,1
-0.0008607905,0.0001479039,8,1
-0.0008003402,0.0001634622,8,1
-0.0006640433,0.0001905271,8,1
-0.0004760476,0.0002368777,8,1
-0.0002527216,0.0003036487,8,1
-8.720959e-07,0.0003845193,8,1
0.0002705873,0.0004691174,8,1
0.0005519328,0.0005485295,8,1
0.0008259855,0.0006251864,8,1
0.001068111,0.0007026537,8,1
0.001259187,0.0007767176,8,1
0.001391594,0.0008350612,8,1
0.001468738,0.0008718501,8,1
0.001500016,0.0008942151,8,1
0.00149872,0.0009123664,8,1
0.001466631,0.0009227386,8,1
0.001389974,0.0009060458,8,1
0.001253352,0.000837006,8,1
0.001048339,0.0006981159,8,1
0.0007830382,0.0004973168,8,1
0.0004809482,0.0002645909,8,1
0.0001699448,4.110282e-05,8,1
-0.0001256624,-0.0001407345,8,1
-0.0003862634,-0.0002666592,8,1
-0.0005943552,-0.000340561,8,1
-0.0007455621,-0.0003745947,8,1
-0.0008612768,-0.0003861013,8,1
-0.0009726156,-0.0003898288,8,1
-0.001095299,-0.0003942046,8,1
-0.001217982,-0.0004061974,8,1
-0.00131587,-0.000424997,8,1
-0.001368541,-0.000447362,8,1
-0.00137081,-0.000467134,8,1
-0.001342773,-0.0004762096,8,1
-0.001322677,-0.0004687546,8,1
-0.001339532,-0.0004467137,8,1
-0.001394472,-0.0004180282,8,1
-0.001452005,-0.0003933943,8,1
-0.00146416,-0.0003801049,8,1
-0.001398685,-0.0003776739,8,1
-0.001253637,-0.0003807532,8,1
-0.001049272,-0.0003814014,8,1
-0.0008191398,-0.0003734602,8,1
-0.0005904656,-0.0003579019,8,1
-0.0003768636,-0.0003416954,8,1
-0.0001883817,-0.0003318095,8,1
-3.68506e-05,-0.0003305129,8,1
8.372601e-05,-0.0003335922,8,1
0.0002091646,-0.000335537,8,1
0.0003794953,-0.0003309991,8,1
0.0006110868,-0.0003199787,8,1
0.0008929186,-0.0003074997,8,1
0.001185771,-0.0002968033,8,1
0.001450748,-0.0002867553,8,1
0.001677316,-0.0002739521,8,1
0.001876495,-0.0002528836,8,1
0.002061088,-0.0002194982,8,1
0.002235147,-0.0001815749,8,1
0.00238603,-0.0001571031,8,1
0.002474032,-0.000159372,8,1
0.002444374,-0.0001862748,8,1
0.002262374,-0.0002230636,8,1
0.001935649,-0.0002493182,8,1
0.001506499,-0.0002558008,8,1
0.001037481,-0.000253694,8,1
0.0005840218,-0.0002535319,8,1
0.0001838824,-0.0002533699,8,1
-0.000152079,-0.0002496423,8,1
-0.0004298589,-0.0002391081,8,1
-0.0006504298,-0.0002235498,8,1
-0.0008113607,-0.0002052365,8,1
-0.0009226995,-0.0001906506,8,1
-0.001007136,-0.0001804405,8,1
-0.001092058,-0.0001746061,8,1
-0.001198535,-0.0001671511,8,1
-0.001341962,-0.0001535376,8,1
-0.0015097,-0.0001284175,8,1
-0.001668686,-9.308726e-05,8,1
-0.001777108,-5.257093e-05,8,1
-0.001802876,-1.173047e-05,8,1
-0.001740319,3.13789e-05,8,1
-0.001611801,9.004655e-05,8,1
-0.001456705,0.0001738343,8,1
-0.001307118,0.0002741528,8,1
-0.001174711,0.0003728506,8,1
-0.001047976,0.0004610142,8,1
-0.0008962828,0.0005457744,8,1
-0.0006940254,0.0006443101,8,1
-0.0004403932,0.0007720177,8,1
-0.0001677994,0.0009457519,8,1
8.518459e-05,0.001176371,8,1
0.0003072141,0.001438755,8,1
0.0005195198,0.001673751,8,1
0.0007383081,0.001823824,8,1
0.0009464002,0.001864502,8,1
0.001111707,0.001811831,8,1
0.001203922,0.001689309,8,1
0.001209108,0.001502933,8,1
0.001142013,0.001258538,8,1
0.001035374,0.0009742755,8,1
0.0009251696,0.0006819093,8,1
0.0008464058,0.0004169324,8,1
0.0008248511,0.0002067336,8,1
0.0008773603,5.260946e-05,8,1
0.001007013,-6.002594e-05,8,1
0.001191281,-0.0001478653,8,1
0.001379439,-0.0002219292,8,1
0.001506823,-0.0002891863,8,1
0.001518816,-0.000353202,8,1
0.00140537,-0.0004147869,8,1
0.001206839,-0.0004737787,8,1
0.0009987473,-0.0005249913,8,1
0.0008436506,-0.0005672903,8,1
0.0007488423,-0.0005950035,8,1
0.0006650545,-0.0006050515,8,1
0.0005123889,-0.0005941931,8,1
0.0002344468,-0.0005645352,8,1
-0.0001697442,-0.0005262878,8,1
-0.0006418404,-0.0004901472,8,1
-0.001096433,-0.0004658375,8,1
-0.00146027,-0.0004600031,8,1
-0.001692024,-0.0004661616,8,1
-0.001783915,-0.0004737787,8,1
-0.001757174,-0.0004726442,8,1
-0.001651831,-0.0004600031,8,1
-0.001505162,-0.0004405553,8,1
-0.001331914,-0.0004251591,8,1
-0.001125281,-0.0004194868,8,1
-0.0008865589,-0.000420135,8,1
-0.0006418404,-0.0004198109,8,1
-0.0004376381,-0.0004164075,8,1
-0.0003198166,-0.0004089525,8,1
-0.0003018274,-0.0003961493,8,1
-0.0003611433,-0.0003809152,8,1
-0.0004593548,-0.0003627639,8,1
-0.0005609698,-0.0003426678,8,1
-0.000640868,-0.0003220855,8,1
-0.0006941874,-0.0002976137,8,1
-0.0007137973,-0.0002632558,8,1
-0.000688191,-0.0002170672,8,1
-0.0006079687,-0.000169258,8,1
-0.0004766958,-0.0001442999,8,1
-0.0003235441,-0.0001656925,8,1
-0.000186761,-0.0002318152,8,1
-8.709085e-05,-0.0003186821,8,1
-1.173047e-05,-0.0003937184,8,1
7.189524e-05,-0.0004361795,8,1
0.0001919856,-0.0004444448,8,1
0.0003499994,-0.0004254832,8,1
0.0005198439,-0.0003833462,8,1
0.0006639201,-0.0003160891,8,1
0.0007517595,-0.0002251705,8,1
0.00076278,-0.0001165867,8,1
0.0006974676,-2.654814e-06,8,1
0.0005789978,0.0001020394,8,1
0.0004501558,0.0001913374,8,1
0.0003610198,0.0002579462,8,1
0.0003431926,0.0003002453,8,1
0.0003914881,0.000321638,8,1
0.000467983,0.0003342791,8,1
0.0005285954,0.0003519442,8,1
0.0005441537,0.0003840331,8,1
0.0005063924,0.0004339493,8,1
0.0004271425,0.0005033132,8,1
0.000316938,0.0005880735,8,1
0.0001746447,0.0006747784,8,1
-8.651231e-06,0.0007467355,8,1
-0.0002241981,0.000795031,8,1
-0.0004452552,0.0008251752,8,1
-0.0006423265,0.0008520781,8,1
-0.0007893197,0.0008840049,8,1
-0.0008679214,0.0009144733,8,1
-0.000884128,0.0009175525,8,1
-0.0008546321,0.0008614778,8,1
-0.000797261,0.0007285841,8,1
-0.0007217386,0.0005305402,8,1
-0.0006355198,0.0003015418,8,1
-0.0005446012,8.518459e-05,8,1
-0.0004578962,-8.40116e-05,8,1
-0.0003739464,-0.0001922712,8,1
-0.0003006929,-0.0002451045,8,1
-0.0002588801,-0.0002580697,8,1
-0.0002640662,-0.0002498044,8,1
-0.0003097686,-0.0002350565,8,1
-0.0003710293,-0.0002250084,8,1
-0.0004133283,-0.0002287359,8,1
-0.0004167317,-0.0002439701,8,1
-0.0003841565,-0.000261149,8,1
-0.0003246786,-0.0002723315,8,1
-0.000246239,-0.0002694143,8,1
-0.0001373311,-0.0002507768,8,1
1.64689e-05,-0.0002245222,8,1
0.0002067336,-0.0002032917,8,1
0.0004076947,-0.0001964849,8,1
0.0005939078,-0.0002005366,8,1
0.0007533802,-0.000204102,8,1
0.0008906497,-0.0002037779,8,1
0.00102014,-0.0001984297,8,1
0.001149306,-0.0001865989,8,1
0.001279931,-0.0001611547,8,1
0.00141558,-0.0001169109,8,1
0.001553174,-5.581224e-05,8,1
0.001664189,1.582063e-05,8,1
0.001707622,9.555677e-05,8,1
0.001653655,0.0001803169,8,1
0.001488348,0.0002525981,8,1
0.001207488,0.0002887387,8,1
0.0008498091,0.0002764217,8,1
0.0005013684,0.0002174299,8,1
0.0002645909,0.0001227837,8,1
0.0002130541,1.079661e-05,8,1
0.0003589129,-0.0001029732,8,1
0.0006561409,-0.0002086398,8,1
0.001011713,-0.0003066893,8,1
0.001322554,-0.0004039285,8,1
0.001516385,-0.0005042469,8,1
0.001568246,-0.0006108859,8,1
0.001498071,-0.0007220627,8,1
0.001338275,-0.0008361567,8,1
0.0011143,-0.0009479817,8,1
0.0008504574,-0.001046841,8,1
0.0005814288,-0.001111668,8,1
0.0003405996,-0.001119123,8,1
0.0001466074,-0.0010577,8,1
1.002961e-07,-0.0009246443,8,1
-0.0001105903,-0.0007337314,8,1
-0.0002028055,-0.000507002,8,1
-0.0002924276,-0.000278652,8,1
-0.0003906392,-8.060823e-05,8,1
-0.0005073262,5.957827e-05,8,1
-0.0006387612,0.0001341283,8,1
-0.0007742477,0.0001574657,8,1
-0.0009019551,0.0001718896,8,1
-0.001023342,0.0002255332,8,1
-0.001144567,0.0003464339,8,1
-0.001264657,0.0005209784,8,1
-0.001367083,0.0007081639,8,1
-0.001439039,0.0008660157,8,1
-0.001478421,0.0009690893,8,1
-0.001496573,0.001007337,8,1
-0.001501111,0.0009814063,8,1
-0.001486525,0.0009026425,8,1
-0.001437419,0.0007937344,8,1
-0.001348931,0.0006851507,8,1
-0.001230786,0.0006012007,8,1
-0.001103564,0.0005546879,8,1
-0.0009846084,0.0005477191,8,1
-0.0008825073,0.0005717048,8,1
-0.0007919128,0.0006063868,8,1
-0.0007042355,0.0006258347,8,1
-0.000613641,0.0006088178,8,1
-0.0005139708,0.0005491778,8,1
-0.0004016596,0.0004593935,8,1
-0.000276059,0.0003608578,8,1
-0.0001473791,0.0002762596,8,1
-3.539201e-05,0.000220023,8,1
4.077869e-05,0.0001919856,8,1
7.789165e-05,0.0001832341,8,1
8.648112e-05,0.0001786963,8,1
8.583286e-05,0.0001586002,8,1
9.426025e-05,9.944634e-05,8,1
0.0001195424,-8.489166e-06,8,1
0.0001542244,-0.00015451,8,1
0.0001863134,-0.0003172236,8,1
0.0002023578,-0.0004728062,8,1
0.0001947408,-0.0006027826,8,1
0.0001610312,-0.0006964564,8,1
0.0001054428,-0.0007488034,8,1
3.850978e-05,-0.0007562584,8,1
-2.501983e-05,-0.0007254661,8,1
-7.250496e-05,-0.0006651777,8,1
-9.794922e-05,-0.0005925725,8,1
-0.0001042698,-0.0005232086,8,1
-0.0001062146,-0.0004659995,8,1
-0.0001146419,-0.0004180282,8,1
-0.0001303623,-0.0003718396,8,1
-0.000152079,-0.0003241924,8,1
-0.0001919471,-0.0002741142,8,1
-0.000261311,-0.000224036,8,1
-0.000350609,-0.000174282,8,1
-0.0004277521,-0.0001258245,8,1
-0.000462272,-7.120844e-05,8,1
-0.0004425001,2.623614e-07,8,1
-0.0003794566,9.458438e-05,8,1
-0.0002938862,0.0002081922,8,1
-0.0002092881,0.0003284447,8,1
-0.0001423551,0.0004451317,8,1
-9.989401e-05,0.0005619809,8,1
-8.109443e-05,0.0006772094,8,1
-7.736692e-05,0.0007744487,8,1
-7.493595e-05,0.0008264717,8,1
-6.164659e-05,0.0008101031,8,1
-3.085418e-05,0.0007172396,8,1
1.630683e-05,0.0005569569,8,1
6.541262e-05,0.0003556717,8,1
9.474644e-05,0.0001488763,8,1
9.555677e-05,-3.328516e-05,8,1
6.962632e-05,-0.0001652063,8,1
2.635488e-05,-0.0002428356,8,1
-1.918548e-05,-0.0002707109,8,1
-5.565017e-05,-0.0002606628,8,1
-8.206682e-05,-0.0002276015,8,1
-0.0001120489,-0.0001840059,8,1
-0.0001580754,-0.0001386276,8,1
-0.0002222533,-9.859748e-05,8,1
-0.0002961551,-6.602235e-05,8,1
-0.0003684362,-4.203669e-05,8,1
-0.0004243487,-2.550602e-05,8,1
-0.000442338,-1.335113e-05,8,1
-0.0003969597,-1.196227e-06,8,1
-0.0002642282,1.144487e-05,8,1
-3.506788e-05,2.230325e-05,8,1
0.000277232,3.397195e-05,8,1
0.0006332897,5.212327e-05,8,1
0.0009886993,8.016057e-05,8,1
0.001303755,0.0001171115,8,1
0.001536157,0.0001569795,8,1
0.001652358,0.0001900409,8,1
0.001646362,0.0002115956,8,1
0.001550581,0.0002196988,8,1
0.001414121,0.0002143507,8,1
0.001275231,0.00019782,8,1
0.001144282,0.0001728619,8,1
0.001012199,0.0001436902,8,1
0.0008783326,0.0001198666,8,1
0.0007613214,0.0001073875,8,1
0.0006815852,0.000103498,8,1
0.0006511169,0.0001005808,8,1
0.0006830437,9.669123e-05,8,1
0.0007828761,9.280167e-05,8,1
0.0009327867,9.118101e-05,8,1
0.001092097,9.16672e-05,8,1
0.001214133,9.004655e-05,8,1
0.001274745,8.097089e-05,8,1
0.001283497,5.876794e-05,8,1
0.001264211,1.663096e-05,8,1
0.001236822,-4.333321e-05,8,1
0.001205867,-0.0001096179,8,1
0.001156275,-0.000161965,8,1
0.001072811,-0.0001895161,8,1
0.0009642274,-0.0001914609,8,1
0.0008596951,-0.0001720131,8,1
0.0007935724,-0.0001365208,8,1
0.0007890346,-0.0001007043,8,1
0.0008481885,-8.563225e-05,8,1
0.0009402417,-0.0001015147,8,1
0.00100442,-0.0001452723,8,1
0.0009870786,-0.0002052365,8,1
0.0008629364,-0.0002703867,8,1
0.0006331276,-0.0003329439,8,1
0.0003120761,-0.0003891806,8,1
-6.974985e-05,-0.0004342347,8,1
-0.0004569239,-0.0004642168,8,1
-0.0007854302,-0.0004788027,8,1
-0.001013942,-0.0004763717,8,1
-0.001132898,-0.0004575721,8,1
-0.00116677,-0.000424997,8,1
-0.001170173,-0.0003867496,8,1
-0.001197886,-0.0003483401,8,1
-0.001273733,-0.0003126857,8,1
-0.00139042,-0.0002828657,8,1
-0.001530769,-0.0002598524,8,1
-0.001670955,-0.0002439701,8,1
-0.001792666,-0.0002329496,8,1
-0.001874833,-0.0002248464,8,1
-0.001906274,-0.0002149604,8,1
-0.001889581,-0.0001976194,8,1
-0.0018361,-0.000171851,8,1
-0.001755067,-0.0001426792,8,1
-0.0016541,-0.0001152902,8,1
-0.001537089,-8.806324e-05,8,1
-0.001403547,-5.808115e-05,8,1
-0.001248289,-2.177852e-05,8,1
-0.001078444,1.711715e-05,8,1
-0.0009121653,5.552663e-05,8,1
-0.000777651,8.858796e-05,8,1
-0.0006951598,0.000118408,8,1
-0.0006716604,0.0001517934,8,1
-0.0006964564,0.0001923098,8,1
-0.0007457242,0.0002336365,8,1
-0.0007964507,0.000264753,8,1
-0.0008355084,0.0002679943,8,1
-0.0008510666,0.0002430362,8,1
-0.0008361567,0.0002010613,8,1
-0.0007907783,0.0001595726,8,1
-0.0007160662,0.0001281319,8,1
-0.0006204477,0.0001007429,8,1
-0.000512026,6.670914e-05,8,1
-0.0004014975,2.230325e-05,8,1
-0.000303448,-2.323711e-05,8,1
-0.0002298704,-6.39155e-05,8,1
-0.000186761,-9.146661e-05,8,1
-0.0001712027,-0.0001013526,8,1
-0.0001726613,-9.438378e-05,8,1
-0.0001760647,-6.877746e-05,8,1
-0.0001737958,-3.036798e-05,8,1
-0.0001715269,1.193106e-05,8,1
-0.0001737958,5.017848e-05,8,1
-0.0001755785,8.016057e-05,8,1
-0.0001624512,0.0001033359,8,1
-0.0001255003,0.0001266733,8,1
-6.602235e-05,0.0001576278,8,1
-2.978945e-06,0.0002043026,8,1
3.235129e-05,0.0002662116,8,1
1.987227e-05,0.0003370341,8,1
-4.544006e-05,0.0004033189,8,1
-0.0001562927,0.0004574487,8,1
-0.0002767073,0.0004969927,8,1
-0.0003528779,0.0005217887,8,1
-0.0003418575,0.0005328091,8,1
-0.0002384598,0.0005295678,8,1
-6.359137e-05,0.0005130371,8,1
0.0001509831,0.0004819206,8,1
0.0003736609,0.0004279528,8,1
0.0005806184,0.0003449753,8,1
0.0007598628,0.0002378501,8,1
0.0009126905,0.0001240803,8,1
0.001060008,2.716521e-05,8,1
0.001223046,-3.571614e-05,8,1
0.001407153,-6.148453e-05,8,1
0.00158737,-6.035007e-05,8,1
0.001715564,-4.544006e-05,8,1
0.001746842,-3.085418e-05,8,1
0.001671644,-2.09682e-05,8,1
0.001512819,-1.740276e-05,8,1
0.001303917,-1.043395e-05,8,1
0.001075404,1.144487e-05,8,1
0.0008598572,5.325772e-05,8,1
0.0006793162,9.847395e-05,8,1
0.0005334574,0.0001240803,8,1
0.0004076947,0.0001153287,8,1
0.0002963557,7.805372e-05,8,1
0.0002133783,2.927205e-05,8,1
0.0001940925,-7.840905e-06,8,1
0.000267184,-1.67545e-05,8,1
0.0004311941,5.124321e-06,8,1
0.0006452826,4.920609e-05,8,1
0.0008635847,9.150514e-05,8,1
0.001061791,9.68533e-05,8,1
0.001216239,4.288554e-05,8,1
0.00129711,-7.671866e-05,8,1
0.0012822,-0.0002446183,8,1
0.001155951,-0.0004186764,8,1
0.0009107458,-0.0005570802,8,1
0.00055485,-0.0006324406,8,1
0.0001399627,-0.0006421645,8,1
-0.0002489941,-0.0006050515,8,1
-0.0005283947,-0.000546708,8,1
-0.0006554538,-0.0004862577,8,1
-0.0006366542,-0.0004170558,8,1
-0.0005123502,-0.0003253268,8,1
-0.0003308371,-0.0002094502,8,1
-0.0001360346,-7.866345e-05,8,1
3.478228e-05,4.953022e-05,8,1
0.0001613553,0.0001589243,8,1
0.0002422259,0.0002480603,8,1
0.0002876042,0.0003237448,8,1
0.0003140208,0.0003926226,8,1
0.0003273102,0.0004486972,8,1
0.0003263378,0.0004728449,8,1
0.0003151553,0.0004496696,8,1
0.0002991108,0.0003777126,8,1
0.0002749631,0.0002652392,8,1
0.0002232643,0.0001372076,8,1
0.0001224596,2.76514e-05,8,1
-2.583016e-05,-3.863332e-05,8,1
-0.0002026434,-4.949169e-05,8,1
-0.0003804291,-2.81688e-06,8,1
-0.0005321222,9.863601e-05,8,1
-0.0006475127,0.0002454672,8,1
-0.0007246558,0.0004065602,8,1
-0.0007671168,0.0005368608,8,1
-0.000787537,0.0006012007,8,1
-0.0008071469,0.0006026593,8,1
-0.0008434496,0.0005631154,8,1
-0.0008979035,0.0005080132,8,1
-0.0009559229,0.000450804,8,1
-0.000995953,0.0003940812,8,1
-0.001009891,0.0003339549,8,1
-0.001014428,0.0002619979,8,1
-0.001024801,0.0001707551,8,1
-0.001032094,6.265751e-05,8,1
-0.001006649,-4.495386e-05,8,1
-0.0009282097,-0.0001327933,8,1
-0.0007961266,-0.0001890299,8,1
-0.0006254718,-0.0002135018,8,1
-0.0004340726,-0.0002128535,8,1
-0.0002355427,-0.0001982676,8,1
-4.041603e-05,-0.0001830335,8,1
0.0001354248,-0.0001762268,8,1
0.0002780424,-0.0001807646,8,1
0.0003927847,-0.0001945401,8,1
0.0004968306,-0.000216581,8,1
0.000599256,-0.0002439701,8,1
0.0007028158,-0.0002737901,8,1
0.000804755,-0.0003002067,8,1
0.0008925945,-0.0003225718,8,1
0.0009468864,-0.0003426678,8,1
0.0009549896,-0.0003671397,8,1
0.0009143112,-0.000397608,8,1
0.0008303613,-0.0004279142,8,1
0.0007075156,-0.0004471999,8,1
0.0005538776,-0.000447362,8,1
0.0003760919,-0.0004337485,8,1
0.0001846927,-0.0004211074,8,1
-1.562004e-05,-0.0004224039,8,1
-0.000231329,-0.0004384484,8,1
-0.0004674581,-0.0004582204,8,1
-0.0007146077,-0.0004666478,8,1
-0.00094863,-0.0004551412,8,1
-0.001152832,-0.0004251591,8,1
-0.001322191,-0.0003835083,8,1
-0.001451356,-0.0003415334,8,1
-0.001529634,-0.0003062031,8,1
-0.001540168,-0.0002796244,8,1
-0.001471777,-0.000261311,8,1
-0.001328673,-0.0002501286,8,1
-0.001132412,-0.0002446183,8,1
-0.0009199444,-0.0002394322,8,1
-0.0007236833,-0.0002227395,8,1
-0.0005630766,-0.0001857886,8,1
-0.000432452,-0.0001237176,8,1
-0.0003144685,-3.247483e-05,8,1
-0.0001977815,8.648112e-05,8,1
-8.303922e-05,0.0002161334,8,1
2.116879e-05,0.0003261758,8,1
0.0001030118,0.0003934329,8,1
0.0001522796,0.0004029947,8,1
0.0001692965,0.0003555096,8,1
0.0001715654,0.000254867,8,1
0.000187934,0.000121001,8,1
0.0002427121,-1.545797e-05,8,1
0.0003464339,-0.000137007,8,1
0.0004849998,-0.0002394322,8,1
0.0006360448,-0.0003238683,8,1
0.0007804451,-0.0003869116,8,1
0.000901508,-0.0004222419,8,1
0.0009767064,-0.0004334244,8,1
0.0009778409,-0.0004379622,8,1
0.000888867,-0.0004546549,8,1
0.0007229118,-0.0004953333,8,1
0.0005187094,-0.0005562698,8,1
0.0003323342,-0.0006165582,8,1
0.0002185644,-0.0006441093,8,1
0.0002073819,-0.0006099135,8,1
0.0002833905,-0.0005029504,8,1
0.0004004017,-0.0003353749,8,1
0.0005078511,-0.0001360346,8,1
0.0005665187,6.525056e-05,8,1
0.000564736,0.0002363916,8,1
0.0005185474,0.000356644,8,1
0.0004572867,0.0004266563,8,1
0.0004031568,0.0004674968,8,1
0.000373985,0.00051012,8,1
0.0003652335,0.0005747841,8,1
0.0003563199,0.0006678096,8,1
0.0003221241,0.0007806072,8,1
0.0002589186,0.0009002115,8,1
0.0001809652,0.00101463,8,1
0.0001093323,0.001115759,8,1
6.152305e-05,0.001191281,8,1
4.483033e-05,0.001226936,8,1
5.19612e-05,0.001212512,8,1
6.849186e-05,0.001149792,8,1
8.097089e-05,0.001050932,8,1
8.405014e-05,0.0009420244,8,1
8.178122e-05,0.0008566159,8,1
8.437427e-05,0.0008149651,8,1
9.863601e-05,0.0008151271,8,1
0.0001295905,0.0008324682,8,1
0.0001761032,0.0008233925,8,1
0.0002352571,0.0007415494,8,1
0.0002811216,0.0005577672,8,1
0.0002704253,0.0002736666,8,1
0.0001811273,-6.926366e-05,8,1
3.299956e-05,-0.000410087,8,1
-0.0001310105,-0.0006982391,8,1
-0.0002827037,-0.0009102205,8,1
-0.0004167317,-0.001051217,8,1
-0.0005280706,-0.00113857,8,1
-0.0006045654,-0.001188162,8,1
-0.0006387612,-0.001202748,8,1
-0.0006317923,-0.001172766,8,1
-0.0005937069,-0.001089627,8,1
-0.0005287188,-0.000963702,8,1
-0.0004507654,-0.0008160605,8,1
-0.0003901529,-0.0006656639,8,1
-0.0003700569,-0.0005261258,8,1
-0.0003805911,-0.000402794,8,1
-0.0003856151,-0.0002977757,8,1
-0.0003523917,-0.0002102605,8,1
-0.0002822175,-0.0001353863,8,1
-0.000209126,-6.553616e-05,8,1
-0.0001676373,1.072688e-06,8,1
-0.000156941,6.492643e-05,8,1
-0.0001397621,0.0001242423,8,1
-8.287715e-05,0.0001757791,8,1
1.257933e-05,0.0002206712,8,1
0.0001198666,0.0002678322,8,1
0.0002049509,0.0003247172,8,1
0.0002477361,0.0003905157,8,1
0.0002513016,0.0004600418,8,1
0.0002417397,0.0005311884,8,1
0.0002615117,0.0005999042,8,1
0.0003519442,0.000658896,8,1
0.0005381573,0.0006893643,8,1
0.0008190167,0.0006700786,8,1
0.001157734,0.0005898562,8,1
0.001497909,0.0004608521,8,1
0.001783955,0.0003073762,8,1
0.001982648,0.0001592484,8,1
0.00208475,3.575467e-05,8,1
0.002101928,-5.127441e-05,8,1
0.002046988,-9.649064e-05,8,1
0.00191847,-0.0001058904,8,1
0.00170584,-9.276313e-05,8,1
0.001414608,-7.33153e-05,8,1
0.001077025,-6.002594e-05,8,1
0.0007313393,-4.916756e-05,8,1
0.0004083429,-2.939559e-05,8,1
0.0001263492,2.04508e-06,8,1
-0.0001044318,3.786152e-05,8,1
-0.0002828657,6.865393e-05,8,1
-0.0004248349,8.956036e-05,8,1
-0.000549301,0.0001017153,8,1
-0.0006727948,0.0001057669,8,1
-0.0007987196,9.896015e-05,8,1
-0.0009207547,7.967438e-05,8,1
-0.001030149,4.239934e-05,8,1
-0.001119285,-1.318906e-05,8,1
-0.001188,-8.02841e-05,8,1
-0.001240347,-0.0001538618,8,1
-0.001278433,-0.0002261429,8,1
-0.001302419,-0.0002828657,8,1
-0.001307442,-0.0003060411,8,1
-0.001295126,-0.0002825416,8,1
-0.001275354,-0.0002068571,8,1
-0.001261254,-9.616651e-05,8,1
-0.001256554,1.338965e-05,8,1
-0.001252664,9.134307e-05,8,1
-0.001236296,0.0001266733,8,1
-0.001195942,0.0001297526,8,1
-0.001125929,0.0001172735,8,1
-0.001031607,0.0001054428,8,1
-0.0009270753,0.0001099806,8,1
-0.0008204363,0.0001427178,8,1
-0.0007068285,0.0002078681,8,1
-0.0005834968,0.0003060797,8,1
-0.0004595169,0.0004203358,8,1
-0.0003608192,0.0005208163,8,1
-0.0003076617,0.0005717048,8,1
-0.0002992343,0.0005642498,8,1
-0.0003201407,0.0005104441,8,1
-0.000353202,0.0004279528,8,1
-0.000390315,0.0003294171,8,1
-0.0004264556,0.0002231022,8,1
-0.0004520619,0.000121001,8,1
-0.0004554653,3.235129e-05,8,1
-0.000437476,-3.393342e-05,8,1
-0.000405063,-6.991193e-05,8,1
-0.0003606571,-6.407757e-05,8,1
-0.0003029619,-1.464765e-05,8,1
-0.0002300324,6.055066e-05,8,1
-0.0001421931,0.0001321835,8,1
-4.592625e-05,0.0001806411,8,1
4.580272e-05,0.0002081922,8,1
0.0001158149,0.0002284504,8,1
0.00015309,0.0002496809,8,1
0.0001524417,0.0002618358,8,1
9.701536e-05,0.0002396328,8,1
-4.641245e-05,0.0001594105,8,1
-0.0002831898,1.501031e-05,8,1
-0.0005721523,-0.0001737958,8,1
-0.0008304843,-0.0003720016,8,1
-0.0009588401,-0.0005407116,8,1
-0.0008846141,-0.0006528608,8,1
-0.0005928966,-0.0006966184,8,1
-0.000147055,-0.0006770085,8,1
0.000336548,-0.0006123445,8,1
0.0007524078,-0.0005285567,8,1
0.001044288,-0.0004468758,8,1
0.001211215,-0.0003820497,8,1
0.001294841,-0.0003438023,8,1
0.001344595,-0.0003347266,8,1
0.001387219,-0.0003476919,8,1
0.00143438,-0.0003692465,8,1
0.001478137,-0.0003839945,8,1
0.001489482,-0.0003786463,8,1
0.001441997,-0.0003549848,8,1
0.001323041,-0.0003217614,8,1
0.001147199,-0.0002887001,8,1
0.0009504518,-0.0002639041,8,1
0.0007755831,-0.0002494803,8,1
0.0006546823,-0.0002392702,8,1
0.0005935837,-0.0002220912,8,1
0.0005668429,-0.0001971332,8,1
0.0005396159,-0.0001666649,8,1
0.0004971547,-0.0001316588,8,1
0.0004459421,-9.616651e-05,8,1
0.0004016982,-6.537409e-05,8,1
0.0003848434,-4.641245e-05,8,1
0.0004088291,-3.879538e-05,8,1
0.0004773828,-3.604027e-05,8,1
0.0005809425,-3.166451e-05,8,1
0.0006896885,-2.372331e-05,8,1
0.0007574318,-1.108221e-05,8,1
0.000745439,3.665733e-06,8,1
0.0006431757,1.241726e-05,8,1
0.0004624728,5.448452e-06,8,1
0.0002303951,-2.015787e-05,8,1
-2.226472e-05,-6.002594e-05,8,1
-0.0002606628,-0.0001045939,8,1
-0.0004593548,-0.0001460826,8,1
-0.000608617,-0.0001797922,8,1
-0.0007134732,-0.000199078,8,1
-0.0007938576,-0.0002005366,8,1
-0.0008713248,-0.0001818991,8,1
-0.0009507368,-0.0001485136,8,1
-0.001013618,-0.0001016767,8,1
-0.001030797,-4.576419e-05,8,1
-0.0009883359,1.614476e-05,8,1
-0.0008886658,7.821578e-05,8,1
-0.0007419967,0.0001268354,8,1
-0.0005734488,0.0001509831,8,1
-0.0004186764,0.0001475797,8,1
-0.000303448,0.0001239182,8,1
-0.0002348944,9.409818e-05,8,1
-0.0002117191,7.092284e-05,8,1
-0.0002248464,6.103686e-05,8,1
-0.0002551526,6.395404e-05,8,1
-0.0002729798,7.432621e-05,8,1
-0.0002564491,8.79397e-05,8,1
-0.0002037779,9.928428e-05,8,1
-0.0001279313,0.0001086841,8,1
-3.976777e-05,0.0001185701,8,1
5.19612e-05,0.0001310491,8,1
0.000135911,0.00013818,8,1
0.0001786963,0.0001291043,8,1
0.0001470936,9.977047e-05,8,1
4.077869e-05,6.119892e-05,8,1
-9.859748e-05,2.651694e-05,8,1
-0.0002183637,4.638125e-06,8,1
-0.0002893484,-4.761664e-06,8,1
-0.0003060411,-3.14101e-06,8,1
-0.0002715212,2.04508e-06,8,1
-0.0001909747,5.772582e-06,8,1
-8.579432e-05,9.66215e-06,8,1
9.106227e-07,2.278944e-05,8,1
2.586868e-05,5.034055e-05,8,1
-3.101625e-05,8.988449e-05,8,1
-0.0001465688,0.0001352628,8,1
-0.0002731418,0.0001761032,8,1
-0.000360333,0.000200251,8,1
-0.0003786463,0.0002007372,8,1
-0.0003123616,0.0001833962,8,1
-0.0001682856,0.0001603829,8,1
1.160693e-05,0.0001402868,8,1
0.0001770756,0.0001342904,8,1
0.000304297,0.0001454729,8,1
0.0003994293,0.0001736723,8,1
0.0004744656,0.000215161,8,1
0.0005368608,0.0002670219,8,1
0.000596987,0.0003255275,8,1
0.0006723474,0.000383871,8,1
0.0007760693,0.0004337872,8,1
0.0008968081,0.0004707381,8,1
0.0009997197,0.0004945617,8,1
0.00104607,0.0005114165,8,1
0.001013819,0.0005195198,8,1
0.0009078286,0.0005057442,8,1
0.0007541905,0.0004548557,8,1
0.0005849942,0.0003636129,8,1
0.0004294114,0.0002446569,8,1
0.0003034866,0.0001205148,8,1
0.0002094887,1.063454e-05,8,1
0.00013818,-7.169464e-05,8,1
7.367795e-05,-0.0001185315,8,1
1.209313e-05,-0.0001282554,8,1
-4.187462e-05,-0.0001105903,8,1
-8.854943e-05,-7.979791e-05,8,1
-0.0001279313,-5.159854e-05,8,1
-0.0001541859,-3.749886e-05,8,1
-0.0001481895,-4.171256e-05,8,1
-9.843541e-05,-6.148453e-05,8,1
-1.270286e-05,-8.644259e-05,8,1
8.04847e-05,-0.0001044318,8,1
0.0001529279,-0.0001065387,8,1
0.0001840444,-9.081835e-05,8,1
0.0001663793,-6.39155e-05,8,1
0.0001054428,-3.522994e-05,8,1
1.54965e-05,-1.464765e-05,8,1
-9.049421e-05,-9.299493e-06,8,1
-0.0002029675,-3.150244e-05,8,1
-0.0003117133,-9.762509e-05,8,1
-0.000410087,-0.0002084778,8,1
-0.0005034366,-0.0003428299,8,1
-0.0006066722,-0.0004708614,8,1
-0.0007246558,-0.0005698834,8,1
-0.0008465288,-0.0006227166,8,1
-0.0009612711,-0.0006225546,8,1
-0.001057538,-0.0005747453,8,1
-0.00112366,-0.000489661,8,1
-0.001158505,-0.0003844807,8,1
-0.001173577,-0.0002763831,8,1
-0.001182652,-0.0001770371,8,1
-0.001194969,-8.336335e-05,8,1
-0.001195293,1.306552e-05,8,1
-0.001154777,0.0001078737,8,1
-0.001050893,0.0001856651,8,1
-0.0008987138,0.0002323399,8,1
-0.0007444277,0.0002412535,8,1
-0.0006241752,0.0002153231,8,1
-0.0005410357,0.0001676758,8,1
-0.0004828543,0.0001062531,8,1
-0.0004347209,3.640293e-05,8,1
-0.0003814014,-3.441962e-05,8,1
-0.0003011791,-9.697683e-05,8,1
-0.0001804405,-0.0001408965,8,1
-2.712668e-05,-0.0001609926,8,1
0.0001401247,-0.0001587237,8,1
0.0003065659,-0.0001423551,8,1
0.0004653899,-0.0001146419,8,1
0.0006110868,-6.44017e-05,8,1
0.0007323117,1.59827e-05,8,1
0.0008250132,0.0001163011,8,1
0.0008877325,0.0002188885,8,1
0.0009293833,0.0003077003,8,1
0.0009622826,0.0003676645,8,1
0.0009958302,0.0003874365,8,1
0.001027757,0.0003634508,8,1
0.001046557,0.0003030004,8,1
0.001041371,0.0002180782,8,1
0.001012685,0.0001239182,8,1
0.0009619584,3.688912e-05,8,1
0.0008908117,-3.036798e-05,8,1
0.000795031,-7.688073e-05,8,1
0.0006678096,-0.0001050801,8,1
0.0005013684,-0.0001199901,8,1
0.0003018659,-0.0001209625,8,1
8.956036e-05,-0.000114804,8,1
-0.0001128592,-0.0001302002,8,1
-0.0002924276,-0.0001948643,8,1
-0.0004429862,-0.0003087962,8,1
-0.000554001,-0.0004436345,8,1
-0.0006082929,-0.0005599973,8,1
-0.0005953276,-0.0006287131,8,1
-0.0005152673,-0.0006405439,8,1
-0.0003848048,-0.0006005137,8,1
-0.0002442942,-0.0005198052,8,1
-0.0001384655,-0.0004160834,8,1
-8.514606e-05,-0.0003040963,8,1
-7.380149e-05,-0.0001937298,8,1
-7.995997e-05,-8.935975e-05,8,1
-8.433573e-05,8.203562e-06,8,1
-8.482193e-05,0.0001049566,8,1
-9.146661e-05,0.0002054371,8,1
-0.0001065387,0.0003096451,8,1
-0.0001314967,0.0004039671,8,1
-0.0001605064,0.0004671726,8,1
-0.0001846542,0.0004848378,8,1
-0.0001934057,0.0004610142,8,1
-0.0001710407,0.00041596,8,1
-0.000104756,0.0003841952,8,1
9.824215e-06,0.0003872744,8,1
0.0001608691,0.000425846,8,1
0.000321638,0.0004796517,8,1
0.0004781931,0.0005284334,8,1
0.0006415551,0.0005741358,8,1
0.000837168,0.0006255105,8,1
0.001082535,0.0006857989,8,1
0.001372633,0.0007457631,8,1
0.001689147,0.0007877381,8,1
0.002009389,0.0007901691,8,1
0.002303052,0.000737984,8,1
0.0025327,0.0006332897,8,1
0.002657491,0.000495372,8,1
0.00263464,0.0003485408,8,1
0.002434974,0.0002143507,8,1
0.002068705,0.0001012291,8,1
0.001584452,4.313994e-06,8,1
0.001056767,-8.093236e-05,8,1
0.0005590637,-0.0001579134,8,1
0.0001385041,-0.0002258187,8,1
-0.0001869231,-0.0002791382,8,1
-0.0004194868,-0.0003053928,8,1
-0.000574097,-0.0002948586,8,1
-0.0006690673,-0.0002436459,8,1
-0.0007142835,-0.0001632615,8,1
-0.0007103939,-6.877746e-05,8,1
-0.0006655019,2.716521e-05,8,1
-0.0006008379,0.0001158149,8,1
-0.0005554595,0.0001887444,8,1
-0.0005619422,0.0002342847,8,1
-0.0006313061,0.0002456293,8,1
-0.0007565826,0.0002232643,8,1
-0.0009199444,0.0001757791,8,1
-0.001103078,0.0001132219,8,1
-0.001287671,4.45062e-05,8,1
-0.001453301,-3.069211e-05,8,1
-0.001580361,-0.0001242038,8,1
-0.00164778,-0.0002431597,8,1
-0.001643404,-0.0003807532,8,1
-0.001569016,-0.0005178604,8,1
-0.00143985,-0.0006283889,8,1
-0.00127195,-0.0006964564,8,1
-0.001091085,-0.0007283832,8,1
-0.0009317751,-0.0007471828,8,1
-0.0008160605,-0.0007765166,8,1
-0.0007445897,-0.0008301602,8,1
-0.0007001839,-0.0009069791,8,1
-0.0006659881,-0.0009872015,8,1
-0.0006303337,-0.001043762,8,1
-0.0005924104,-0.00105689,8,1
-0.0005551354,-0.001013294,8,1
-0.0005219121,-0.0009147583,8,1
-0.0004967919,-0.0007744097,8,1
-0.0004826922,-0.0006129927,8,1
-0.0004794509,-0.0004480103,8,1
-0.0004833405,-0.0002922655,8,1
-0.0004880404,-0.000151917,8,1
-0.0004825302,-3.069211e-05,8,1
-0.0004575721,7.448828e-05,8,1
-0.0004139766,0.0001697827,8,1
-0.0003596847,0.0002642668,8,1
-0.0003044204,0.0003631267,8,1
-0.0002605007,0.0004658761,8,1
-0.0002355427,0.0005686256,8,1
-0.0002306807,0.0006601926,8,1
-0.0002415391,0.000725829,8,1
-0.0002648765,0.0007545147,8,1
-0.0002937241,0.0007421977,8,1
-0.0003147926,0.0006892023,8,1
-0.0003154408,0.000589532,8,1
-0.0002908069,0.000443187,8,1
-0.0002455907,0.0002676702,8,1
-0.0001959987,9.63671e-05,8,1
-0.0001611547,-4.090223e-05,8,1
-0.00015451,-0.0001279313,8,1
-0.000179306,-0.000164396,8,1
-0.0002251705,-0.0001645581,8,1
-0.0002652006,-0.0001464067,8,1
-0.0002749245,-0.0001290658,8,1
-0.000238784,-0.0001238797,8,1
-0.0001574272,-0.0001329553,8,1
-4.462973e-05,-0.0001491618,8,1
7.67572e-05,-0.0001536997,8,1
0.0001846927,-0.0001334415,8,1
0.0002610255,-8.773911e-05,8,1
0.0002950592,-2.664048e-05,8,1
0.0002858215,3.478228e-05,8,1
0.0002441707,8.761557e-05,8,1
0.0001833962,0.0001300767,8,1
0.0001151667,0.0001639484,8,1
5.439218e-05,0.000187772,8,1
1.079661e-05,0.0002051129,8,1
-2.291298e-05,0.0002203471,8,1
-5.759496e-05,0.0002401191,8,1
-8.725291e-05,0.0002665357,8,1
-8.692878e-05,0.0002989488,8,1
-2.712668e-05,0.0003389789,8,1
0.0001070634,0.0003801436,8,1
0.00030689,0.0004140152,8,1
0.0005530673,0.0004255218,8,1
0.0008190167,0.0004046154,8,1
0.001061143,0.0003546993,8,1
0.001233256,0.0002864697,8,1
0.001318179,0.0002146748,8,1
0.001342488,0.0001508211,8,1
0.001352374,0.0001009049,8,1
0.001383815,5.763349e-05,8,1
0.001441673,1.54965e-05,8,1
0.001502123,-2.372331e-05,8,1
0.001533078,-5.257093e-05,8,1
0.001510551,-6.407757e-05,8,1
0.001432273,-5.824322e-05,8,1
0.001319313,-3.717473e-05,8,1
0.001204733,-2.978945e-06,8,1
0.001112193,3.98063e-05,8,1
0.001030026,7.967438e-05,8,1
0.0009300316,0.0001043083,8,1
0.0007981102,0.0001119254,8,1
0.0006391241,0.0001096565,8,1
0.0004637693,0.0001022015,8,1
0.0002829043,9.474644e-05,8,1
0.0001119254,8.712937e-05,8,1
-3.247483e-05,7.610894e-05,8,1
-0.0001340898,5.974033e-05,8,1
-0.000181737,3.737532e-05,8,1
-0.000179306,1.290346e-05,8,1
-0.0001517549,-1.010982e-05,8,1
-0.0001394379,-2.874733e-05,8,1
-0.0001676373,-4.155049e-05,8,1
-0.0002357047,-4.868137e-05,8,1
-0.0003264613,-5.078821e-05,8,1
-0.0004279142,-4.738484e-05,8,1
-0.0005337428,-4.203669e-05,8,1
-0.0006394094,-3.798505e-05,8,1
-0.0007450759,-3.701266e-05,8,1
-0.0008586837,-3.928157e-05,8,1
-0.0009943324,-4.236082e-05,8,1
-0.001150239,-4.414354e-05,8,1
-0.001299825,-4.641245e-05,8,1
-0.001405492,-5.046408e-05,8,1
-0.001436771,-5.59743e-05,8,1
-0.001381992,-6.0188e-05,8,1
-0.001253151,-6.132246e-05,8,1
-0.001076013,-5.710876e-05,8,1
-0.0008753765,-4.916756e-05,8,1
-0.0006703638,-3.63644e-05,8,1
-0.0004716718,-1.740276e-05,8,1
-0.0002922655,-5.479652e-07,8,1
-0.0001399241,2.855407e-06,8,1
-1.805102e-05,-9.461558e-06,8,1
7.67572e-05,-2.631635e-05,8,1
0.0001535762,-3.63644e-05,8,1
0.0002234263,-3.506788e-05,8,1
0.000292142,-2.599222e-05,8,1
0.0003488649,-1.108221e-05,8,1
0.0003814401,1.095867e-05,8,1
0.0003882468,3.429608e-05,8,1
0.0003856538,5.050261e-05,8,1
0.0003880847,5.131294e-05,8,1
0.0004038051,3.591673e-05,8,1
0.0004354078,8.203562e-06,8,1
0.0004835413,-2.177852e-05,8,1
0.0005517708,-4.511593e-05,8,1
0.0006483617,-5.727083e-05,8,1
0.000775421,-6.213279e-05,8,1
0.0009198214,-6.472583e-05,8,1
0.001058063,-6.845333e-05,8,1
0.001172482,-7.104638e-05,8,1
0.001258052,-7.363943e-05,8,1
0.0013104,-7.866345e-05,8,1
0.001321744,-8.158062e-05,8,1
0.001287224,-8.060823e-05,8,1
0.001209757,-7.60704e-05,8,1
0.001102956,-7.039812e-05,8,1
0.0009812443,-6.634648e-05,8,1
0.0008514298,-6.699475e-05,8,1
0.0007042743,-7.380149e-05,8,1
0.0005248679,-8.514606e-05,8,1
0.0003115899,-9.324933e-05,8,1
8.453633e-05,-9.308726e-05,8,1
-0.0001316588,-8.40116e-05,8,1
-0.0003214373,-6.699475e-05,8,1
-0.0004810716,-4.203669e-05,8,1
-0.0006125065,-1.221667e-05,8,1
-0.0007162283,1.679302e-05,8,1
-0.0007909404,4.110282e-05,8,1
-0.0008410186,6.055066e-05,8,1
-0.0008778074,7.67572e-05,8,1
-0.000909248,9.020862e-05,8,1
-0.0009372854,0.0001012291,8,1
-0.0009628917,0.0001098185,8,1
-0.0009863912,0.000113546,8,1
-0.001010053,0.0001078737,8,1
-0.001042466,9.507057e-05,8,1
-0.00108833,7.756752e-05,8,1
-0.001144567,5.585077e-05,8,1
-0.001205179,3.624086e-05,8,1
-0.001241806,2.586868e-05,8,1
-0.001217334,2.651694e-05,8,1
-0.001100809,3.202716e-05,8,1
-0.0008839659,3.656499e-05,8,1
-0.0006032689,3.429608e-05,8,1
-0.0003290543,1.987227e-05,8,1
-0.0001363587,-4.275467e-06,8,1
-6.180866e-05,-3.069211e-05,8,1
-9.778715e-05,-5.013995e-05,8,1
-0.0002075054,-5.808115e-05,8,1
-0.0003476919,-5.743289e-05,8,1
-0.0005026262,-5.565017e-05,8,1
-0.0006862463,-5.69467e-05,8,1
-0.000906655,-6.06742e-05,8,1
-0.001139705,-6.456377e-05,8,1
-0.001331752,-6.991193e-05,8,1
-0.001419592,-8.303922e-05,8,1
-0.001364003,-0.0001052422,8,1
-0.00115737,-0.0001280934,8,1
-0.0008150881,-0.0001472171,8,1
-0.0003771877,-0.0001658546,8,1
9.766362e-05,-0.0001849783,8,1
0.0005499881,-0.0002058847,8,1
0.0009327867,-0.0002295462,8,1
0.001216887,-0.0002551526,8,1
0.001387381,-0.0002744383,8,1
0.00144621,-0.0002778417,8,1
0.00141169,-0.0002624455,8,1
0.001311696,-0.0002335979,8,1
0.001176209,-0.0002011848,8,1
0.001037319,-0.0001695821,8,1
0.0009203076,-0.0001396,8,1
0.0008381404,-0.0001078352,8,1
0.0007911414,-7.55842e-05,8,1
0.0007650489,-4.689865e-05,8,1
0.0007327979,-2.615429e-05,8,1
0.000678668,-1.416145e-05,8,1
0.0006060627,-7.192643e-06,8,1
0.0005332953,-1.358292e-06,8,1
0.0004801379,7.23117e-06,8,1
0.0004480489,1.987227e-05,8,1
0.0004211461,3.591673e-05,8,1
0.000381278,5.179914e-05,8,1
0.0003264999,6.379197e-05,8,1
0.000274801,7.027458e-05,8,1
0.0002410915,7.513654e-05,8,1
0.000234933,8.696731e-05,8,1
0.0002600531,0.0001069013,8,1
0.0003151553,0.0001302388,8,1
0.0003741471,0.0001501728,8,1
0.0003987811,0.0001670276,8,1
0.0003644232,0.0001822617,8,1
0.0002819319,0.0001966855,8,1
0.0001767515,0.0002104611,8,1
6.719535e-05,0.0002213195,8,1
-3.782299e-05,0.00022764,8,1
-0.0001276072,0.0002290986,8,1
-0.0001890299,0.0002261814,8,1
-0.0002178775,0.0002224539,8,1
-0.0002170672,0.000215161,8,1
-0.0001969711,0.0002023578,8,1
-0.0001673132,0.0001806411,8,1
-0.0001323071,0.0001540623,8,1
-8.239095e-05,0.0001299146,8,1
-7.678839e-06,0.0001122495,8,1
9.393612e-05,0.0001004187,8,1
0.0002119197,8.567078e-05,8,1
0.000326824,5.633696e-05,8,1
0.0004277907,1.338965e-05,8,1
0.0005059062,-2.501983e-05,8,1
0.0005475571,-4.009191e-05,8,1
0.0005386435,-2.258885e-05,8,1
0.0004644175,2.603075e-05,8,1
0.0003156415,9.442231e-05,8,1
0.0001116012,0.0001637863,8,1
-0.0001109144,0.000220023,8,1
-0.0003248407,0.0002581083,8,1
-0.0005235327,0.0002723701,8,1
-0.000707963,0.000259891,8,1
-0.0008786177,0.000217754,8,1
-0.001037442,0.0001514693,8,1
-0.001184597,7.157111e-05,8,1
-0.001312629,-5.247859e-06,8,1
-0.001409382,-6.407757e-05,8,1
-0.001462053,-9.875954e-05,8,1
-0.00147907,-0.0001169109,8,1
-0.001486687,-0.0001269589,8,1
-0.001513103,-0.0001353863,8,1
-0.001567395,-0.0001410586,8,1
-0.001641621,-0.0001350622,8,1
-0.001706123,-0.0001065387,8,1
-0.001710499,-4.884343e-05,8,1
-0.001612612,3.251336e-05,8,1
-0.001404358,0.0001261871,8,1
-0.00111264,0.0002119197,8,1
-0.0007855922,0.0002778803,8,1
-0.0004689167,0.0003229345,8,1
-0.0001862748,0.0003597233,8,1
5.730935e-05,0.0003987811,8,1
0.0002655633,0.0004465904,8,1
0.0004475628,0.0004908342,8,1
0.000614166,0.0005086614,8,1
0.0007772038,0.0004731691,8,1
0.0009355418,0.0003710679,8,1
0.001079456,0.0002140265,8,1
0.001197278,3.60788e-05,8,1
0.001280579,-0.0001235555,8,1
0.001322554,-0.0002311669,8,1
0.001320285,-0.0002812451,8,1
0.001282038,-0.0003000446,8,1
0.001228394,-0.0003350507,8,1
0.001175885,-0.0004280762,8,1
0.001127265,-0.0005849554,8,1
0.001075566,-0.0007697099,8,1
0.001016575,-0.0009348544,8,1
0.0009574206,-0.001046355,8,1
0.0009130147,-0.001089141,8,1
0.0008961599,-0.001067262,8,1
0.0009123664,-0.001006001,8,1
0.0009491552,-0.0009348544,8,1
0.0009758961,-0.0008740799,8,1
0.0009616343,-0.0008309705,8,1
0.0008968081,-0.000797261,8,1
0.0007945448,-0.0007583653,8,1
0.0006822334,-0.0006954839,8,1
0.0005801322,-0.0005928966,8,1
0.0004900239,-0.0004410415,8,1
0.0004049396,-0.0002358668,8,1
0.0003073762,1.711715e-05,8,1
0.0001880961,0.0002963557,8,1
5.52025e-05,0.0005657084,8,1
-8.206682e-05,0.0008005413,8,1
-0.0002162569,0.0009932371,8,1
-0.0003475298,0.001150441,8,1
-0.0004747511,0.001268749,8,1
-0.0005896553,0.001336492,8,1
-0.000678305,0.001348161,8,1
-0.0007313004,0.001318503,8,1
-0.0007543136,0.001276366,8,1
-0.0007612825,0.00123909,8,1
-0.0007653341,0.001202464,8,1
-0.0007734374,0.001146551,8,1
-0.0007855922,0.001046557,8,1
-0.0007995299,0.0008934048,8,1
-0.0008194639,0.0007018434,8,1
-0.0008462047,0.0005041235,8,1
-0.0008671111,0.0003394651,8,1
-0.0008643559,0.0002372019,8,1
-0.0008249741,0.0002041406,8,1
-0.0007431312,0.0002234263,8,1
-0.0006201236,0.0002621599,8,1
-0.0004695649,0.0002843629,8,1
-0.0003094444,0.0002688046,8,1
-0.0001553203,0.0002153231,8,1
-1.335113e-05,0.0001385041,8,1
0.0001148425,5.423012e-05,8,1
0.0002461155,-2.518189e-05,8,1
0.0004041292,-9.584238e-05,8,1
0.0005981215,-0.0001579134,8,1
0.0008081583,-0.000204102,8,1
0.0009950198,-0.0002301945,8,1
0.001121917,-0.0002392702,8,1
0.001173292,-0.0002446183,8,1
0.00115271,-0.0002626076,8,1
0.001074108,-0.0003037722,8,1
0.0009562862,-0.0003651949,8,1
0.0008162616,-0.0004408794,8,1
0.0006671614,-0.0005219121,8,1
0.0005130371,-0.0006065101,8,1
0.000351458,-0.0006943495,8,1
0.0001793446,-0.0007839716,8,1
-7.100305e-07,-0.0008695421,8,1
-0.0001788198,-0.0009337199,8,1
-0.0003391024,-0.0009620814,8,1
-0.0004731304,-0.00094393,8,1
-0.0005830107,-0.0008804005,8,1
-0.0006719845,-0.0007855922,8,1
-0.000740214,-0.0006849497,8,1
-0.0007813785,-0.0006047274,8,1
-0.00079483,-0.000556756,8,1
-0.0007838095,-0.0005356876,8,1
-0.0007619307,-0.0005311498,8,1
-0.0007371347,-0.0005290429,8,1
-0.0007056941,-0.0005178604,8,1
-0.000658371,-0.0004909576,8,1
-0.0005969483,-0.0004515757,8,1
-0.0005329325,-0.0004091146,8,1
-0.0004799371,-0.0003788084,8,1
-0.0004442827,-0.0003682741,8,1
-0.0004233763,-0.0003755671,8,1
-0.0004005251,-0.0003895047,8,1
-0.0003572537,-0.0003917736,8,1
-0.0002887001,-0.0003720016,8,1
-0.0001974573,-0.0003261372,8,1
-9.600444e-05,-0.0002598524,8,1
7.485573e-07,-0.0001853024,8,1
8.939829e-05,-0.0001146419,8,1
0.0001757791,-5.176061e-05,8,1
0.0002641047,-4.437533e-06,8,1
0.0003472443,2.829966e-05,8,1
0.0004104497,5.19612e-05,8,1
0.0004381629,7.367795e-05,8,1
0.0004263322,9.831188e-05,8,1
0.0003905157,0.0001286181,8,1
0.0003582647,0.0001663793,8,1
0.0003420582,0.0002067336,8,1
0.000331848,0.0002367157,8,1
0.0003064038,0.0002496809,8,1
0.0002611876,0.000247412,8,1
0.0002091646,0.0002321778,8,1
0.0001752929,0.0002055991,8,1
0.0001843686,0.000170431,8,1
0.0002480603,0.0001323456,8,1
0.0003569682,9.490851e-05,8,1
0.0004819206,6.476436e-05,8,1
0.0005835356,4.369587e-05,8,1
0.0006407447,3.445814e-05,8,1
0.0006546823,4.35338e-05,8,1
0.0006234037,7.772959e-05,8,1
0.0005482053,0.000143204,8,1
0.0004519385,0.0002328261,8,1
0.000368799,0.0003326584,8,1
0.0003179104,0.0004250357,8,1
0.0002948972,0.0004984512,8,1
0.0002859836,0.0005446399,8,1
0.0002854973,0.0005644119,8,1
0.0002944109,0.0005658705,8,1
0.0003158036,0.0005613327,8,1
0.0003425444,0.0005576051,8,1
0.0003605336,0.0005543638,8,1
0.0003512959,0.0005475571,8,1
0.0002924662,0.000534754,8,1
0.0001667035,0.0005169268,8,1
-2.631635e-05,0.0005013684,8,1
-0.0002650386,0.0004947237,8,1
-0.0005045711,0.0005025029,8,1
-0.0007029389,0.0005235714,8,1
-0.000836967,0.0005464226,8,1
-0.000904224,0.0005553362,8,1
-0.0009077895,0.0005439916,8,1
-0.0008607905,0.0005170888,8,1
-0.0007826751,0.0004851619,8,1
-0.0006899738,0.0004564763,8,1
-0.0005903036,0.000435732,8,1
-0.0004818819,0.0004192013,8,1
-0.0003611433,0.00040105,8,1
-0.0002222533,0.0003773884,8,1
-6.44017e-05,0.0003452995,8,1
0.000110953,0.0003039728,8,1
0.0003017039,0.0002534084,8,1
0.0005044477,0.0001960373,8,1
0.0007042743,0.0001376938,8,1
0.0008762258,8.79397e-05,8,1
0.0009895095,5.131294e-05,8,1
0.001025002,2.473423e-05,8,1
0.0009788133,4.638125e-06,8,1
0.0008647192,-1.335113e-05,8,1
0.0007088122,-3.474375e-05,8,1
0.000537347,-6.148453e-05,8,1
0.0003623164,-9.146661e-05,8,1
0.0001900409,-0.000119828,8,1
2.214118e-05,-0.0001455964,8,1
-0.0001394379,-0.0001710407,8,1
-0.0002916173,-0.000196647,8,1
-0.0004301831,-0.0002173914,8,1
-0.000549139,-0.0002290601,8,1
-0.0006411921,-0.0002323013,8,1
-0.0007056941,-0.0002290601,8,1
-0.0007512344,-0.0002237119,8,1
-0.0007876991,-0.0002222533,8,1
-0.000819788,-0.0002266291,8,1
-0.0008439358,-0.0002374874,8,1
-0.0008525252,-0.0002541802,8,1
-0.0008397221,-0.0002733039,8,1
-0.0008056884,-0.0002867553,8,1
-0.0007538275,-0.0002840002,8,1
-0.0006948357,-0.000263742,8,1
-0.0006415162,-0.0002353806,8,1
-0.0006032689,-0.0002100984,8,1
-0.0005812279,-0.0001947022,8,1
-0.0005671282,-0.0001903264,8,1
-0.0005533527,-0.0001987538,8,1
-0.0005285567,-0.0002154466,8,1
-0.0004877163,-0.0002316531,8,1
-0.0004282383,-0.0002451045,8,1
-0.0003517435,-0.000268604,8,1
-0.0002690902,-0.0003118754,8,1
-0.0001934057,-0.000370543,8,1
-0.0001292278,-0.000432452,8,1
-6.974985e-05,-0.0004823681,8,1
-2.330684e-06,-0.0005112157,8,1
7.853991e-05,-0.0005160777,8,1
0.0001710792,-0.0005016539,8,1
0.0002686426,-0.0004728062,8,1
0.0003649094,-0.0004306693,8,1
0.0004521006,-0.0003742705,8,1
0.0005195198,-0.0003068514,8,1
0.0005533914,-0.0002332737,8,1
0.0005409124,-0.0001652063,8,1
0.0004751139,-0.000112373,8,1
0.0003448133,-7.947377e-05,8,1
0.0001393144,-6.0188e-05,8,1
-0.0001138316,-4.365734e-05,8,1
-0.000350609,-2.194059e-05,8,1
-0.0005057055,8.527692e-06,8,1
-0.0005546492,5.098881e-05,8,1
-0.000539253,0.0001057669,8,1
-0.0005326084,0.0001726999,8,1
-0.0005809038,0.0002521119,8,1
-0.0006765223,0.0003469201,8,1
-0.0007753822,0.000460528,8,1
-0.0008270809,0.0005898562,8,1
-0.0007990437,0.0007237222,8,1
-0.0006760361,0.0008462437,8,1
-0.0004577342,0.0009501277,8,1
-0.0001588858,0.001039102,8,1
0.0001859892,0.001117865,8,1
0.0005307022,0.00117864,8,1
0.0008366818,0.00119906,8,1
0.001074918,0.001159516,8,1
0.001229042,0.001047043,8,1
0.001293869,0.0008640709,8,1
0.001267128,0.0006313449,8,1
0.001149955,0.0003798194,8,1
0.0009715204,0.0001464453,8,1
0.0007891966,-3.895745e-05,8,1
0.0006660269,-0.0001606685,8,1
0.0006496583,-0.000221443,8,1
0.0007546768,-0.0002378116,8,1
0.0009473725,-0.0002352185,8,1
0.001164865,-0.000236353,8,1
0.001341192,-0.0002515871,8,1
0.00142579,-0.0002820554,8,1
0.001394998,-0.0003228959,8,1
0.001260159,-0.0003660052,8,1
0.001053201,-0.0004014975,8,1
0.0008013516,-0.0004258073,8,1
0.0005200059,-0.0004416897,8,1
0.0002111094,-0.0004528722,8,1
-0.0001130213,-0.000464703,8,1
-0.0004099249,-0.0004789647,8,1
-0.0006202856,-0.0004914437,8,1
-0.0006933771,-0.0004972781,8,1
-0.0006005137,-0.0004930644,8,1
-0.0003583881,-0.0004778303,8,1
-4.527799e-05,-0.0004549791,8,1
0.0002278021,-0.0004282383,8,1
0.0003762539,-0.0003984183,8,1
0.000368799,-0.0003745947,8,1
0.0002284504,-0.0003663294,8,1
2.149292e-05,-0.0003734602,8,1
-0.0001791439,-0.0003909633,8,1
-0.0003167374,-0.0004144627,8,1
-0.0003567675,-0.0004439586,8,1
-0.000281083,-0.0004778303,8,1
-8.628052e-05,-0.0005115399,8,1
0.0001971717,-0.0005347152,8,1
0.0005094717,-0.0005355255,8,1
0.0007827141,-0.0005125122,8,1
0.0009553138,-0.0004710235,8,1
0.0009932371,-0.0004141386,8,1
0.0009066941,-0.0003441264,8,1
0.0007451148,-0.000266011,8,1
0.0005624671,-0.0001849783,8,1
0.0003851676,-0.0001088076,8,1
0.0002096508,-4.738484e-05,8,1
2.748934e-05,-6.868513e-06,8,1
-0.0001585616,9.986281e-06,8,1
-0.0003335922,9.824215e-06,8,1
-0.0004734545,-3.858999e-07,8,1
-0.0005574043,-1.124428e-05,8,1
-0.0005760419,-1.545797e-05,8,1
-0.000541846,-9.461558e-06,8,1
-0.0004799371,6.258778e-06,8,1
-0.0004193247,2.716521e-05,8,1
-0.0003814014,4.82337e-05,8,1
-0.0003779981,6.946425e-05,8,1
-0.0004061974,8.891209e-05,8,1
-0.0004504412,0.0001022015,8,1
-0.0004982505,0.0001067393,8,1
-0.0005437909,0.0001081979,8,1
-0.0005807417,0.0001156529,8,1
-0.0006074825,0.0001362352,8,1
-0.0006233649,0.0001691344,8,1
-0.0006301716,0.0002096508,8,1
-0.0006340612,0.0002513016,8,1
-0.0006413542,0.0002858215,8,1
-0.0006544815,0.0003112658,8,1
-0.0006680949,0.0003308757,8,1
-0.0006752257,0.0003501615,8,1
-0.00067085,0.0003707437,8,1
-0.0006588572,0.0003882468,8,1
-0.0006449196,0.0003944053,8,1
-0.000621096,0.000383709,8,1
-0.0005805797,0.000356644,8,1
-0.0005220741,0.0003206656,8,1
-0.0004538446,0.0002854973,8,1
-0.0003925839,0.0002577842,8,1
-0.0003638984,0.0002402811,8,1
-0.0003796187,0.0002323399,8,1
-0.0004360174,0.000232502,8,1
-0.0005115399,0.0002370398,8,1
-0.0005745832,0.0002428742,8,1
-0.0006022964,0.0002517878,8,1
-0.0005903036,0.0002641047,8,1
-0.0005497872,0.0002806354,8,1
-0.0004979264,0.0003013798,8,1
-0.0004496309,0.0003208276,8,1
-0.0004061974,0.0003286068,8,1
-0.0003651949,0.0003188828,8,1
-0.0003237062,0.0002936006,8,1
-0.0002825416,0.000254867,8,1
-0.0002491561,0.0002057612,8,1
-0.0002301945,0.0001495245,8,1
-0.0002212809,9.020862e-05,8,1
-0.0002122053,3.299956e-05,8,1
-0.0001956746,-1.983374e-05,8,1
-0.0001665028,-7.266703e-05,8,1
-0.0001190177,-0.0001261486,8,1
-5.64605e-05,-0.0001716889,8,1
7.393236e-06,-0.000204102,8,1
4.888196e-05,-0.000221605,8,1
5.179914e-05,-0.0002256567,8,1
1.727922e-05,-0.0002159328,8,1
-3.944364e-05,-0.0001903264,8,1
-9.211487e-05,-0.0001553203,8,1
-0.0001216107,-0.0001224211,8,1
-0.0001126972,-9.66527e-05,8,1
-6.294311e-05,-7.671866e-05,8,1
1.501031e-05,-5.775702e-05,8,1
0.0001004187,-3.782299e-05,8,1
0.0001769136,-2.404744e-05,8,1
0.0002372019,-2.728874e-05,8,1
0.000282256,-4.884343e-05,8,1
0.0003177483,-7.801519e-05,8,1
0.0003521062,-0.0001031353,8,1
0.0003942432,-0.0001216107,8,1
0.0004491834,-0.0001300382,8,1
0.0005144958,-0.0001293899,8,1
0.0005811046,-0.0001217728,8,1
0.0006379896,-0.0001133454,8,1
0.0006848265,-0.0001044318,8,1
0.0007240463,-8.82253e-05,8,1
0.0007601869,-6.569822e-05,8,1
0.0007903311,-6.0188e-05,8,1
0.0008115617,-9.162867e-05,8,1
0.000829551,-0.0001629374,8,1
0.000861964,-0.0002603387,8,1
0.0009198214,-0.0003598467,8,1
0.0009916165,-0.0004343968,8,1
0.001053201,-0.0004627582,8,1
0.001079294,-0.000435045,8,1
0.001050608,-0.0003621157,8,1
0.0009660101,-0.0002768693,8,1
0.000837168,-0.0002107467,8,1
0.0006768853,-0.0001783336,8,1
0.0004922928,-0.0001799543,8,1
0.0003055935,-0.0001977815,8,1
0.0001469315,-0.0002110708,8,1
3.93201e-05,-0.0002047502,8,1
-1.545797e-05,-0.0001780095,8,1
-2.599222e-05,-0.0001361966,8,1
1.883015e-06,-8.368748e-05,8,1
6.751948e-05,-1.659243e-05,8,1
0.0001611932,6.606088e-05,8,1
0.0002616738,0.0001667035,8,1
0.0003451374,0.0002911697,8,1
0.0003981328,0.0004441593,8,1
0.0004166082,0.0006178935,8,1
0.0004016982,0.0007909794,8,1
0.0003569682,0.0009348936,8,1
0.0002884145,0.001041046,8,1
0.0002060853,0.001118028,8,1
0.0001216493,0.001178154,8,1
4.385793e-05,0.001221425,8,1
-2.712668e-05,0.00123277,8,1
-0.0001021629,0.001189337,8,1
-0.0001927574,0.00107038,8,1
-0.000300855,0.0008744431,8,1
-0.0004167317,0.0006253485,8,1
-0.000529205,0.0003647473,8,1
-0.0006301716,0.0001469315,8,1
-0.0007206041,8.527692e-06,8,1
-0.0008008264,-4.608832e-05,8,1
-0.0008705144,-3.928157e-05,8,1
-0.000921403,3.179537e-06,8,1
-0.0009494403,6.314371e-05,8,1
-0.0009491161,0.0001305629,8,1
-0.000909248,0.0001984683,8,1
-0.0008251361,0.0002594049,8,1
-0.000708125,0.0003025142,8,1
-0.0005766901,0.0003222862,8,1
-0.0004467137,0.0003148312,8,1
-0.0003392644,0.000279663,8,1
-0.0002673075,0.0002318537,8,1
-0.0002272773,0.0001906891,8,1
-0.0002000504,0.0001736723,8,1
-0.0001663408,0.000185503,8,1
-0.0001238797,0.0002086784,8,1
-8.417367e-05,0.000207706,8,1
-6.423963e-05,0.0001470936,8,1
-6.472583e-05,1.306552e-05,8,1
-7.33153e-05,-0.00018433,8,1
-7.461182e-05,-0.0004143007,8,1
-6.245691e-05,-0.0006424887,8,1
-3.782299e-05,-0.0008428013,8,1
-8.327101e-06,-0.001005353,8,1
1.403791e-05,-0.001132412,8,1
1.857574e-05,-0.001230948,8,1
2.04508e-06,-0.001306956,8,1
-3.182657e-05,-0.00136141,8,1
-7.023606e-05,-0.001384099,8,1
-0.000104918,-0.001358331,8,1
-0.0001316588,-0.001281026,8,1
-0.0001452723,-0.001163691,8,1
-0.0001417068,-0.001028852,8,1
-0.000122259,-0.0009030896,8,1
-9.454585e-05,-0.0008071469,8,1
-6.780507e-05,-0.000750424,8,1
-5.078821e-05,-0.0007243316,8,1
-5.176061e-05,-0.0007052079,8,1
-7.736692e-05,-0.0006650157,8,1
-0.0001217728,-0.000589007,8,1
-0.0001562927,-0.0004797751,8,1
-0.0001368449,-0.0003544986,8,1
-3.604027e-05,-0.0002379736,8,1
0.0001477418,-0.0001467309,8,1
0.0003872744,-8.595638e-05,8,1
0.0006438239,-4.738484e-05,8,1
0.0008802774,-1.853722e-05,8,1
0.00106876,1.047248e-05,8,1
0.001196467,4.434413e-05,8,1
0.001262752,8.486046e-05,8,1
0.001271666,0.000128294,8,1
0.001226612,0.0001671896,8,1
0.001133748,0.0001973338,8,1
0.001007985,0.000217754,8,1
0.0008627744,0.0002312055,8,1
0.0007021675,0.0002433604,8,1
0.0005287575,0.000259891,8,1
0.000351458,0.000284525,8,1
0.0001880961,0.0003115899,8,1
4.969229e-05,0.0003337929,8,1
-5.775702e-05,0.0003509718,8,1
-0.0001391138,0.0003637749,8,1
-0.0002055606,0.0003715541,8,1
-0.0002724935,0.0003736609,8,1
-0.0003593606,0.0003730126,8,1
-0.0004794509,0.0003734989,8,1
-0.0006206098,0.0003760919,8,1
-0.0007590136,0.0003783608,8,1
-0.0008687317,0.0003775505,8,1
-0.0009308027,0.0003754436,8,1
-0.0009311269,0.0003756057,8,1
-0.0008637077,0.0003811159,8,1
-0.0007379451,0.0003874365,8,1
-0.0005770142,0.0003903536,8,1
-0.0004120317,0.0003840331,8,1
-0.0002609869,0.0003692851,8,1
-0.0001266348,0.0003480546,8,1
-8.975362e-06,0.0003211517,8,1
9.393612e-05,0.0002905214,8,1
0.0001835583,0.0002615117,8,1
0.0002642668,0.0002402811,8,1
0.0003373583,0.0002290986,8,1
0.000406074,0.0002271538,8,1
0.0004707381,0.0002339606,8,1
0.0005204921,0.0002441707,8,1
0.000544802,0.0002466017,8,1
0.0005384815,0.0002381743,8,1
0.0004963444,0.0002231022,8,1
0.0004230909,0.0002038164,8,1
0.0003344411,0.0001783722,8,1
0.0002504913,0.0001448246,8,1
0.0001817755,0.0001075496,8,1
0.000123432,7.30297e-05,8,1
6.03886e-05,4.709924e-05,8,1
-1.886135e-05,3.154097e-05,8,1
-0.0001178833,2.424803e-05,8,1
-0.0002246843,2.246531e-05,8,1
-0.0003251648,2.149292e-05,8,1
-0.0004168937,2.003433e-05,8,1
-0.0005005194,1.760335e-05,8,1
-0.0005729626,1.355172e-05,8,1
-0.0006248235,5.286387e-06,8,1
-0.0006400577,-6.544382e-06,8,1
-0.0006029447,-2.258885e-05,8,1
-0.0005011677,-3.733679e-05,8,1
-0.0003507711,-4.706071e-05,8,1
-0.0001840059,-4.997789e-05,8,1
-2.631635e-05,-4.90055e-05,8,1
0.0001188942,-4.365734e-05,8,1
0.0002535705,-3.522994e-05,8,1
0.0003709058,-2.971972e-05,8,1
0.0004522626,-3.604027e-05,8,1
0.0004802999,-6.310517e-05,8,1
0.0004469145,-0.0001086455,8,1
0.0003576164,-0.0001605064,8,1
0.0002268297,-0.0002024813,8,1
7.805372e-05,-0.0002243602,8,1
-5.872941e-05,-0.0002256567,8,1
-0.0001486757,-0.0002079916,8,1
-0.0001686097,-0.0001763888,8,1
-0.0001248521,-0.0001404103,8,1
-3.798505e-05,-0.0001063766,8,1
7.092284e-05,-7.704279e-05,8,1
0.0001887444,-5.013995e-05,8,1
0.000297004,-2.015787e-05,8,1
0.0003731747,1.582063e-05,8,1
0.0003995914,6.217132e-05,8,1
0.0003692851,0.0001175977,8,1
0.000289549,0.0001691344,8,1
0.0001678379,0.000200251,8,1
1.436204e-05,0.0002031682,8,1
-0.0001554824,0.0001814514,8,1
-0.0003170615,0.0001470936,8,1
-0.0004465517,0.0001107909,8,1
-0.0005223983,8.016057e-05,8,1
-0.0005309877,5.52025e-05,8,1
-0.0004674581,3.55926e-05,8,1
-0.0003400748,2.035846e-05,8,1
-0.0001801163,9.175954e-06,8,1
-3.604027e-05,7.485573e-07,8,1
4.35338e-05,-3.14101e-06,8,1
3.478228e-05,3.665733e-06,8,1
-4.738484e-05,2.311357e-05,8,1
-0.0001653684,5.066468e-05,8,1
-0.0002822175,8.097089e-05,8,1
-0.0003763774,0.0001093323,8,1
-0.0004425001,0.0001375317,8,1
-0.0004843129,0.0001667035,8,1
-0.0005097571,0.0001942546,8,1
-0.0005173742,0.0002193747,8,1
-0.0004946851,0.0002414156,8,1
-0.000437476,0.0002600531,8,1
-0.0003507711,0.0002723701,8,1
-0.0002480217,0.0002738286,8,1
-0.00015451,0.0002660495,8,1
-0.0001057284,0.0002513016,8,1
-0.0001190177,0.0002313675,8,1
-0.0001938919,0.0002106232,8,1
-0.0003089583,0.0001900409,8,1
-0.0004337485,0.000168,8,1
-0.0005377944,0.0001454729,8,1
-0.0005911139,0.0001218114,8,1
-0.0005728005,9.361199e-05,8,1
-0.0004724821,6.119892e-05,8,1
-0.000295993,2.878586e-05,8,1
-7.477388e-05,5.610517e-06,8,1
0.0001454729,-7.354709e-06,8,1
0.0003239069,-1.643037e-05,8,1
0.000443349,-2.84232e-05,8,1
0.0005122268,-4.80331e-05,8,1
0.0005495019,-8.02841e-05,8,1
0.0005728393,-0.0001258245,8,1
0.0005856425,-0.0001780095,8,1
0.0005799701,-0.0002276015,8,1
0.0005504743,-0.000268604,8,1
0.0004971547,-0.0002955068,8,1
0.0004201737,-0.0003126857,8,1
0.0003161277,-0.0003233821,8,1
0.0001723757,-0.0003329439,8,1
-1.270286e-05,-0.0003410472,8,1
-0.0002246843,-0.0003501228,8,1
-0.000439907,-0.0003638984,8,1
-0.0006262821,-0.0003817256,8,1
-0.0007525309,-0.0004019837,8,1
-0.0008027712,-0.0004224039,8,1
-0.0007781372,-0.0004387725,8,1
-0.0006914323,-0.0004457413,8,1
-0.0005661559,-0.0004444448,8,1
-0.0004314796,-0.0004352071,8,1
-0.0003222476,-0.0004186764,8,1
-0.0002705488,-0.0003963114,8,1
-0.0003065273,-0.0003736223,8,1
-0.0004450931,-0.0003553089,8,1
-0.0006601537,-0.0003371576,8,1
-0.0008852624,-0.0003190063,8,1
-0.001051055,-0.0002976137,8,1
-0.001105833,-0.0002702246,8,1
-0.001030311,-0.000238784,8,1
-0.0008442599,-0.0002094502,8,1
-0.0005870623,-0.0001840059,8,1
-0.0002825416,-0.0001583996,8,1
6.379197e-05,-0.0001217728,8,1
0.0004559901,-6.407757e-05,8,1
0.0008773603,1.484824e-05,8,1
0.001264049,9.879808e-05,8,1
0.001548636,0.0001654069,8,1
0.001716374,0.0001914995,8,1
0.001808914,0.0001676758,8,1
0.001874874,0.0001051186,8,1
0.001940997,2.522042e-05,8,1
0.00200242,-5.062615e-05,8,1
0.002035482,-0.0001088076,8,1
0.002024947,-0.0001436516,8,1
0.001973086,-0.0001528894,8,1
0.001898698,-0.0001389517,8,1
0.001823661,-0.0001167488,8,1
0.001759321,-0.0001029732,8,1
0.00169563,-0.0001052422,8,1
0.001602766,-0.0001206384,8,1
0.001445562,-0.0001386276,8,1
0.001205543,-0.000151917,8,1
0.0008857877,-0.0001566169,8,1
0.0005222749,-0.0001465688,8,1
0.0001696206,-0.0001191798,8,1
-0.0001279313,-8.255302e-05,8,1
-0.0003514194,-6.375344e-05,8,1
-0.0005008436,-7.574627e-05,8,1
-0.0005877105,-0.00010978,8,1
-0.0006207718,-0.0001421931,8,1
-0.0005966241,-0.0001439758,8,1
-0.0005107295,-9.211487e-05,8,1
-0.0003638984,9.500085e-06,8,1
-0.0001716889,0.0001415833,8,1
3.672706e-05,0.0002832284,8,1
0.000217592,0.0004247115,8,1
0.0003294171,0.0005624671,8,1
0.0003469201,0.0006937401,8,1
0.000269777,0.0008105893,8,1
0.0001156529,0.0009081527,8,1
-8.044617e-05,0.0009898337,8,1
-0.0002729798,0.001054498,8,1
-0.000424997,0.001094366,8,1
-0.0005264499,0.001097931,8,1
-0.0005958138,0.001060008,8,1
-0.0006655019,0.0009865924,8,1
-0.0007573929,0.0009002115,8,1
-0.000871811,0.0008318199,8,1
-0.0009930359,0.0008034584,8,1
-0.001098702,0.0008183684,8,1
-0.001167418,0.0008507816,8,1
-0.001192214,0.0008580745,8,1
-0.001182328,0.0008091307,8,1
-0.001153156,0.0007081639,8,1
-0.001118799,0.0005867769,8,1
-0.001085899,0.0004833792,8,1
-0.001048462,0.00041596,8,1
-0.0009931979,0.0003754436,8,1
-0.0009170272,0.0003286068,8,1
-0.0008259465,0.0002456293,8,1
-0.0007275729,0.0001153287,8,1
-0.000631144,-5.64605e-05,8,1
-0.0005533527,-0.0002460769,8,1
-0.0005068399,-0.0004217557,8,1
-0.0004993849,-0.0005578905,8,1
-0.0005236948,-0.0006450817,8,1
-0.0005543251,-0.000685436,8,1
-0.0005668041,-0.0006893255,8,1
-0.0005533527,-0.0006724707,8,1
-0.0005212637,-0.0006467023,8,1
-0.0004800992,-0.0006201236,8,1
-0.0004382863,-0.0005946793,8,1
-0.0004045768,-0.0005711799,8,1
-0.0003788084,-0.0005476804,8,1
-0.0003572537,-0.0005233706,8,1
-0.0003340784,-0.0004967919,8,1
-0.0003100927,-0.0004643789,8,1
-0.0002825416,-0.000422566,8,1
-0.0002382978,-0.0003723258,8,1
-0.0001629374,-0.0003185201,8,1
-5.22468e-05,-0.0002658489,8,1
7.691926e-05,-0.0002209568,8,1
0.0001924718,-0.0001896782,8,1
0.0002718839,-0.000176875,8,1
0.0003179104,-0.0001762268,8,1
0.0003470822,-0.0001849783,8,1
0.0003700955,-0.0002053985,8,1
0.0003987811,-0.0002475355,8,1
0.0004495075,-0.0003185201,8,1
0.0005371849,-0.0004144627,8,1
0.0006587339,-0.0005227224,8,1
0.0007916276,-0.0006303337,8,1
0.0009053976,-0.0007257902,8,1
0.0009689272,-0.0008026091,8,1
0.0009598516,-0.0008530114,8,1
0.0008806016,-0.0008714869,8,1
0.0007593766,-0.0008541459,8,1
0.0006323173,-0.0008050401,8,1
0.0005242196,-0.0007256281,8,1
0.0004409181,-0.0006217443,8,1
0.0003760919,-0.0004943609,8,1
0.0003174242,-0.0003452609,8,1
0.0002537325,-0.000181737,8,1
0.0001833962,-1.805102e-05,8,1
0.0001138702,0.0001329939,8,1
5.56887e-05,0.0002626462,8,1
1.59827e-05,0.0003657197,8,1
-3.303076e-06,0.0004405939,8,1
-1.25408e-05,0.0004862963,8,1
-2.339918e-05,0.0005059062,8,1
-4.090223e-05,0.0005029891,8,1
-6.958779e-05,0.0004796517,8,1
-0.000114804,0.000435894,8,1
-0.0001810887,0.000373985,8,1
-0.0002630937,0.0002999212,8,1
-0.0003459091,0.0002203471,8,1
-0.0004108973,0.0001410971,8,1
-0.0004476861,7.011252e-05,8,1
-0.0004687546,1.306552e-05,8,1
-0.0004998712,-2.777494e-05,8,1
-0.0005531906,-6.926366e-05,8,1
-0.0006188271,-0.0001318209,8,1
-0.0006753879,-0.0002178775,8,1
-0.0006943495,-0.00030831,8,1
-0.0006489712,-0.0003786463,8,1
-0.0005343911,-0.0004131662,8,1
-0.0003792946,-0.0004089525,8,1
-0.0002329496,-0.0003674638,8,1
-0.000132145,-0.0002945344,8,1
-7.720486e-05,-0.0002112329,8,1
-4.592625e-05,-0.0001389517,8,1
-1.027188e-05,-7.801519e-05,8,1
4.904402e-05,-2.696461e-05,8,1
0.0001321835,1.695509e-05,8,1
0.0002384984,6.103686e-05,8,1
0.0003673404,0.0001150046,8,1
0.0005070407,0.0001908512,8,1
0.0006405826,0.00029198,8,1
0.0007660213,0.0004133669,8,1
0.0008831946,0.0005441537,8,1
0.0009820546,0.0006704027,8,1
0.001045422,0.0007725039,8,1
0.001061467,0.0008336026,8,1
0.001041695,0.0008473782,8,1
0.00101155,0.0008177201,8,1
0.0009946957,0.0007584042,8,1
0.0009946957,0.0006853127,8,1
0.0009911302,0.0006131936,8,1
0.0009423485,0.0005483674,8,1
0.0008015137,0.0004934272,8,1
0.0005402642,0.0004472386,8,1
0.0001795066,0.0004041292,8,1
-0.0002086398,0.0003574544,8,1
-0.0005379565,0.000304297,8,1
-0.0007494517,0.000237526,8,1
-0.0008282154,0.000155683,8,1
-0.0007915886,6.670914e-05,8,1
-0.0006771705,-7.192643e-06,8,1
-0.0005288809,-4.608832e-05,8,1
-0.0003925839,-4.706071e-05,8,1
-0.0002995585,-2.145439e-05,8,1
-0.0002574215,3.179537e-06,8,1
-0.0002577456,1.002961e-07,8,1
-0.0002775176,-4.446767e-05,8,1
-0.0002908069,-0.0001245279,8,1
-0.0002690902,-0.0002222533,8,1
-0.0001924333,-0.0003173856,8,1
-6.456377e-05,-0.0003945287,8,1
9.490851e-05,-0.0004425001,8,1
0.0002574601,-0.0004590307,8,1
0.0003999155,-0.0004450931,8,1
0.0005084993,-0.0004045768,8,1
0.0005793219,-0.0003402368,8,1
0.0006140039,-0.0002566112,8,1
0.0006162729,-0.0001579134,8,1
0.0005995801,-5.856735e-05,8,1
0.0005871011,1.97102e-05,8,1
0.000604442,6.589881e-05,8,1
0.0006619753,8.46984e-05,8,1
0.0007366874,9.053275e-05,8,1
0.0007738004,9.814982e-05,8,1
0.0007123777,0.0001218114,8,1
0.0005323229,0.0001621656,8,1
0.0002759355,0.0002133783,8,1
2.311357e-05,0.0002658874,8,1
-0.0001535376,0.0003085106,8,1
-0.0002233878,0.0003324963,8,1
-0.0002028055,0.0003344411,8,1
-0.0001434896,0.0003136967,8,1
-0.0001029732,0.0002788527,8,1
-0.0001120489,0.0002420638,8,1
-0.0001712027,0.0002114335,8,1
-0.0002579077,0.0001884202,8,1
-0.0003543365,0.0001726999,8,1
-0.0004361795,0.0001644345,8,1
-0.000482206,0.0001649207,8,1
-0.0004807475,0.0001707551,8,1
-0.0004334244,0.0001793446,8,1
-0.0003493125,0.0001871237,8,1
-0.0002379736,0.0001916615,8,1
-0.0001065387,0.000192958,8,1
3.089271e-05,0.0001911753,8,1
0.0001573037,0.0001872858,8,1
0.0002564877,0.0001785342,8,1
0.0003145071,0.0001602208,8,1
0.0003261758,0.0001305629,8,1
0.0002955454,8.923623e-05,8,1
0.0002321778,3.769945e-05,8,1
0.0001568175,-1.99958e-05,8,1
8.923623e-05,-8.255302e-05,8,1
4.110282e-05,-0.0001475412,8,1
-2.006553e-06,-0.0002078295,8,1
-6.537409e-05,-0.0002522354,8,1
-0.0001665028,-0.0002708729,8,1
-0.000303448,-0.0002608248,8,1
-0.0004575721,-0.0002319772,8,1
-0.0006040792,-0.0001989159,8,1
-0.0007259523,-0.0001705545,8,1
-0.000819788,-0.0001512687,8,1
-0.0008938519,-0.0001408965,8,1
-0.0009601366,-0.0001350622,8,1
-0.001040521,-0.0001366828,8,1
-0.001144729,-0.0001504584,8,1
-0.001247154,-0.000176875,8,1
-0.001293829,-0.0002099363,8,1
-0.001237754,-0.0002426735,8,1
-0.001065641,-0.000271197,8,1
-0.0008082814,-0.0002925897,8,1
-0.0005287188,-0.0003019894,8,1
-0.0002995585,-0.0002958309,8,1
-0.0001614788,-0.0002724935,8,1
-0.0001034594,-0.0002342462,8,1
-8.271508e-05,-0.0001914609,8,1
-5.613637e-05,-0.000152079,8,1
-2.978945e-06,-0.0001188556,8,1
7.011252e-05,-8.644259e-05,8,1
0.0001412592,-5.159854e-05,8,1
0.0001892305,-1.967167e-05,8,1
0.0002017096,2.693341e-06,8,1
0.0001785342,1.436204e-05,8,1
0.0001205148,2.197911e-05,8,1
4.191315e-05,3.867184e-05,8,1
-3.409549e-05,6.557468e-05,8,1
-9.713889e-05,9.63671e-05,8,1
-0.00015451,0.0001235941,8,1
-0.0002052365,0.0001438522,8,1
-0.0002290601,0.0001566554,8,1
-0.0001893541,0.0001615174,8,1
-5.791909e-05,0.0001642725,8,1
0.0001621656,0.0001637863,8,1
0.0004172565,0.0001584381,8,1
0.0006237278,0.0001474177,8,1
0.0007212912,0.0001320215,8,1
0.0007020054,0.0001150046,8,1
0.0006088178,0.0001047945,8,1
0.0005046097,0.0001064152,8,1
0.0004375147,0.0001150046,8,1
0.000418553,0.0001107909,8,1
0.0004303838,7.6271e-05,8,1
0.0004444835,1.59827e-05,8,1
0.0004371906,-5.127441e-05,8,1
0.0004054258,-0.0001094559,8,1
0.0003546993,-0.0001477033,8,1
0.0003049452,-0.0001681235,8,1
0.0002785285,-0.0001741199,8,1
0.0002866318,-0.0001677994,8,1
0.0003274723,-0.0001501342,8,1
0.0003822504,-0.0001238797,8,1
0.0004245494,-9.324933e-05,8,1
0.0004375147,-6.375344e-05,8,1
0.0004213082,-3.895745e-05,8,1
0.0003851676,-1.659243e-05,8,1
0.0003402755,5.448452e-06,8,1
0.0002897111,2.684107e-05,8,1
0.0002167816,4.888196e-05,8,1
0.0001026876,6.962632e-05,8,1
-4.965376e-05,8.696731e-05,8,1
-0.0002235498,9.993253e-05,8,1
-0.0003998769,0.0001096565,8,1
-0.0005692351,0.0001193804,8,1
-0.0007214144,0.0001297526,8,1
-0.0008405324,0.0001388282,8,1
-0.0009094102,0.0001453108,8,1
-0.0009155686,0.000148228,8,1
-0.0008556045,0.0001477418,8,1
-0.000745238,0.0001495245,8,1
-0.0006141272,0.0001595726,8,1
-0.0004893369,0.000185341,8,1
-0.0003849669,0.000227478,8,1
-0.0003062031,0.0002777182,8,1
-0.0002486699,0.0003141829,8,1
-0.0002104225,0.0003052694,8,1
-0.000184168,0.0002370398,8,1
-0.0001506204,0.0001180839,8,1
-8.806324e-05,-2.09682e-05,8,1
1.614476e-05,-0.0001455964,8,1
0.0001542244,-0.0002306807,8,1
0.0002869559,-0.0002713591,8,1
0.0003678266,-0.0002828657,8,1
0.0003744712,-0.0002857829,8,1
0.0003088348,-0.0003000446,8,1
0.0001989545,-0.0003436402,8,1
8.680524e-05,-0.0004177041,8,1
8.851824e-06,-0.000507002,8,1
-2.501983e-05,-0.0005891691,8,1
-2.194059e-05,-0.0006467023,8,1
1.883015e-06,-0.0006726327,8,1
3.267542e-05,-0.0006727948,8,1
6.83298e-05,-0.0006549676,8,1
0.0001099806,-0.0006243373,8,1
0.0001493625,-0.0005822003,8,1
0.0001714034,-0.0005311498,8,1
0.0001587623,-0.0004732924,8,1
0.0001070634,-0.0004141386,8,1
2.878586e-05,-0.0003609812,8,1
-4.80331e-05,-0.0003178718,8,1
-9.065628e-05,-0.0002833519,8,1
-6.91016e-05,-0.0002523975,8,1
2.700314e-05,-0.0002212809,8,1
0.0001856651,-0.0001885437,8,1
0.0003794953,-0.0001511067,8,1
0.0005725152,-0.000104756,8,1
0.0007289083,-4.527799e-05,8,1
0.0008154513,2.489629e-05,8,1
0.0008118858,0.0001007429,8,1
0.0007261531,0.0001811273,8,1
0.0005989318,0.0002686426,8,1
0.0004856481,0.0003637749,8,1
0.000428277,0.0004647417,8,1
0.0004375147,0.0005663567,8,1
0.0004914824,0.000659058,8,1
0.0005514466,0.0007340944,8,1
0.000579484,0.0007921138,8,1
0.0005438296,0.0008368439,8,1
0.0004277907,0.0008724983,8,1
0.0002378501,0.0008966461,8,1
1.072688e-06,0.0008995633,8,1
-0.0002392702,0.0008705535,8,1
-0.0004426621,0.0008011895,8,1
-0.0005967862,0.0006882299,8,1
-0.0007152559,0.0005370228,8,1
-0.0008168708,0.0003697714,8,1
-0.000906817,0.0002137024,8,1
-0.0009802326,8.615699e-05,8,1
-0.001019777,-1.092015e-05,8,1
-0.001010539,-8.611845e-05,8,1
-0.0009455507,-0.0001493239,8,1
-0.0008243258,-0.000206695,8,1
-0.0006512401,-0.0002525595,8,1
-0.0004342347,-0.0002720074,8,1
-0.0001925954,-0.000253856,8,1
4.466826e-05,-0.0002006986,8,1
0.0002576221,-0.0001267968,8,1
0.0004396215,-5.095028e-05,8,1
0.0006007145,1.355172e-05,8,1
0.0007540284,6.152305e-05,8,1
0.0009078286,9.296373e-05,8,1
0.001052553,0.0001078737,8,1
0.001172644,0.0001072255,8,1
0.001255945,9.328786e-05,8,1
0.001301486,7.027458e-05,8,1
0.001322878,4.434413e-05,8,1
0.001334871,1.938607e-05,8,1
0.001348647,-2.168618e-06,8,1
0.001357398,-2.113026e-05,8,1
0.001340057,-3.847125e-05,8,1
0.001269721,-5.240886e-05,8,1
0.001117217,-6.342931e-05,8,1
0.0008616399,-7.218083e-05,8,1
0.0005128751,-8.239095e-05,8,1
0.0001177597,-9.616651e-05,8,1
-0.0002577456,-0.0001126972,8,1
-0.0005580526,-0.0001334415,8,1
-0.0007582033,-0.0001585616,8,1
-0.0008646801,-0.0001862748,8,1
-0.0009034137,-0.0002081536,8,1
-0.0008998482,-0.0002217671,8,1
-0.0008680834,-0.0002269532,8,1
-0.0008137916,-0.0002230636,8,1
-0.0007500999,-0.0002105846,8,1
-0.0006948357,-0.0001976194,8,1
-0.0006595054,-0.0001904885,8,1
-0.0006457299,-0.0001925954,8,1
-0.0006423265,-0.0002047502,8,1
-0.0006356818,-0.0002227395,8,1
-0.0006157478,-0.0002410529,8,1
-0.0005830107,-0.0002543422,8,1
-0.0005361738,-0.0002590421,8,1
-0.0004773441,-0.0002546664,8,1
-0.0004091146,-0.0002395943,8,1
-0.0003298647,-0.0002169052,8,1
-0.0002428356,-0.0001865989,8,1
-0.0001549962,-0.0001556445,8,1
-7.23429e-05,-0.0001329553,8,1
-2.978945e-06,-0.0001217728,8,1
3.170304e-05,-0.0001165867,8,1
-1.844488e-06,-0.0001060525,8,1
-0.0001238797,-8.40116e-05,8,1
-0.0003203028,-5.030202e-05,8,1
-0.000549301,-1.075808e-05,8,1
-0.0007559343,3.154097e-05,8,1
-0.0008988759,7.821578e-05,8,1
-0.0009714811,0.0001269974,8,1
-0.00098866,0.0001744826,8,1
-0.0009684019,0.0002190506,8,1
-0.0009236719,0.0002571359,8,1
-0.0008583596,0.0002853353,8,1
-0.0007753822,0.0003047831,8,1
-0.0006727948,0.0003198552,8,1
-0.0005439529,0.0003294171,8,1
-0.0003880461,0.0003329825,8,1
-0.0002071812,0.0003299033,8,1
-2.978945e-06,0.0003146691,8,1
0.0002289366,0.0002853353,8,1
0.0004825689,0.0002514636,8,1
0.0007368495,0.0002255332,8,1
0.0009650377,0.000215161,8,1
0.001138286,0.000217754,8,1
0.001231474,0.0002234263,8,1
0.001224505,0.0002218057,8,1
0.001119162,0.0002068957,8,1
0.0009405658,0.0001806411,8,1
0.0007365254,0.000145635,8,1
0.000559712,0.0001137081,8,1
0.0004501558,9.361199e-05,8,1
0.0004274666,8.242948e-05,8,1
0.0004785172,7.157111e-05,8,1
0.0005585775,5.115087e-05,8,1
0.0006162729,1.938607e-05,8,1
0.0006081695,-2.437157e-05,8,1
0.0005093097,-7.963584e-05,8,1
0.000319369,-0.0001454344,8,1
7.20573e-05,-0.0002157707,8,1
-0.0001822232,-0.0002789762,8,1
-0.0003959873,-0.0003248407,8,1
-0.0005384427,-0.0003502849,8,1
-0.0005951655,-0.0003596847,8,1
-0.0005676145,-0.0003572537,8,1
-0.0004736166,-0.000338292,8,1
-0.0003512573,-0.0002995585,8,1
-0.0002454286,-0.0002423494,8,1
-0.0001906506,-0.0001746061,8,1
-0.0002006986,-0.0001062146,8,1
-0.0002658489,-4.754691e-05,8,1
-0.0003647087,-6.058186e-06,8,1
-0.0004706994,1.582063e-05,8,1
-0.0005634008,1.792748e-05,8,1
-0.0006301716,7.485573e-07,8,1
-0.0006622606,-2.939559e-05,8,1
-0.0006593434,-6.294311e-05,8,1
-0.0006301716,-8.644259e-05,8,1
-0.0005916001,-9.551824e-05,8,1
-0.0005575664,-9.422172e-05,8,1
-0.000534229,-9.389759e-05,8,1
-0.0005232086,-0.0001057284,8,1
-0.0005178604,-0.0001323071,8,1
-0.0005081365,-0.0001684476,8,1
-0.0004799371,-0.0002057227,8,1
-0.0004295348,-0.0002305186,8,1
-0.0003616295,-0.0002348944,8,1
-0.0002849726,-0.0002170672,8,1
-0.0002147983,-0.0001796301,8,1
-0.0001640719,-0.0001303623,8,1
-0.0001365208,-7.720486e-05,8,1
-0.0001339277,-2.226472e-05,8,1
-0.0001538618,3.316162e-05,8,1
-0.0001857886,8.437427e-05,8,1
-0.0002160948,0.0001287802,8,1
-0.0002292221,0.0001652449,8,1
-0.0002131776,0.000195389,8,1
-0.0001622891,0.0002198609,8,1
-6.91016e-05,0.0002378501,8,1
6.816773e-05,0.0002485465,8,1
0.0002352571,0.0002543808,8,1
0.0004025085,0.0002581083,8,1
0.0005362125,0.0002603772,8,1
0.0006120591,0.0002608634,8,1
0.0006276174,0.0002603772,8,1
0.0006000663,0.0002585945,8,1
0.0005540397,0.0002574601,8,1
0.0005128751,0.0002615117,8,1
0.0004892136,0.0002689667,8,1
0.0004817585,0.0002736666,8,1
0.0004785172,0.0002689667,8,1
0.0004715484,0.0002535705,8,1
0.0004653899,0.0002290986,8,1
0.0004798138,0.0001966855,8,1
0.0005546879,0.0001573037,8,1
0.0007185361,0.0001138702,8,1
0.0009522345,6.930219e-05,8,1
0.00119906,3.056858e-05,8,1
0.001398401,3.665733e-06,8,1
0.001508768,-4.275467e-06,8,1
0.001518978,8.689758e-06,8,1
0.001436,4.531652e-05,8,1
0.001278797,0.0001004187,8,1
0.001079132,0.0001670276,8,1
0.0008838429,0.0002258573,8,1
0.0007298806,0.0002675081,8,1
0.0006212969,0.0002905214,8,1
0.0005368608,0.0003028383,8,1
0.0004551798,0.0003140208,8,1
0.0003694472,0.0003294171,8,1
0.0002778803,0.0003503235,8,1
0.0001856651,0.000373985,8,1
9.912221e-05,0.000393595,8,1
1.565857e-05,0.0004044533,8,1
-7.007399e-05,0.0004078567,8,1
-0.0001546721,0.0004002396,8,1
-0.0002229016,0.0003736609,8,1
-0.0002592042,0.0003269861,8,1
-0.0002585559,0.0002652392,8,1
-0.0002156086,0.0001958752,8,1
-0.0001355484,0.0001235941,8,1
-5.32192e-05,5.260946e-05,8,1
-2.647842e-05,-1.464765e-05,8,1
-9.211487e-05,-8.271508e-05,8,1
-0.000256287,-0.0001530514,8,1
-0.0004961436,-0.0002235498,8,1
-0.0007658203,-0.0002891863,8,1
-0.001020101,-0.0003449367,8,1
-0.001225275,-0.0003849669,8,1
-0.001358331,-0.0004071698,8,1
-0.00140144,-0.0004172179,8,1
-0.001366921,-0.0004292107,8,1
-0.001307281,-0.0004590307,8,1
-0.00127665,-0.0005087847,8,1
-0.001276164,-0.0005655076,8,1
-0.001260119,-0.0006092652,8,1
-0.001178763,-0.0006266062,8,1
-0.00100827,-0.0006194753,8,1
-0.000755124,-0.0005975965,8,1
-0.0004415277,-0.0005677765,8,1
-8.790117e-05,-0.0005337428,8,1
0.0002785285,-0.0004951713,8,1
0.0006214589,-0.0004450931,8,1
0.0009097734,-0.0003781601,8,1
0.001126941,-0.0002979378,8,1
0.001272476,-0.0002175534,8,1
0.001360802,-0.0001533756,8,1
0.001404722,-0.000114804,8,1
0.001406666,-0.0001007043,8,1
0.001357723,-9.989401e-05,8,1
0.001249625,-9.843541e-05,8,1
0.001086749,-8.368748e-05,8,1
0.0008828705,-4.80331e-05,8,1
0.000659058,1.014835e-05,8,1
0.0004273046,9.68533e-05,8,1
0.000187934,0.0002085163,8,1
-6.423963e-05,0.0003354135,8,1
-0.0003233821,0.0004589073,8,1
-0.0005698834,0.0005584154,8,1
-0.0007844578,0.0006230795,8,1
-0.0009504127,0.0006512789,8,1
-0.001057862,0.0006512789,8,1
-0.001095623,0.0006399344,8,1
-0.001059321,0.0006302104,8,1
-0.0009565711,0.0006203245,8,1
-0.0008061745,0.0005862907,8,1
-0.0006321164,0.0004981271,8,1
-0.0004580583,0.0003483787,8,1
-0.0003024756,0.0001558451,8,1
-0.0001760647,-4.527799e-05,8,1
-8.320128e-05,-0.000224036,8,1
-2.7937e-05,-0.0003548227,8,1
-1.173047e-05,-0.0004267797,8,1
-2.826114e-05,-0.0004486585,8,1
-6.326724e-05,-0.0004446069,8,1
-9.746302e-05,-0.000435045,8,1
-0.0001203142,-0.000427428,8,1
-0.0001334415,-0.0004159214,8,1
-0.0001483515,-0.0003961493,8,1
-0.0001752544,-0.0003718396,8,1
-0.0002162569,-0.0003485022,8,1
-0.0002684419,-0.0003274337,8,1
-0.000328244,-0.0003055549,8,1
-0.000390315,-0.0002703867,8,1
-0.0004493068,-0.0002149604,8,1
-0.0005011677,-0.000149486,8,1
-0.0005415219,-8.887356e-05,8,1
-0.0005650214,-3.976777e-05,8,1
-0.000571342,-6.706447e-06,8,1
-0.0005611319,1.014835e-05,8,1
-0.0005317981,1.517237e-05,8,1
-0.0004732924,1.484824e-05,8,1
-0.00036795,1.54965e-05,8,1
-0.0002100984,1.825161e-05,8,1
-1.237873e-05,2.246531e-05,8,1
0.000200413,2.586868e-05,8,1
0.0003999155,2.684107e-05,8,1
0.0005611706,2.846173e-05,8,1
0.0006640821,3.478228e-05,8,1
0.0006998986,4.580272e-05,8,1
0.000678668,6.184718e-05,8,1
0.0006225934,7.789165e-05,8,1
0.0005454503,9.020862e-05,8,1
0.0004475628,9.442231e-05,8,1
0.0003200173,9.085688e-05,8,1
0.0001652449,8.939829e-05,8,1
-4.923729e-06,9.555677e-05,8,1
-0.000166827,0.0001080358,8,1
-0.0002964792,0.0001198666,8,1
-0.0003794566,0.0001286181,8,1
-0.0004039285,0.0001352628,8,1
-0.0003682741,0.0001351007,8,1
-0.0002908069,0.0001240803,8,1
-0.0001982676,9.993253e-05,8,1
-0.0001159385,5.974033e-05,8,1
-5.921561e-05,6.258778e-06,8,1
-2.907146e-05,-4.706071e-05,8,1
-1.659243e-05,-8.40116e-05,8,1
-1.092015e-05,-9.260107e-05,8,1
-1.108221e-05,-7.250496e-05,8,1
-1.707863e-05,-4.041603e-05,8,1
-3.21507e-05,-1.497178e-05,8,1
-5.775702e-05,-7.030578e-06,8,1
-9.989401e-05,-1.270286e-05,8,1
-0.0001642339,-2.323711e-05,8,1
-0.0002397564,-3.101625e-05,8,1
-0.0002887001,-2.761287e-05,8,1
-0.0002742763,-1.286493e-05,8,1
-0.0001882196,9.175954e-06,8,1
-5.305713e-05,3.105477e-05,8,1
9.26396e-05,5.017848e-05,8,1
0.0002119197,6.217132e-05,8,1
0.0002809595,6.217132e-05,8,1
0.0003060797,5.017848e-05,8,1
0.0003077003,2.716521e-05,8,1
0.0003106175,-2.330684e-06,8,1
0.0003389789,-3.474375e-05,8,1
0.0004041292,-6.683268e-05,8,1
0.0005029891,-9.568031e-05,8,1
0.000621621,-0.0001169109,8,1
0.0007439804,-0.0001292278,8,1
0.0008551573,-0.000127283,8,1
0.0009431589,-0.0001050801,8,1
0.001005878,-5.953974e-05,8,1
0.001038453,2.04508e-06,8,1
0.00103586,6.606088e-05,8,1
0.0009940475,0.000115977,8,1
0.0009010218,0.0001346145,8,1
0.000752894,0.0001201907,8,1
0.0005754323,8.453633e-05,8,1
0.0004140152,4.564065e-05,8,1
0.0003073762,1.938607e-05,8,1
0.0002652392,2.855407e-06,8,1
0.0002654013,-2.761287e-05,8,1
0.0002752873,-9.730096e-05,8,1
0.0002710735,-0.0002063709,8,1
0.0002457913,-0.0003271096,8,1
0.0002090025,-0.0004215936,8,1
0.0001795066,-0.0004632444,8,1
0.0001785342,-0.0004493068,8,1
0.0002091646,-0.0003969597,8,1
0.0002576221,-0.0003290543,8,1
0.000302028,-0.0002583939,8,1
0.0003333067,-0.000181737,8,1
0.0003532407,-9.227693e-05,8,1
0.0003652335,1.630683e-05,8,1
0.0003666921,0.0001318594,8,1
0.000351458,0.0002284504,8,1
0.0003196932,0.0002791768,8,1
0.0002856594,0.0002726942,8,1
0.0002632944,0.0002111094,8,1
0.0002516257,0.0001057669,8,1
0.0002422259,-2.599222e-05,8,1
0.0002162954,-0.0001614788,8,1
0.0001467694,-0.0002692523,8,1
1.112074e-05,-0.0003238683,8,1
-0.0001880575,-0.000305879,8,1
-0.0004235384,-0.0001938919,8,1
-0.0006588572,2.684107e-05,8,1
-0.0008593319,0.0003399513,8,1
-0.0009964393,0.0006917953,8,1
-0.001060779,0.00102014,8,1
-0.001061427,0.001275555,8,1
-0.001020587,0.00143989,8,1
-0.0009596504,0.001526109,8,1
-0.0008949863,0.001569866,8,1
-0.000836967,0.001584452,8,1
-0.0007904542,0.001556415,8,1
-0.0007525309,0.001448966,8,1
-0.0007197938,0.001231635,8,1
-0.0006932151,0.0009053976,8,1
-0.000680736,0.000517575,8,1
-0.0006825188,0.0001461212,8,1
-0.0006927288,-0.0001298761,8,1
-0.0006966184,-0.0002627696,8,1
-0.0006867325,-0.0002579077,8,1
-0.0006679329,-0.0001705545,8,1
-0.0006481609,-6.942573e-05,8,1
-0.0006264441,-1.034161e-06,8,1
-0.0005982448,2.586868e-05,8,1
-0.0005599973,2.39239e-05,8,1
-0.0005091089,-3.858999e-07,8,1
-0.0004478482,-5.419158e-05,8,1
-0.0003838324,-0.0001449482,8,1
-0.0003233821,-0.0002601766,8,1
-0.0002702246,-0.0003716775,8,1
-0.0002224154,-0.0004517378,8,1
-0.0001713648,-0.0004852853,8,1
-0.0001086455,-0.0004773441,8,1
-3.296103e-05,-0.0004467137,8,1
4.466826e-05,-0.0004104111,8,1
0.0001070634,-0.0003801049,8,1
0.0001430419,-0.0003616295,8,1
0.0001511452,-0.0003551469,8,1
0.0001401247,-0.0003595226,8,1
0.0001200286,-0.0003724878,8,1
9.507057e-05,-0.0003906392,8,1
6.897806e-05,-0.0004058733,8,1
4.320967e-05,-0.0004105732,8,1
1.857574e-05,-0.0003966356,8,1
-2.978945e-06,-0.0003671397,8,1
-2.015787e-05,-0.000328082,8,1
-2.356124e-05,-0.0002852967,8,1
-9.785688e-06,-0.0002491561,8,1
1.938607e-05,-0.0002250084,8,1
5.52025e-05,-0.000211557,8,1
8.356394e-05,-0.0002052365,8,1
8.956036e-05,-0.0002018331,8,1
7.092284e-05,-0.0002052365,8,1
3.60788e-05,-0.0002233878,8,1
-6.176923e-08,-0.0002639041,8,1
-2.015787e-05,-0.0003303509,8,1
-1.286493e-05,-0.0004194868,8,1
2.165498e-05,-0.0005189948,8,1
7.497447e-05,-0.0006139652,8,1
0.0001291043,-0.0006907841,8,1
0.0001662173,-0.0007397278,8,1
0.0001808031,-0.0007586894,8,1
0.0001769136,-0.0007484793,8,1
0.0001670276,-0.000705532,8,1
0.0001633001,-0.0006267683,8,1
0.0001699448,-0.0005155915,8,1
0.0001913374,-0.0003830221,8,1
0.0002292607,-0.0002442942,8,1
0.0002803113,-0.0001139937,8,1
0.0003378445,-5.57199e-06,8,1
0.0003965121,7.740546e-05,8,1
0.0004512903,0.0001398006,8,1
0.0004901859,0.0001819376,8,1
0.0005029891,0.0002059233,8,1
0.0004909963,0.0002094887,8,1
0.0004647417,0.0001970097,8,1
0.0004289252,0.0001746447,8,1
0.0003785229,0.0001496866,8,1
0.0003102934,0.0001260251,8,1
0.0002312055,0.0001046324,8,1
0.0001595726,8.84259e-05,8,1
0.0001250527,8.42122e-05,8,1
0.0001548727,9.733949e-05,8,1
0.0002477361,0.0001278078,8,1
0.000373823,0.000168,8,1
0.0004908342,0.000207706,8,1
0.0005648981,0.0002389846,8,1
0.000564736,0.0002608634,8,1
0.0004720346,0.0002782044,8,1
0.0002728562,0.0002931144,8,1
-1.335113e-05,0.0003049452,8,1
-0.0003403989,0.0003120761,8,1
-0.0006554538,0.0003107795,8,1
-0.0009095722,0.0002976523,8,1
-0.00105689,0.0002743149,8,1
-0.001064507,0.0002530843,8,1
-0.0009291821,0.0002454672,8,1
-0.0006857601,0.0002542187,8,1
-0.0003862634,0.0002702632,8,1
-7.056019e-05,0.000272208,8,1
0.0002391467,0.0002446569,8,1
0.000532647,0.0001918236,8,1
0.0008070238,0.0001305629,8,1
0.001057577,8.340187e-05,8,1
0.001265507,6.346784e-05,8,1
0.001408287,6.719535e-05,8,1
0.001469548,8.226741e-05,8,1
0.001447669,9.879808e-05,8,1
0.001354805,0.0001137081,8,1
0.001211053,0.0001312112,8,1
0.001042829,0.0001537382,8,1
0.0008755776,0.0001799928,8,1
0.0007295565,0.0002021958,8,1
0.0006127074,0.0002111094,8,1
0.0005336195,0.0002041406,8,1
0.0005097958,0.0001825859,8,1
0.00055955,0.0001508211,8,1
0.0006856368,0.0001175977,8,1
0.0008540229,9.004655e-05,8,1
0.0009995577,7.400208e-05,8,1
0.001057415,6.881599e-05,8,1
0.001002961,7.853991e-05,8,1
0.0008455954,0.0001051186,8,1
0.0006065489,0.000145635,8,1
0.0003102934,0.0001973338,8,1
-2.031993e-05,0.0002594049,8,1
-0.0003561192,0.0003271482,8,1
-0.0006596675,0.0003867882,8,1
-0.0009008207,0.0004255218,8,1
-0.001067262,0.0004402698,8,1
-0.001170497,0.0004414042,8,1
-0.001234675,0.0004410801,8,1
-0.001282809,0.0004371906,8,1
-0.001330132,0.0004102877,8,1
-0.00137081,0.0003404375,8,1
-0.001388961,0.0002265056,8,1
-0.001369351,8.826383e-05,8,1
-0.001299663,-4.462973e-05,8,1
-0.001171632,-0.0001481895,8,1
-0.0009906049,-0.0002122053,8,1
-0.0007758683,-0.0002347323,8,1
-0.0005606457,-0.0002203085,8,1
-0.0003804291,-0.0001848162,8,1
-0.0002606628,-0.0001498101,8,1
-0.000211557,-0.0001331174,8,1
-0.0002272773,-0.000142031,8,1
-0.0002865932,-0.0001728234,8,1
-0.0003575778,-0.0002182017,8,1
-0.0004107352,-0.0002635799,8,1
-0.0004339106,-0.0002987481,8,1
-0.0004381243,-0.0003168994,8,1
-0.0004410415,-0.0003225718,8,1
-0.0004525481,-0.000325651,8,1
-0.0004703753,-0.0003352128,8,1
-0.0004852853,-0.0003486642,8,1
-0.0004909576,-0.0003562813,8,1
-0.0005010056,-0.0003494746,8,1
-0.0005321222,-0.0003237062,8,1
-0.0005856037,-0.0002843243,8,1
-0.000643461,-0.0002404046,8,1
-0.0006852738,-0.0001985918,8,1
-0.0006966184,-0.0001609926,8,1
-0.0006640433,-0.0001282554,8,1
-0.0005826865,-9.503204e-05,8,1
-0.0004625961,-6.002594e-05,8,1
-0.0003238683,-2.388537e-05,8,1
-0.0001927574,9.986281e-06,8,1
-8.773911e-05,3.93201e-05,8,1
-1.62683e-05,6.119892e-05,8,1
1.452411e-05,7.400208e-05,8,1
-4.923729e-06,7.886404e-05,8,1
-7.623246e-05,7.67572e-05,8,1
-0.0001749302,6.78436e-05,8,1
-0.0002593663,5.277153e-05,8,1
-0.0002880518,3.462021e-05,8,1
-0.000241377,1.630683e-05,8,1
-0.0001277692,7.485573e-07,8,1
1.160693e-05,-1.140634e-05,8,1
0.0001265113,-2.518189e-05,8,1
0.0001911753,-4.673658e-05,8,1
0.0002062474,-7.542214e-05,8,1
0.0001887444,-0.0001044318,8,1
0.0001647587,-0.0001279313,8,1
0.0001628139,-0.0001428413,8,1
0.0002067336,-0.0001489998,8,1
0.00030689,-0.0001478653,8,1
0.0004418904,-0.0001425172,8,1
0.0005751082,-0.0001363587,8,1
0.0006666752,-0.0001352242,8,1
0.0006955228,-0.0001425172,8,1
0.0006650545,-0.0001556445,8,1
0.0005937457,-0.0001671511,8,1
0.000507689,-0.000171851,8,1
0.000423415,-0.0001702304,8,1
0.0003423823,-0.000161965,8,1
0.0002626462,-0.0001501342,8,1
0.0001945787,-0.0001374932,8,1
0.0001501728,-0.0001290658,8,1
0.0001402868,-0.00012469,8,1
0.000165569,-0.000122259,8,1
0.0002096508,-0.0001149661,8,1
0.0002362295,-9.875954e-05,8,1
0.0002128921,-7.704279e-05,8,1
0.0001378558,-5.500191e-05,8,1
4.628891e-05,-3.668853e-05,8,1
-8.813297e-06,-2.404744e-05,8,1
9.824215e-06,-1.99958e-05,8,1
9.669123e-05,-2.388537e-05,8,1
0.000217592,-2.84232e-05,8,1
0.000344165,-2.437157e-05,8,1
0.0004700898,-9.461558e-06,8,1
0.0005947181,1.322759e-05,8,1
0.0007198326,4.175109e-05,8,1
0.0008507816,7.076078e-05,8,1
0.0009974508,9.426025e-05,8,1
0.001160489,0.0001094944,8,1
0.001325634,0.0001169494,8,1
0.001458203,0.0001213252,8,1
0.001520112,0.0001235941,8,1
0.001499044,0.0001242423,8,1
0.001423521,0.0001257009,8,1
0.00135205,0.000130887,8,1
0.001339085,0.0001414213,8,1
0.001409908,0.0001587623,8,1
0.00154896,0.0001845306,8,1
0.001705191,0.0002209954,8,1
0.001805348,0.000267346,8,1
0.001769207,0.0003182346,8,1
0.001554146,0.0003629646,8,1
0.001176209,0.000393757,8,1
0.0006956849,0.0004078567,8,1
0.0001890685,0.0004117463,8,1
-0.0002767073,0.0004175806,8,1
-0.0006609641,0.0004354078,8,1
-0.0009564091,0.0004645796,8,1
-0.001170821,0.000495372,8,1
-0.001327052,0.000515144,8,1
-0.00145087,0.0005180612,8,1
-0.001556537,0.0004981271,8,1
-0.001647132,0.0004480489,8,1
-0.001715847,0.0003684748,8,1
