EMG1,EMG2,class,user
-0.0007713305,0.0001375317,8,1
-0.000556756,0.0001527658,8,1
-0.0003859393,0.0001339663,8,1
-0.0002449425,8.810177e-05,8,1
-0.0001227452,2.068259e-05,8,1
-2.680255e-05,-5.840528e-05,8,1
3.672706e-05,-0.0001300382,8,1
6.622294e-05,-0.0001697442,8,1
7.448828e-05,-0.0001635857,8,1
7.708133e-05,-0.0001161005,8,1
8.502253e-05,-4.47918e-05,8,1
9.782569e-05,2.667901e-05,8,1
0.0001013911,6.281957e-05,8,1
8.194328e-05,3.445814e-05,8,1
3.024445e-05,-6.051213e-05,8,1
-6.359137e-05,-0.0001874093,8,1
-0.0002079916,-0.0002958309,8,1
-0.0004071698,-0.0003465574,8,1
-0.0006467023,-0.0003366714,8,1
-0.0008844521,-0.0002950206,8,1
-0.001069855,-0.0002548284,8,1
-0.001158018,-0.0002271153,8,1
-0.001133709,-0.0002002124,8,1
-0.001016697,-0.0001618029,8,1
-0.0008439358,-0.0001161005,8,1
-0.0006373025,-7.769106e-05,8,1
-0.0003990665,-7.023606e-05,8,1
-0.0001295519,-9.956988e-05,8,1
0.0001620036,-0.0001512687,8,1
0.0004470765,-0.0001963229,8,1
0.0006721854,-0.000211557,8,1
0.0007590525,-0.0001862748,8,1
0.0006721854,-0.0001287416,8,1
0.0004509661,-4.932962e-05,8,1
0.0001773998,4.110282e-05,8,1
-7.412562e-05,0.0001331559,8,1
-0.0002695764,0.0002221298,8,1
-0.000417542,0.0003046211,8,1
-0.0005262878,0.0003744712,8,1
-0.000583821,0.0004273046,8,1
-0.0005716661,0.0004665244,8,1
-0.0004783165,0.00050542,8,1
-0.0003084721,0.0005530673,8,1
-8.790117e-05,0.0006084936,8,1
0.0001268354,0.0006610029,8,1
0.0002608634,0.0006955228,8,1
0.00027707,0.0007024916,8,1
0.0001937684,0.0006801266,8,1
5.909208e-05,0.0006334517,8,1
-8.012204e-05,0.0005734875,8,1
-0.0001922712,0.0005136854,8,1
-0.0002517492,0.0004707381,8,1
-0.0002287359,0.0004546936,8,1
-9.098041e-05,0.0004652279,8,1
0.0001652449,0.000485324,8,1
0.0004822447,0.0004898618,8,1
0.0007699109,0.0004540453,8,1
0.0009663342,0.0003670162,8,1
0.001070704,0.0002410915,8,1
0.001120459,0.0001141943,8,1
0.001156113,2.181705e-05,8,1
0.001200843,-2.145439e-05,8,1
0.00125789,-2.064406e-05,8,1
0.001318665,1.063454e-05,8,1
0.001369391,5.585077e-05,8,1
0.001388677,0.0001000946,8,1
0.001352374,0.0001344524,8,1
0.001247518,0.000160707,8,1
0.001094528,0.0001848548,8,1
0.0009481829,0.0002120818,8,1
0.0008549952,0.0002444948,8,1
0.0008233925,0.0002759355,8,1
0.0008211235,0.0002961937,8,1
0.0007981102,0.0002927903,8,1
0.0007271256,0.0002624841,8,1
0.0006235657,0.0002021958,8,1
0.00050542,0.0001009049,8,1
0.0003535648,-5.143648e-05,8,1
0.0001265113,-0.0002426735,8,1
-0.0001883817,-0.0004416897,8,1
-0.0005559457,-0.0006178547,8,1
-0.0009178375,-0.0007458862,8,1
-0.001206962,-0.0008094159,8,1
-0.001372431,-0.0008128192,8,1
-0.001392851,-0.0007721409,8,1
-0.001279891,-0.0007063423,8,1
-0.001073096,-0.0006316302,8,1
-0.0008207604,-0.0005536768,8,1
-0.0005753936,-0.0004719959,8,1
-0.0004034423,-0.0003924218,8,1
-0.0003528779,-0.0003178718,8,1
-0.0004185144,-0.0002520733,8,1
-0.0005528665,-0.0002029675,8,1
-0.0007056941,-0.0001870851,8,1
-0.0008457185,-0.0002152845,8,1
-0.0009492782,-0.0002906449,8,1
-0.0009899565,-0.0003946908,8,1
-0.0009590021,-0.0004948471,8,1
-0.0008677593,-0.0005556216,8,1
-0.000727897,-0.0005530285,8,1
-0.0005363359,-0.0004813957,8,1
-0.0002799486,-0.000355471,8,1
5.779555e-05,-0.0002057227,8,1
0.0004752759,-6.537409e-05,8,1
0.000945914,4.483033e-05,8,1
0.001413635,0.0001214872,8,1
0.0018047,0.0001722137,8,1
0.00205023,0.000202844,8,1
0.002112301,0.0002059233,8,1
0.002005986,0.0001621656,8,1
0.001794003,6.589881e-05,8,1
0.001560467,-7.18567e-05,8,1
0.001368743,-0.0002217671,8,1
0.001221263,-0.0003540124,8,1
0.00106876,-0.000452386,8,1
0.0008658536,-0.0005031124,8,1
0.0006039558,-0.0005018159,8,1
0.0003089969,-0.0004452552,8,1
2.01964e-05,-0.0003348887,8,1
-0.0002254946,-0.0001776853,8,1
-0.0004152731,-1.844488e-06,8,1
-0.0005622663,0.0001537382,8,1
-0.0006928909,0.0002684805,8,1
-0.0008374532,0.0003405996,8,1
-0.001024314,0.0003743092,8,1
-0.001254771,0.0003692851,8,1
-0.001497059,0.0003331446,8,1
-0.001702882,0.0002809595,8,1
-0.001830427,0.0002282883,8,1
-0.001845662,0.0001840444,8,1
-0.001726381,0.0001514693,8,1
-0.00147907,0.0001292664,8,1
-0.001154291,0.0001195424,8,1
-0.0008205983,0.0001224596,8,1
-0.0005415219,0.0001352628,8,1
-0.0003635742,0.0001569795,8,1
-0.0002929138,0.000185503,8,1
-0.0003165753,0.000215161,8,1
-0.0004134903,0.0002394708,8,1
-0.0005525423,0.0002561635,8,1
-0.000695646,0.0002670219,8,1
-0.0008186536,0.0002712356,8,1
-0.0009257787,0.0002681563,8,1
-0.001017508,0.0002610255,8,1
-0.001074555,0.000254867,8,1
-0.001062886,0.0002482223,8,1
-0.0009585159,0.000232502,8,1
-0.0007641996,0.0002020337,8,1
-0.000512026,0.0001633001,8,1
-0.0002540181,0.0001274836,8,1
-3.182657e-05,0.000106091,8,1
0.0001399627,0.0001013911,8,1
0.000264753,0.0001120874,8,1
0.0003618301,0.000130725,8,1
0.000463121,0.0001542244,8,1
0.0006016869,0.0001812893,8,1
0.0007866036,0.00021273,8,1
0.0009943716,0.0002517878,8,1
0.001180423,0.000299597,8,1
0.001292572,0.000341572,8,1
0.001292248,0.0003584268,8,1
0.001182043,0.000331848,8,1
0.001005716,0.0002628082,8,1
0.0008267959,0.0001718896,8,1
0.0006963331,8.875003e-05,8,1
0.0006229175,3.575467e-05,8,1
0.0005812666,1.760335e-05,8,1
0.0005350781,2.068259e-05,8,1
0.0004658761,2.635488e-05,8,1
0.0003807918,2.084466e-05,8,1
0.0002979764,2.693341e-06,8,1
0.000220023,-2.485776e-05,8,1
0.00013818,-5.775702e-05,8,1
4.256141e-05,-9.454585e-05,8,1
-6.245691e-05,-0.0001313347,8,1
-0.0001600202,-0.0001639098,8,1
-0.0002334358,-0.0001921092,8,1
-0.0002776796,-0.0002204706,8,1
-0.0002995585,-0.0002556388,8,1
-0.0003052308,-0.0002948586,8,1
-0.0003013411,-0.0003251648,8,1
-0.0002955068,-0.0003339163,8,1
-0.000298424,-0.0003217614,8,1
-0.0003168994,-0.0002953447,8,1
-0.0003449367,-0.0002642282,8,1
-0.0003682741,-0.0002392702,8,1
-0.0003569296,-0.0002332737,8,1
-0.0002723315,-0.0002564491,8,1
-8.579432e-05,-0.0003052308,8,1
0.0001833962,-0.0003656811,8,1
0.0004657141,-0.000420135,8,1
0.0006725095,-0.0004565997,8,1
0.0007420356,-0.0004666478,8,1
0.0006634339,-0.0004575721,8,1
0.0004736553,-0.0004580583,8,1
0.0002318537,-0.0004992229,8,1
-3.858999e-07,-0.0005844692,8,1
-0.0001848162,-0.0006836532,8,1
-0.0003149546,-0.000760148,8,1
-0.0003987424,-0.0007862405,8,1
-0.0004428242,-0.0007583653,8,1
-0.0004486585,-0.0006945116,8,1
-0.0004152731,-0.0006196374,8,1
-0.0003339163,-0.0005502735,8,1
-0.0002063709,-0.0004859335,8,1
-5.856735e-05,-0.0004138145,8,1
7.059871e-05,-0.0003253268,8,1
0.0001498487,-0.0002272773,8,1
0.0001694586,-0.0001319829,8,1
0.0001278078,-5.176061e-05,8,1
2.829966e-05,7.393236e-06,8,1
-0.0001135075,4.466826e-05,8,1
-0.0002645523,6.670914e-05,8,1
-0.0003838324,9.231547e-05,8,1
-0.0004321279,0.0001412592,8,1
-0.0003937184,0.0002243987,8,1
-0.0002877277,0.0003388169,8,1
-0.000164396,0.0004817585,8,1
-7.947377e-05,0.0006486859,8,1
-6.39155e-05,0.0008361956,8,1
-0.0001167488,0.001034726,8,1
-0.0002123673,0.001231798,8,1
-0.0003138202,0.001413797,8,1
-0.0003904771,0.001567436,8,1
-0.0004319658,0.001681854,8,1
-0.0004439586,0.001748301,8,1
-0.0004309934,0.001752677,8,1
-0.0004049009,0.001673102,8,1
-0.0003801049,0.001491751,8,1
-0.0003682741,0.00121867,8,1
-0.0003648708,0.0008942151,8,1
-0.0003645466,0.0005785116,8,1
-0.000370381,0.0003320101,8,1
-0.0003789705,0.0001937684,8,1
-0.0003698948,0.0001678379,8,1
-0.0003193304,0.0002218057,8,1
-0.0002024813,0.0003057555,8,1
-1.25408e-05,0.0003720403,8,1
0.0002273159,0.0003867882,8,1
0.0004718725,0.0003328204,8,1
0.0006721854,0.0002054371,8,1
0.0007968137,1.338965e-05,8,1
0.0008549952,-0.0002250084,8,1
0.0008885428,-0.0004815578,8,1
0.0009272764,-0.0007160662,8,1
0.0009796236,-0.0008898003,8,1
0.001049636,-0.0009847705,8,1
0.001136665,-0.001003732,8,1
0.001226774,-0.0009724535,8,1
0.001306186,-0.0009246443,8,1
0.001363071,-0.0008855865,8,1
0.001381222,-0.0008604664,8,1
0.001360154,-0.0008415048,8,1
0.001315261,-0.0008158985,8,1
0.001275555,-0.000772627,8,1
0.001275555,-0.000708125,8,1
0.001346054,-0.0006298475,8,1
0.001508444,-0.000549301,8,1
0.001753973,-0.0004864197,8,1
0.002035482,-0.0004546549,8,1
0.002268046,-0.0004541688,8,1
0.002347945,-0.0004786406,8,1
0.002195927,-0.0005183466,8,1
0.001807941,-0.000554001,8,1
0.001250921,-0.0005700454,8,1
0.0006300483,-0.0005562698,8,1
3.802358e-05,-0.0005133225,8,1
-0.0004611376,-0.0004465517,8,1
-0.0008311326,-0.0003583881,8,1
-0.001066451,-0.0002546664,8,1
-0.001188325,-0.0001417068,8,1
-0.001240834,-3.166451e-05,8,1
-0.001272112,5.795762e-05,8,1
-0.001312304,0.0001104668,8,1
-0.00137081,0.0001226217,8,1
-0.001448926,0.0001015532,8,1
-0.001550379,6.281957e-05,8,1
-0.001671279,2.34377e-05,8,1
-0.001797042,4.244267e-07,8,1
-0.001907409,4.244267e-07,8,1
-0.001988279,9.986281e-06,8,1
-0.00202912,4.151929e-06,8,1
-0.002018261,-3.409549e-05,8,1
-0.001947277,-9.794922e-05,8,1
-0.00182281,-0.0001609926,8,1
-0.001676465,-0.0001937298,8,1
-0.001536117,-0.0001812508,8,1
-0.001409382,-0.0001295519,8,1
-0.00129545,-5.516398e-05,8,1
-0.001187838,2.149292e-05,8,1
-0.001095785,8.907416e-05,8,1
-0.001044573,0.0001441764,8,1
-0.001030311,0.0001856651,8,1
-0.0009966013,0.0002167816,8,1
-0.0008833176,0.0002410915,8,1
-0.0006727948,0.0002652392,8,1
-0.0003925839,0.0002983005,8,1
-9.827335e-05,0.0003477304,8,1
0.0001571416,0.0004170944,8,1
0.0003512959,0.0004888894,8,1
0.0004961824,0.0005253541,8,1
0.0006235657,0.0005026649,8,1
0.0007640765,0.0004300596,8,1
0.0009227386,0.0003422202,8,1
0.001069408,0.0002824181,8,1
0.001152223,0.0002791768,8,1
0.001143148,0.0003412479,8,1
0.001068435,0.0004540453,8,1
0.0009914545,0.0005942319,8,1
0.0009619584,0.0007383081,8,1
0.0009796236,0.0008635847,8,1
0.001004582,0.0009527208,8,1
0.0009899958,0.0009992336,8,1
0.000906532,0.0009997197,8,1
0.0007349047,0.000953369,8,1
0.0004634451,0.0008622882,8,1
0.0001086841,0.0007371737,8,1
-0.000276221,0.0005961767,8,1
-0.000638599,0.0004576108,8,1
-0.0009474955,0.0003368721,8,1
-0.00118638,0.0002428742,8,1
-0.001341638,0.0001822617,8,1
-0.001394796,0.0001594105,8,1
-0.001337263,0.0001733481,8,1
-0.001184273,0.0002125679,8,1
-0.0009664571,0.0002594049,8,1
-0.0007115284,0.0002898731,8,1
-0.0004382863,0.0002903593,8,1
-0.0001598582,0.0002769079,8,1
0.0001106288,0.0002798251,8,1
0.0003626405,0.0003203414,8,1
0.0006046041,0.0003953777,8,1
0.0008553194,0.0004741415,8,1
0.001130831,0.0005107683,8,1
0.001438917,0.0004770586,8,1
0.001768397,0.0003775505,8,1
0.002102415,0.000242388,8,1
0.002416661,0.0001073875,8,1
0.002667215,-2.238346e-07,8,1
0.002792493,-7.088431e-05,8,1
0.002738524,-0.0001120489,8,1
0.002480515,-0.0001465688,8,1
0.002037102,-0.0002050744,8,1
0.001469224,-0.0003065273,8,1
0.0008682846,-0.0004467137,8,1
0.0003253654,-0.0006006758,8,1
-9.146661e-05,-0.0007376209,8,1
-0.0003588744,-0.0008351842,8,1
-0.0004893369,-0.0008896381,8,1
-0.0005063537,-0.0009048723,8,1
-0.0004352071,-0.0008907726,8,1
-0.0003091203,-0.0008607905,8,1
-0.0001762268,-0.0008233535,8,1
-8.887356e-05,-0.0007834854,8,1
-8.206682e-05,-0.0007454,8,1
-0.0001708786,-0.0007053699,8,1
-0.0003621157,-0.0006612882,8,1
-0.0006400577,-0.0006074825,8,1
-0.0009627296,-0.0005486528,8,1
-0.001284105,-0.0004924161,8,1
-0.001563506,-0.0004467137,8,1
-0.001756364,-0.0004112214,8,1
-0.001834317,-0.0003854531,8,1
-0.001800932,-0.0003661673,8,1
-0.001678896,-0.00035304,8,1
-0.001498842,-0.000358064,8,1
-0.001293505,-0.0004019837,8,1
-0.001093354,-0.0005001953,8,1
-0.0009207547,-0.0006398956,8,1
-0.0007815406,-0.0007836475,8,1
-0.0006711741,-0.000894176,8,1
-0.0005830107,-0.000939068,8,1
-0.0005121881,-0.0009040619,8,1
-0.000449793,-0.0007938576,8,1
-0.0003929081,-0.0006282268,8,1
-0.0003373197,-0.0004327761,8,1
-0.0002705488,-0.0002342462,8,1
-0.0001763888,-5.581224e-05,8,1
-5.127441e-05,8.178122e-05,8,1
9.669123e-05,0.0001649207,8,1
0.0002529222,0.0001947408,8,1
0.000398619,0.0001869616,8,1
0.0005059062,0.000165569,8,1
0.0005542018,0.0001461212,8,1
0.0005394538,0.0001341283,8,1
0.0004765725,0.0001278078,8,1
0.0003931088,0.0001294284,8,1
0.0003164518,0.0001433661,8,1
0.0002652392,0.0001718896,8,1
0.0002419018,0.0002242366,8,1
0.0002363916,0.0003130485,8,1
0.0002414156,0.0004448076,8,1
0.0002521119,0.0006034696,8,1
0.0002668598,0.0007572698,8,1
0.0002859836,0.000884167,8,1
0.0003085106,0.0009878889,8,1
0.0003224483,0.001081239,8,1
0.0003015418,0.001164865,8,1
0.0002243987,0.001225639,8,1
9.474644e-05,0.001237308,8,1
-5.953974e-05,0.00117394,8,1
-0.0002073433,0.001036833,8,1
-0.0003259751,0.0008647192,8,1
-0.0004049009,0.0007044364,8,1
-0.0004436345,0.0005773771,8,1
-0.0004494688,0.0004733311,8,1
-0.0004337485,0.0003749574,8,1
-0.0004121938,0.0002681563,8,1
-0.0004011734,0.0001513072,8,1
-0.0004191627,3.299956e-05,8,1
-0.0004841508,-7.704279e-05,8,1
-0.0006027826,-0.0001783336,8,1
-0.0007567446,-0.0002794623,8,1
-0.0009021172,-0.0003856151,8,1
-0.0009873635,-0.000482206,8,1
-0.000973588,-0.0005480045,8,1
-0.0008591699,-0.0005695592,8,1
-0.0006705259,-0.0005457356,8,1
-0.0004465517,-0.0004909576,8,1
-0.000221605,-0.0004240246,8,1
-1.075808e-05,-0.000360495,8,1
0.0001897167,-0.0003136581,8,1
0.0003960259,-0.0002865932,8,1
0.000611735,-0.0002700626,8,1
0.0008160995,-0.0002558008,8,1
0.0009744375,-0.0002345703,8,1
0.001059846,-0.0001985918,8,1
0.001073135,-0.0001459206,8,1
0.001038129,-8.012204e-05,8,1
0.0009865924,-7.678839e-06,8,1
0.0009428347,6.654708e-05,8,1
0.0009028045,0.0001325077,8,1
0.0008233925,0.0001885823,8,1
0.0006525755,0.0002337985,8,1
0.0003756057,0.0002676702,8,1
3.332369e-05,0.00029198,8,1
-0.0002989102,0.0003115899,8,1
-0.0005502735,0.0003307136,8,1
-0.0006843015,0.0003435168,8,1
-0.0006975908,0.0003363859,8,1
-0.0006128307,0.0002960316,8,1
-0.0004778303,0.0002185644,8,1
-0.0003692465,0.0001096565,8,1
-0.0003548227,-1.25408e-05,8,1
-0.0004379622,-0.0001256624,8,1
-0.0005507597,-0.0002146363,8,1
-0.000608617,-0.0002741142,8,1
-0.0005655076,-0.0003079858,8,1
-0.0004292107,-0.0003266234,8,1
-0.0002332737,-0.0003392644,8,1
-6.706447e-06,-0.0003507711,8,1
0.0002303951,-0.0003585502,8,1
0.0004700898,-0.0003614674,8,1
0.000710757,-0.0003661673,8,1
0.0009425106,-0.0003801049,8,1
0.001152223,-0.0004143007,8,1
0.001323203,-0.000474589,8,1
0.001436,-0.0005484907,8,1
0.001487051,-0.0006144513,8,1
0.001486079,-0.0006536711,8,1
0.001453179,-0.0006552918,8,1
0.001404397,-0.0006240131,8,1
0.001339733,-0.0005776625,8,1
0.001236822,-0.0005316359,8,1
0.001072487,-0.000489499,8,1
0.0008561297,-0.0004444448,8,1
0.0006297242,-0.0003846427,8,1
0.0004615004,-0.0003002067,8,1
0.0004235771,-0.000191623,8,1
0.0005606844,-6.91016e-05,8,1
0.000866826,5.325772e-05,8,1
0.001266156,0.0001668655,8,1
0.001644255,0.0002701012,8,1
0.001889136,0.0003655576,8,1
0.001915553,0.0004585832,8,1
0.001683475,0.0005563086,8,1
0.001221425,0.0006545202,8,1
0.0006251864,0.0007459252,8,1
1.063454e-05,0.000837168,8,1
-0.0005222362,0.000938621,8,1
-0.0009123273,0.001050122,8,1
-0.001139219,0.001161947,8,1
-0.001208096,0.001262752,8,1
-0.001152832,0.001351888,8,1
-0.001029014,0.001433893,8,1
-0.0008932036,0.001507147,8,1
-0.0007833233,0.001542802,8,1
-0.0007231971,0.001495316,8,1
-0.0007248178,0.00132612,8,1
-0.0007818647,0.00103035,8,1
-0.0008680834,0.0006520892,8,1
-0.0009513851,0.0002629703,8,1
-0.000996115,-6.926366e-05,8,1
-0.0009758569,-0.0003102548,8,1
-0.0008896381,-0.0004650271,8,1
-0.0007672789,-0.0005656697,8,1
-0.0006523746,-0.0006447575,8,1
-0.0005734488,-0.000722873,8,1
-0.0005316359,-0.0008027712,8,1
-0.0005084606,-0.000876835,8,1
-0.0004873921,-0.0009319372,8,1
-0.0004813957,-0.0009510609,8,1
-0.0005261258,-0.0009275614,8,1
-0.0006478368,-0.000874404,8,1
-0.0008308084,-0.0008201121,8,1
-0.001025287,-0.0007935334,8,1
-0.00117617,-0.0008120089,8,1
-0.001253799,-0.0008734317,8,1
-0.001256716,-0.0009659709,8,1
-0.001200642,-0.001079255,8,1
-0.00110324,-0.001197724,8,1
-0.0009771534,-0.001298205,8,1
-0.0008379394,-0.001351848,8,1
-0.0007056941,-0.001333211,8,1
-0.0005954896,-0.001229165,8,1
-0.0005078124,-0.001039549,8,1
-0.0004303451,-0.0007789475,8,1
-0.0003528779,-0.0004810716,8,1
-0.0002818933,-0.0002011848,8,1
-0.0002391081,1.193106e-05,8,1
-0.0002496423,0.0001370455,8,1
-0.0003314853,0.00018291,8,1
-0.0004776682,0.0001783722,8,1
-0.0006463782,0.0001503349,8,1
-0.0007737615,0.0001175977,8,1
-0.0007988816,8.080883e-05,8,1
-0.0006945116,1.744129e-05,8,1
-0.0004711856,-8.563225e-05,8,1
-0.0001558065,-0.0002169052,8,1
0.0002161334,-0.0003459091,8,1
0.0005846701,-0.000447362,8,1
0.0008723363,-0.0005047331,8,1
0.001013171,-0.0005159156,8,1
0.0009754099,-0.0004860956,8,1
0.0007856312,-0.0004230522,8,1
0.0005253541,-0.0003468815,8,1
0.0002833905,-0.0002776796,8,1
0.0001128978,-0.00021415,8,1
3.073064e-05,-0.0001350622,8,1
4.223728e-05,-2.307504e-05,8,1
0.0001493625,0.0001281319,8,1
0.0003358997,0.0003067279,8,1
0.0005417228,0.0004892136,8,1
0.0006775336,0.0006595443,8,1
0.0006823955,0.0008162616,8,1
0.0005741358,0.0009692514,8,1
0.0004297355,0.001126941,8,1
0.0003311998,0.001289169,8,1
0.0003106175,0.001443293,8,1
0.0003548613,0.001573594,8,1
0.0004521006,0.001659975,8,1
0.0005909906,0.001686878,8,1
0.000755325,0.001650737,8,1
0.0009256558,0.001568084,8,1
0.0010955,0.001469872,8,1
0.001277824,0.001388029,8,1
0.001482675,0.00133714,8,1
0.00168623,0.001299703,8,1
0.00184554,0.001236497,8,1
0.001914256,0.001108628,8,1
0.001849106,0.0009044252,8,1
0.001624807,0.0006441481,8,1
0.001240063,0.0003733368,8,1
0.0007237222,0.000145635,8,1
0.0001329939,-5.734056e-06,8,1
-0.0004416897,-7.898758e-05,8,1
-0.0008962828,-9.422172e-05,8,1
-0.001164501,-7.461182e-05,8,1
-0.00124683,-4.138842e-05,8,1
-0.001204207,-1.010982e-05,8,1
-0.00111264,1.274139e-05,8,1
-0.001026745,2.34377e-05,8,1
-0.0009554367,1.64689e-05,8,1
-0.000871811,-1.416145e-05,8,1
-0.0007301659,-6.116039e-05,8,1
-0.0004976023,-0.000104918,8,1
-0.0001721751,-0.0001261486,8,1
0.0002235884,-0.0001159385,8,1
0.0006686199,-7.623246e-05,8,1
0.001146065,-1.983374e-05,8,1
0.001610383,3.008238e-05,8,1
0.001985889,6.087479e-05,8,1
0.002200141,6.557468e-05,8,1
0.002211485,4.888196e-05,8,1
0.00202203,1.841368e-05,8,1
0.001678289,-2.339918e-05,8,1
0.001247356,-8.093236e-05,8,1
0.0007990826,-0.000166989,8,1
0.0003850055,-0.0002869174,8,1
1.97102e-05,-0.0004298589,8,1
-0.0003206269,-0.0005736109,8,1
-0.0006695535,-0.0006912703,8,1
-0.001039549,-0.0007598239,8,1
-0.001412137,-0.0007697099,8,1
-0.001742426,-0.000732759,8,1
-0.001989738,-0.0006877048,8,1
-0.002134138,-0.0006774947,8,1
-0.002179516,-0.0007214144,8,1
-0.002141269,-0.0008050401,8,1
-0.002031551,-0.0008872072,8,1
-0.001852144,-0.0009212409,8,1
-0.001613908,-0.0008727834,8,1
-0.00134569,-0.0007366485,8,1
-0.001105833,-0.0005330946,8,1
-0.0009476576,-0.0002964792,8,1
-0.0008868831,-6.197072e-05,8,1
-0.0008919071,0.0001331559,8,1
-0.0009194582,0.0002568118,8,1
-0.00094393,0.0002976523,8,1
-0.0009500885,0.000267184,8,1
-0.0009265891,0.0001867996,8,1
-0.0008552803,8.46984e-05,8,1
-0.0007243316,-1.513384e-05,8,1
-0.0005301774,-0.0001007043,8,1
-0.0002828657,-0.0001699062,8,1
-1.520357e-06,-0.0002182017,8,1
0.0002830664,-0.0002408908,8,1
0.0005281092,-0.0002310048,8,1
0.0006947125,-0.000186761,8,1
0.0007692626,-0.0001159385,8,1
0.0007759072,-3.587821e-05,8,1
0.000755325,2.01964e-05,8,1
0.0007362012,2.34377e-05,8,1
0.0007323117,-3.555408e-05,8,1
0.0007587284,-0.0001486757,8,1
0.0008360335,-0.0002945344,8,1
0.0009797857,-0.0004408794,8,1
0.001191767,-0.00055157,8,1
0.001446048,-0.000598893,8,1
0.001678289,-0.0005695592,8,1
0.001814748,-0.0004711856,8,1
0.001811182,-0.0003326198,8,1
0.001660137,-0.0001778474,8,1
0.001382194,-1.886135e-05,8,1
0.001011713,0.0001363972,8,1
0.0005879114,0.0002731804,8,1
0.0001610312,0.0003772264,8,1
-0.0002172293,0.000443187,8,1
-0.0005029504,0.000470576,8,1
-0.000680574,0.0004665244,8,1
-0.0007716547,0.0004469145,8,1
-0.0008228673,0.0004276287,8,1
-0.0008807246,0.0004219564,8,1
-0.000976019,0.0004341113,8,1
-0.001103726,0.0004713863,8,1
-0.001217496,0.0005240576,8,1
-0.00126255,0.0005712186,8,1
-0.001207124,0.0005939078,8,1
-0.001053972,0.00058937,8,1
-0.0008431255,0.0005733255,8,1
-0.0006355198,0.000569598,8,1
-0.0004781544,0.0005819149,8,1
-0.0003848048,0.0005838597,8,1
-0.0003345645,0.0005396159,8,1
-0.0002953447,0.0004336251,8,1
-0.0002468872,0.0002704253,8,1
-0.0001877334,7.740546e-05,8,1
-0.0001280934,-0.0001026491,8,1
-6.958779e-05,-0.0002292221,8,1
-9.947754e-06,-0.0002867553,8,1
4.628891e-05,-0.0002974516,8,1
8.923623e-05,-0.0003006929,8,1
9.993253e-05,-0.0003204649,8,1
6.200925e-05,-0.0003590364,8,1
-2.453363e-05,-0.0003989045,8,1
-0.000147055,-0.0004130042,8,1
-0.0002877277,-0.0003797808,8,1
-0.0004314796,-0.0003050687,8,1
-0.0005603215,-0.0002180396,8,1
-0.000650754,-0.0001436516,8,1
-0.0006810602,-9.29252e-05,8,1
-0.0006471885,-6.245691e-05,8,1
-0.0005637249,-4.398147e-05,8,1
-0.0004439586,-3.328516e-05,8,1
-0.0002875656,-3.798505e-05,8,1
-9.66527e-05,-7.023606e-05,8,1
0.0001080358,-0.0001259865,8,1
0.0002872801,-0.0001880575,8,1
0.0004145014,-0.0002334358,8,1
0.0004919686,-0.0002483458,8,1
0.0005376711,-0.0002337599,8,1
0.0005762426,-0.0002006986,8,1
0.0006143281,-0.0001611547,8,1
0.0006399344,-0.0001199901,8,1
0.0006306967,-7.444975e-05,8,1
0.0005507984,-2.0482e-05,8,1
0.0003696093,3.948217e-05,8,1
9.896015e-05,9.814982e-05,8,1
-0.0002152845,0.0001521176,8,1
-0.0005272602,0.000200251,8,1
-0.0008137916,0.0002407673,8,1
-0.001051379,0.0002741528,8,1
-0.001214093,0.0002973281,8,1
-0.001287184,0.0003025142,8,1
-0.001268223,0.0002782044,8,1
-0.001150887,0.000220023,8,1
-0.0009246443,0.0001354248,8,1
-0.0005984068,3.786152e-05,8,1
-0.0002081536,-5.095028e-05,8,1
0.0001983062,-0.0001118868,8,1
0.0005644119,-0.0001361966,8,1
0.0008384645,-0.0001287416,8,1
0.001003771,-0.0001020008,8,1
0.001088856,-7.023606e-05,8,1
0.00115741,-4.252288e-05,8,1
0.001280417,-2.323711e-05,8,1
0.001495965,-1.432352e-05,8,1
0.00178509,-1.367526e-05,8,1
0.00209577,-1.448558e-05,8,1
0.002372093,-9.137427e-06,8,1
0.002562196,6.90704e-06,8,1
0.002644202,3.056858e-05,8,1
0.002639826,5.504044e-05,8,1
0.002593637,7.983644e-05,8,1
0.002545503,0.0001072255,8,1
0.002524273,0.0001391524,8,1
0.00253821,0.000168162,8,1
0.002563979,0.0001817755,8,1
0.002551662,0.0001759412,8,1
0.002446643,0.00015309,8,1
0.002220399,0.0001187321,8,1
0.001891729,8.226741e-05,8,1
0.001505526,5.536457e-05,8,1
0.001093231,4.855783e-05,8,1
0.0006746164,5.649903e-05,8,1
0.0002735045,6.865393e-05,8,1
-9.000802e-05,7.57848e-05,8,1
-0.0004013355,7.870197e-05,8,1
-0.0006492953,8.226741e-05,8,1
-0.0008295119,8.534666e-05,8,1
-0.0009547884,8.323981e-05,8,1
-0.001052514,6.573675e-05,8,1
-0.001140677,2.570662e-05,8,1
-0.001214417,-3.344723e-05,8,1
-0.001259795,-0.0001044318,8,1
-0.001274381,-0.0001781716,8,1
-0.001276488,-0.0002457528,8,1
-0.00128054,-0.0003000446,8,1
-0.001287671,-0.0003337542,8,1
-0.001295288,-0.0003395886,8,1
-0.001299988,-0.0003217614,8,1
-0.001304363,-0.0002898345,8,1
-0.001306794,-0.0002580697,8,1
-0.001296908,-0.0002394322,8,1
-0.00126093,-0.0002465631,8,1
-0.001195942,-0.0002802727,8,1
-0.001123336,-0.0003326198,8,1
-0.001087358,-0.0003942046,8,1
-0.001129657,-0.0004650271,8,1
-0.001252827,-0.000559187,8,1
-0.001419592,-0.0006770085,8,1
-0.001575337,-0.0007969369,8,1
-0.001677276,-0.0008857486,8,1
-0.001701261,-0.0009191341,8,1
-0.001641459,-0.0008969311,8,1
-0.001516183,-0.0008406945,8,1
-0.001368217,-0.000780082,8,1
-0.001239537,-0.0007283832,8,1
-0.001162718,-0.0006886772,8,1
-0.00116596,-0.0006518884,8,1
-0.001248289,-0.000606348,8,1
-0.001365948,-0.0005462218,8,1
-0.001457515,-0.0004734545,8,1
-0.001471615,-0.0003943667,8,1
-0.00138653,-0.0003152788,8,1
-0.001226572,-0.0002360289,8,1
-0.001044086,-0.0001483515,8,1
-0.000871811,-4.657452e-05,8,1
-0.000705532,7.059871e-05,8,1
-0.0005211017,0.0002031682,8,1
-0.0002955068,0.0003534027,8,1
-2.226472e-05,0.0005208163,8,1
0.0002856594,0.0007015193,8,1
0.0006096281,0.000888867,8,1
0.0009300316,0.001071839,8,1
0.001217374,0.001235525,8,1
0.001446535,0.001374091,8,1
0.001611355,0.001493209,8,1
0.00173258,0.001596607,8,1
0.001826093,0.001678126,8,1
0.001875198,0.001720101,8,1
0.00184554,0.001704867,8,1
0.001707622,0.00162351,8,1
0.001454314,0.001485754,8,1
0.001110897,0.001317206,8,1
0.000718212,0.001149306,8,1
0.0003211517,0.001009768,8,1
-4.106429e-05,0.0009057217,8,1
-0.000343154,0.0008261476,8,1
-0.0005732867,0.0007501388,8,1
-0.0007322728,0.0006571133,8,1
-0.0008379394,0.0005277851,8,1
-0.0009202685,0.0003598854,8,1
-0.001000653,0.0001731861,8,1
-0.0010718,4.47606e-06,8,1
-0.001103888,-0.0001178833,8,1
-0.001066289,-0.000186761,8,1
-0.00094393,-0.0002186879,8,1
-0.0007496137,-0.0002412149,8,1
-0.0005295291,-0.0002776796,8,1
-0.0003421817,-0.0003342404,8,1
-0.0002188499,-0.0004061974,8,1
-0.000151917,-0.0004825302,8,1
-0.0001068628,-0.0005572423,8,1
-4.85193e-05,-0.000628551,8,1
4.661304e-05,-0.0007058561,8,1
0.000187934,-0.0007906163,8,1
0.0003793332,-0.0008687317,8,1
0.0006204865,-0.0009184858,8,1
0.0009041011,-0.0009233478,8,1
0.001200195,-0.0008787798,8,1
0.001449452,-0.0007829992,8,1
0.001585101,-0.0006350336,8,1
0.001563708,-0.0004426621,8,1
0.001377495,-0.0002279256,8,1
0.001049798,-2.0482e-05,8,1
0.0006373413,0.0001517934,8,1
0.0002428742,0.0002749631,8,1
-2.177852e-05,0.0003457857,8,1
-8.287715e-05,0.0003773884,8,1
6.314371e-05,0.0003877606,8,1
0.0003491891,0.0003974845,8,1
0.0006616511,0.0004216323,8,1
0.0008853014,0.0004653899,8,1
0.0009512621,0.0005114165,8,1
0.0008626123,0.0005169268,8,1
0.0006721854,0.0004365423,8,1
0.0004478869,0.0002478982,8,1
0.0002553532,-3.571614e-05,8,1
0.0001305629,-0.0003718396,8,1
8.534666e-05,-0.0007150938,8,1
0.0001224596,-0.001023342,8,1
0.0002261814,-0.001254609,8,1
0.000356482,-0.001381831,8,1
0.0004623107,-0.001400306,8,1
0.000505258,-0.001322839,8,1
0.0004741415,-0.001170335,8,1
0.0003944053,-0.0009653227,8,1
0.0003222862,-0.0007259523,8,1
0.0003196932,-0.0004690787,8,1
0.0004271425,-0.0002122053,8,1
0.0006473894,2.846173e-05,8,1
0.0009344073,0.0002346088,8,1
0.001205705,0.0003824125,8,1
0.001376198,0.0004540453,8,1
0.001387381,0.0004495075,8,1
0.001228232,0.0003830607,8,1
0.0009457519,0.0002751252,8,1
0.0006219451,0.000153252,8,1
0.000329255,5.277153e-05,8,1
0.0001086841,-4.437533e-06,8,1
-3.733679e-05,-1.756482e-05,8,1
-0.0001274451,-3.14101e-06,8,1
-0.0001825473,1.630683e-05,8,1
-0.0002188499,2.068259e-05,8,1
-0.000253856,8.689758e-06,8,1
-0.0003173856,-2.006553e-06,8,1
-0.0004476861,7.717366e-06,8,1
-0.0006578848,4.385793e-05,8,1
-0.0009238339,9.68533e-05,8,1
-0.001184111,0.0001453108,8,1
-0.001372593,0.0001707551,8,1
-0.00144617,0.0001725378,8,1
-0.001404195,0.0001644345,8,1
-0.001289129,0.0001624898,8,1
-0.001155263,0.0001762653,8,1
-0.001040197,0.0002132162,8,1
-0.0009596504,0.0002701012,8,1
-0.0009085998,0.000334117,8,1
-0.0008700282,0.0003846814,8,1
-0.0008257844,0.0004133669,8,1
-0.0007629031,0.0004245494,8,1
-0.0006859221,0.0004251977,8,1
-0.0006099135,0.0004078567,8,1
-0.0005463839,0.0003584268,8,1
-0.0005000332,0.0002689667,8,1
-0.0004663236,0.0001516314,8,1
-0.0004412035,2.959619e-05,8,1
-0.000427428,-7.623246e-05,8,1
-0.0004337485,-0.0001590478,8,1
-0.0004703753,-0.0002175534,8,1
-0.0005360117,-0.000251263,8,1
-0.0006139652,-0.0002580697,8,1
-0.0006786292,-0.0002417012,8,1
-0.0007121767,-0.0002076674,8,1
-0.0007060182,-0.0001637477,8,1
-0.0006646916,-0.0001212866,8,1
-0.0005993792,-9.2439e-05,8,1
-0.000519481,-8.368748e-05,8,1
-0.0004301831,-8.919769e-05,8,1
-0.000345585,-9.681477e-05,8,1
-0.0002804347,-9.568031e-05,8,1
-0.0002451045,-8.530812e-05,8,1
-0.0002348944,-8.320128e-05,8,1
-0.0002297083,-0.0001037836,8,1
-0.0002147983,-0.0001386276,8,1
-0.0001912988,-0.0001611547,8,1
-0.0001707166,-0.0001459206,8,1
-0.0001533756,-8.660465e-05,8,1
-0.0001295519,4.638125e-06,8,1
-8.773911e-05,0.0001104668,8,1
-1.480971e-05,0.0002266676,8,1
9.053275e-05,0.0003525924,8,1
0.0002247229,0.000478031,8,1
0.000381278,0.0005791598,8,1
0.0005436675,0.0006264829,8,1
0.0006763991,0.0005989318,8,1
0.0007460872,0.0005016926,8,1
0.0007420356,0.0003605336,8,1
0.0006898505,0.0002067336,8,1
0.0006362069,7.20573e-05,8,1
0.0006052523,-2.372331e-05,8,1
0.0005892079,-7.542214e-05,8,1
0.0005666808,-9.130454e-05,8,1
0.0005285954,-9.065628e-05,8,1
0.000482893,-8.854943e-05,8,1
0.0004477248,-8.595638e-05,8,1
0.0004456179,-7.007399e-05,8,1
0.0004895377,-3.539201e-05,8,1
0.0005650602,8.203562e-06,8,1
0.0006368551,4.72613e-05,8,1
0.0006833679,7.853991e-05,8,1
0.0007117294,0.0001067393,8,1
0.0007397667,0.0001419075,8,1
0.0007749349,0.0001895547,8,1
0.0008101031,0.0002478982,8,1
0.0008366818,0.0003075383,8,1
0.000854347,0.0003462718,8,1
0.0008687708,0.000341572,8,1
0.0008833567,0.0002790148,8,1
0.0008929186,0.0001598967,8,1
0.0008825464,6.258778e-06,8,1
0.0008386266,-0.000149486,8,1
0.0007587284,-0.000276221,8,1
0.0006504686,-0.000355633,8,1
0.0005307022,-0.0003841565,8,1
0.0004229288,-0.0003689224,8,1
0.0003504856,-0.0003206269,8,1
0.0003133726,-0.0002475355,8,1
0.0002696149,-0.0001455964,8,1
0.0001642725,-9.137427e-06,8,1
-2.631635e-05,0.000160545,8,1
-0.0002796244,0.0003349273,8,1
-0.0005397392,0.000473007,8,1
-0.0007637134,0.0005417228,8,1
-0.0009380957,0.0005311884,8,1
-0.001072124,0.0004509661,8,1
-0.001182814,0.0003203414,8,1
-0.00127195,0.0001660552,8,1
-0.001318301,7.555301e-06,8,1
-0.00130177,-0.0001361966,8,1
-0.001225924,-0.000253856,8,1
-0.001121067,-0.0003407231,8,1
-0.001038738,-0.0004010113,8,1
-0.001022532,-0.0004431483,8,1
-0.001068072,-0.0004775062,8,1
-0.001127226,-0.0005204534,8,1
-0.001136626,-0.0005810658,8,1
-0.001052352,-0.0006549676,8,1
-0.0008617629,-0.0007285453,8,1
-0.0005831727,-0.0007889956,8,1
-0.0002553146,-0.0008325911,8,1
6.638502e-05,-0.0008557665,8,1
0.0003358997,-0.0008554424,8,1
0.0005365367,-0.0008265948,8,1
0.0006726716,-0.000767603,8,1
0.0007541905,-0.0006778188,8,1
0.0007927621,-0.000559187,8,1
0.0008037825,-0.0004180282,8,1
0.0007932483,-0.0002635799,8,1
0.0007519216,-0.0001013526,8,1
0.0006823955,6.687121e-05,8,1
0.0005986077,0.0002427121,8,1
0.0005285954,0.0004350837,8,1
0.0005114165,0.0006506307,8,1
0.0005665187,0.0008592089,8,1
0.0006979538,0.0009990715,8,1
0.000889029,0.001013333,8,1
0.0011049,0.00089146,8,1
0.001297434,0.0006734819,8,1
0.001421414,0.0004222805,8,1
0.001450424,0.0001910133,8,1
0.001383815,6.420843e-06,8,1
0.001244115,-0.0001263107,8,1
0.001069894,-0.0002144742,8,1
0.0009031286,-0.0002705488,8,1
0.0007665075,-0.0003031239,8,1
0.0006524134,-0.0003190063,8,1
0.0005290816,-0.0003230579,8,1
0.0003657197,-0.000315765,8,1
0.0001513072,-0.0002921034,8,1
-8.806324e-05,-0.0002473734,8,1
-0.0003136581,-0.0001846542,8,1
-0.0005037607,-0.0001164247,8,1
-0.0006635571,-4.706071e-05,8,1
-0.0007959644,2.684107e-05,8,1
-0.0008872072,0.0001174356,8,1
-0.0009299924,0.0002368777,8,1
-0.000936475,0.0003866261,8,1
-0.0009312889,0.0005533914,8,1
-0.0009366371,0.000710919,8,1
-0.000963702,0.0008350612,8,1
-0.001008594,0.000921118,8,1
-0.001056079,0.000975572,8,1
-0.001089789,0.001004744,8,1
-0.001088978,0.001007013,8,1
-0.001040197,0.0009716824,8,1
-0.0009505748,0.0008862739,8,1
-0.00083956,0.0007444666,8,1
-0.0007361624,0.0005542018,8,1
-0.0006684191,0.0003389789,8,1
-0.0006590193,0.0001263492,8,1
-0.0007013183,-5.062615e-05,8,1
-0.0007663065,-0.0001640719,8,1
-0.0008256224,-0.000206695,8,1
-0.0008585216,-0.0001833576,8,1
-0.0008392359,-0.0001141558,8,1
-0.0007484793,-2.453363e-05,8,1
-0.0005752315,6.200925e-05,8,1
-0.0003170615,0.0001328318,8,1
1.072688e-06,0.0001859892,8,1
0.0003101313,0.0002192126,8,1
0.0005216266,0.0002266676,8,1
0.0005846701,0.0002020337,8,1
0.0005025029,0.0001423936,8,1
0.0003245551,4.661304e-05,8,1
0.000113384,-8.514606e-05,8,1
-6.829127e-05,-0.0002523975,8,1
-0.0001750923,-0.0004538446,8,1
-0.0001909747,-0.000683005,8,1
-0.0001233935,-0.0009205926,8,1
1.630683e-05,-0.001135167,8,1
0.0002013854,-0.001298043,8,1
0.0003929467,-0.001385882,8,1
0.0005579292,-0.001388151,8,1
0.000685961,-0.001302419,8,1
0.0007809313,-0.001135167,8,1
0.000839599,-0.0009105446,8,1
0.0008285785,-0.0006580469,8,1
0.0007078398,-0.0004121938,8,1
0.0004550177,-0.0001997262,8,1
7.837785e-05,-2.712668e-05,8,1
-0.0003596847,0.0001052807,8,1
-0.0007679272,0.0002007372,8,1
-0.001065803,0.0002574601,8,1
-0.001213445,0.0002709115,8,1
-0.001221548,0.0002451431,8,1
-0.00113225,0.0001999268,8,1
-0.000998384,0.0001550348,8,1
-0.0008593319,0.0001227837,8,1
-0.0007248178,9.831188e-05,8,1
-0.0005865761,7.57848e-05,8,1
-0.0004394208,5.082674e-05,8,1
-0.0002851347,2.197911e-05,8,1
-0.0001238797,-9.299493e-06,8,1
5.001642e-05,-3.895745e-05,8,1
0.0002483844,-6.521203e-05,8,1
0.0004731691,-8.660465e-05,8,1
0.0007148086,-0.0001068628,8,1
0.0009596896,-0.0001276072,8,1
0.001203922,-0.0001433275,8,1
0.001460796,-0.0001465688,8,1
0.001733715,-0.0001366828,8,1
0.001998368,-0.0001214487,8,1
0.002230123,-0.0001065387,8,1
0.002415364,-9.146661e-05,8,1
0.002532376,-7.590833e-05,8,1
0.00255701,-6.099833e-05,8,1
0.002472736,-4.884343e-05,8,1
0.002275339,-4.625038e-05,8,1
0.001974383,-5.078821e-05,8,1
0.001595959,-5.889148e-05,8,1
0.001182368,-6.148453e-05,8,1
0.00077769,-4.868137e-05,8,1
0.0004170944,-1.886135e-05,8,1
0.0001080358,2.878586e-05,8,1
-0.0001671511,9.555677e-05,8,1
-0.0004256453,0.0001773998,8,1
-0.0006753879,0.0002553532,8,1
-0.0009197823,0.0003120761,8,1
-0.001165797,0.0003401134,8,1
-0.00142105,0.0003440029,8,1
-0.001673062,0.0003363859,8,1
-0.001895578,0.0003331446,8,1
-0.002061208,0.0003485408,8,1
-0.0021484,0.0003890571,8,1
-0.002146455,0.0004439973,8,1
-0.002070284,0.0004888894,8,1
-0.001966562,0.0005007202,8,1
-0.001896874,0.0004696036,8,1
-0.001882613,0.0004029947,8,1
-0.001884557,0.0003263378,8,1
-0.001835614,0.0002692908,8,1
-0.001686513,0.0002571359,8,1
-0.00143045,0.0002948972,8,1
-0.001097244,0.0003673404,8,1
-0.0007342176,0.0004496696,8,1
-0.0003869116,0.0005091476,8,1
-7.477388e-05,0.0005044477,8,1
0.0002205092,0.0004072085,8,1
0.0005284334,0.0002237505,8,1
0.0008558056,-7.840905e-06,8,1
0.001171995,-0.000238784,8,1
0.001442321,-0.0004316416,8,1
0.001654789,-0.000561456,8,1
0.001813451,-0.0006159099,8,1
0.001937918,-0.0005880346,8,1
0.002051688,-0.0004773441,8,1
0.0021593,-0.0002940482,8,1
0.002247626,-6.310517e-05,8,1
0.002289277,0.0001775618,8,1
0.00224244,0.0003859779,8,1
0.002059305,0.000534754,8,1
0.001710053,0.0006140039,8,1
0.001207974,0.0006300483,8,1
0.0006232416,0.0005989318,8,1
6.670914e-05,0.0005452881,8,1
-0.0003553089,0.0004896998,8,1
-0.0005982448,0.0004446456,8,1
-0.0006745775,0.0004190393,8,1
-0.0006228787,0.000423415,8,1
-0.0004891749,0.0004626348,8,1
-0.0003191683,0.0005316747,8,1
-0.0001493239,0.0006114109,8,1
-9.299493e-06,0.000683692,8,1
8.323981e-05,0.0007485182,8,1
0.0001179218,0.0008138306,8,1
8.145709e-05,0.0008784947,8,1
-3.231277e-05,0.0009224145,8,1
-0.0002112329,0.0009224145,8,1
-0.0004340726,0.000854509,8,1
-0.0006714982,0.0007029778,8,1
-0.0008873693,0.0004723587,8,1
-0.001053324,0.0001923098,8,1
-0.001156398,-0.0001000561,8,1
-0.001200642,-0.0003673017,8,1
-0.001187352,-0.0005880346,8,1
-0.001115719,-0.0007578791,8,1
-0.0009940083,-0.0008808867,8,1
-0.000844422,-0.0009646744,8,1
-0.000700508,-0.00101767,8,1
-0.0005916001,-0.001046355,8,1
-0.0005324463,-0.001057376,8,1
-0.0005262878,-0.001060455,8,1
-0.0005719902,-0.001068072,8,1
-0.0006595054,-0.001087196,8,1
-0.0007580412,-0.001114585,8,1
-0.0008319429,-0.001142136,8,1
-0.0008620871,-0.001157046,8,1
-0.0008546321,-0.001152994,8,1
-0.0008311326,-0.001134843,8,1
-0.0007996919,-0.001112802,8,1
-0.0007557723,-0.00108752,8,1
-0.000680574,-0.001050083,8,1
-0.0005533527,-0.0009906049,8,1
-0.0003601709,-0.0009077895,8,1
-0.0001071869,-0.0008115227,8,1
0.000187934,-0.0007157421,8,1
0.0004990995,-0.0006257959,8,1
0.0007903311,-0.0005377944,8,1
0.001016575,-0.0004525481,8,1
0.001138286,-0.0003731361,8,1
0.001137475,-0.0002929138,8,1
0.001031323,-0.0002003745,8,1
0.0008804395,-8.984595e-05,8,1
0.0007491665,3.283749e-05,8,1
0.0006718613,0.000158114,8,1
0.0006399344,0.0002759355,8,1
0.0006253485,0.0003765781,8,1
0.00060428,0.000458259,8,1
0.0005634395,0.0005234093,8,1
0.0004921307,0.0005725152,8,1
0.0003927847,0.0006078454,8,1
0.00027707,0.0006289139,8,1
0.0001564933,0.0006295622,8,1
3.656499e-05,0.0005965008,8,1
-0.0001028112,0.000532485,8,1
-0.0003045825,0.0004624728,8,1
-0.0005752315,0.0004130428,8,1
-0.0008543079,0.000393595,8,1
-0.001055269,0.0003984569,8,1
-0.001116043,0.0004213082,8,1
-0.001037928,0.0004493454,8,1
-0.0008661387,0.0004645796,8,1
-0.0006479988,0.0004566384,8,1
-0.0004193247,0.0004276287,8,1
-0.000206533,0.000391164,8,1
-2.501983e-05,0.0003534027,8,1
0.0001200286,0.0003072141,8,1
0.0002294227,0.0002433604,8,1
0.0003049452,0.0001649207,8,1
0.0003589129,8.307774e-05,8,1
0.0004021844,1.371378e-05,8,1
0.0004412422,-3.21507e-05,8,1
0.0004678209,-4.819517e-05,8,1
0.0004709002,-3.506788e-05,8,1
0.0004438352,-2.654814e-06,8,1
0.000383871,3.316162e-05,8,1
0.0002892249,6.638502e-05,8,1
0.0001586002,9.798775e-05,8,1
-3.789272e-06,0.0001312112,8,1
-0.0001887058,0.0001569795,8,1
-0.0003929081,0.0001589243,8,1
-0.0006159099,0.0001362352,8,1
-0.0008303223,9.733949e-05,8,1
-0.0009902808,5.212327e-05,8,1
-0.001053486,5.934648e-06,8,1
-0.0009941703,-3.312309e-05,8,1
-0.0007933713,-5.451572e-05,8,1
-0.0004471999,-4.171256e-05,8,1
5.124321e-06,1.063454e-05,8,1
0.0004874308,9.604298e-05,8,1
0.0009099355,0.0001924718,8,1
0.001192902,0.0002688046,8,1
0.001279607,0.0002947351,8,1
0.001188364,0.0002584324,8,1
0.001010254,0.0001796687,8,1
0.0008608295,9.604298e-05,8,1
0.0008128582,4.564065e-05,8,1
0.0008598572,5.001642e-05,8,1
0.0009425106,0.0001041462,8,1
0.0009903199,0.0001765894,8,1
0.0009640653,0.0002297469,8,1
0.0008695811,0.0002480603,8,1
0.0007407391,0.0002401191,8,1
0.0006104385,0.0002235884,8,1
0.0004968306,0.0002088404,8,1
0.0004101256,0.0001981441,8,1
0.0003461098,0.000195227,8,1
0.0002817699,0.0002080301,8,1
0.0001919856,0.0002384984,8,1
8.615699e-05,0.0002782044,8,1
-2.168618e-06,0.0003086727,8,1
-4.090223e-05,0.0003107795,8,1
-2.7937e-05,0.0002765838,8,1
1.614476e-05,0.0002185644,8,1
7.384002e-05,0.0001558451,8,1
0.0001446626,0.00010366,8,1
0.0002360674,7.335383e-05,8,1
0.0003454615,7.52986e-05,8,1
0.000462959,0.0001013911,8,1
0.0005833735,0.000128456,8,1
0.0007078398,0.0001257009,8,1
0.0008348991,6.768154e-05,8,1
0.0009370004,-4.625038e-05,8,1
0.0009642274,-0.0001955125,8,1
0.0008789809,-0.0003439643,8,1
0.0006862851,-0.0004635685,8,1
0.0004410801,-0.0005424943,8,1
0.0002112714,-0.0005818762,8,1
3.364782e-05,-0.0005873864,8,1
-0.000104756,-0.0005637249,8,1
-0.0002405667,-0.0005115399,8,1
-0.0004057112,-0.0004327761,8,1
-0.000601162,-0.0003254889,8,1
-0.0007993678,-0.0001870851,8,1
-0.0009555988,-2.485776e-05,8,1
-0.001027232,0.0001378558,8,1
-0.001007136,0.0002707494,8,1
-0.0009254546,0.00035162,8,1
-0.0008231914,0.0003741471,8,1
-0.0007288694,0.0003522683,8,1
-0.0006761982,0.000299597,8,1
-0.0007000218,0.0002222919,8,1
-0.0007988816,0.0001242423,8,1
-0.0009329096,2.035846e-05,8,1
-0.001049921,-7.18567e-05,8,1
-0.001100161,-0.0001412206,8,1
-0.001049921,-0.0001888679,8,1
-0.0008987138,-0.0002191741,8,1
-0.0006771705,-0.000243808,8,1
-0.0004282383,-0.0002741142,8,1
-0.0001971332,-0.0003099306,8,1
-1.351319e-05,-0.0003450988,8,1
0.0001229458,-0.0003758912,8,1
0.0002334744,-0.0004057112,8,1
0.0003368721,-0.0004395829,8,1
0.0004294114,-0.0004813957,8,1
0.0004960203,-0.0005290429,8,1
0.0005276231,-0.0005742591,8,1
0.0005277851,-0.0006047274,8,1
0.0005185474,-0.0006089411,8,1
0.00052503,-0.0005750695,8,1
0.0005566327,-0.0005000332,8,1
0.0005982835,-0.0003942046,8,1
0.0006107626,-0.0002739521,8,1
0.0005509604,-0.0001622891,8,1
0.0004089912,-7.947377e-05,8,1
0.0002017096,-3.328516e-05,8,1
-3.863332e-05,-1.691656e-05,8,1
-0.0002802727,-1.432352e-05,8,1
-0.0004916058,-1.351319e-05,8,1
-0.0006501057,-8.327101e-06,8,1
-0.0007413484,5.934648e-06,8,1
-0.0007716547,2.522042e-05,8,1
-0.0007609584,3.964424e-05,8,1
-0.0007364865,4.013043e-05,8,1
-0.0007272488,1.873781e-05,8,1
-0.0007442656,-3.879538e-05,8,1
-0.0007721409,-0.0001352242,8,1
-0.0007812165,-0.0002608248,8,1
-0.000742969,-0.0004024699,8,1
-0.00064103,-0.0005402254,8,1
-0.0004883645,-0.0006548056,8,1
-0.0003287302,-0.0007287074,8,1
-0.0002070192,-0.0007489655,8,1
-0.0001379794,-0.00071558,8,1
-9.746302e-05,-0.000638599,8,1
-5.500191e-05,-0.0005305015,8,1
4.80019e-06,-0.0004070078,8,1
7.805372e-05,-0.0002869174,8,1
0.0001459591,-0.0001788198,8,1
0.0001976579,-8.725291e-05,8,1
0.0002247229,-1.351319e-05,8,1
0.000217754,3.93201e-05,8,1
0.0001673517,6.670914e-05,8,1
7.076078e-05,7.643307e-05,8,1
-6.278104e-05,9.134307e-05,8,1
-0.0002162569,0.0001328318,8,1
-0.0003651949,0.00021273,8,1
-0.0004768579,0.0003328204,8,1
-0.0005253154,0.0004911583,8,1
-0.0004950092,0.000681099,8,1
-0.0003916115,0.0008883807,8,1
-0.000238784,0.001100524,8,1
-7.299116e-05,0.001314127,8,1
6.427817e-05,0.001522867,8,1
0.0001365593,0.001709405,8,1
0.0001274836,0.001843271,8,1
4.953022e-05,0.001901615,8,1
-5.937768e-05,0.001878278,8,1
-0.0001567789,0.001788655,8,1
-0.0002117191,0.001653006,8,1
-0.0002151224,0.001493858,8,1
-0.0001869231,0.00132693,8,1
-0.0001574272,0.001154168,8,1
-0.0001540238,0.0009792994,8,1
-0.0001890299,0.0008078342,8,1
-0.0002454286,0.0006501445,8,1
-0.000288538,0.000512713,8,1
-0.0002791382,0.0003947294,8,1
-0.0001872472,0.0002929524,8,1
-1.562004e-05,0.0002046267,8,1
0.0002075439,0.0001312112,8,1
0.0004360561,7.465034e-05,8,1
0.0006274553,3.13789e-05,8,1
0.0007632662,-2.654814e-06,8,1
0.0008438127,-3.21507e-05,8,1
0.0008793051,-6.618442e-05,8,1
0.000888867,-0.0001102662,8,1
0.0008870842,-0.0001663408,8,1
0.0008773603,-0.000238784,8,1
0.000854509,-0.0003199787,8,1
0.0008102651,-0.0003963114,8,1
0.0007428459,-0.000449793,8,1
0.0006627856,-0.0004694029,8,1
0.0005914768,-0.0004536825,8,1
0.0005550121,-0.0004152731,8,1
0.0005752703,-0.0003676259,8,1
0.0006592202,-0.0003253268,8,1
0.0007867657,-0.0003023136,8,1
0.0009055596,-0.0003029619,8,1
0.0009530449,-0.0003214373,8,1
0.0008810877,-0.0003485022,8,1
0.0006770474,-0.0003841565,8,1
0.0003725265,-0.0004279142,8,1
4.158902e-05,-0.0004713477,8,1
-0.0002282497,-0.0005031124,8,1
-0.0003865875,-0.000524181,8,1
-0.0004514136,-0.0005476804,8,1
-0.0004886886,-0.0005836589,8,1
-0.0005646973,-0.0006300096,8,1
-0.0007176869,-0.0006776568,8,1
-0.0009343682,-0.0007112043,8,1
-0.001158991,-0.00072028,8,1
-0.001324135,-0.0007074767,8,1
-0.00138572,-0.0006920806,8,1
-0.001331752,-0.000695646,8,1
-0.001181194,-0.0007325969,8,1
-0.0009671054,-0.0008003402,8,1
-0.00071558,-0.0008779695,8,1
-0.0004536825,-0.0009402025,8,1
-0.0002037779,-0.0009671054,8,1
2.603075e-05,-0.0009534919,8,1
0.0002475741,-0.0009035757,8,1
0.0004824068,-0.0008340498,8,1
0.0007078398,-0.0007594998,8,1
0.0008616399,-0.0006865704,8,1
0.0008953495,-0.0006129927,8,1
0.0007964896,-0.0005339049,8,1
0.0005866149,-0.0004496309,8,1
0.0003148312,-0.0003676259,8,1
2.181705e-05,-0.0002946965,8,1
-0.0002807589,-0.0002381357,8,1
-0.0005860899,-0.0002037779,8,1
-0.0008632215,-0.0001896782,8,1
-0.001051379,-0.0001825473,8,1
-0.001083954,-0.0001665028,8,1
-0.0009273994,-0.0001349001,8,1
-0.0005969483,-9.357346e-05,8,1
-0.0001583996,-4.560212e-05,8,1
0.0003005694,9.175954e-06,8,1
0.0007110811,6.281957e-05,8,1
0.001042019,0.00010366,8,1
0.001286252,0.0001180839,8,1
0.001454314,0.0001043083,8,1
0.001567111,7.011252e-05,8,1
0.001647496,2.667901e-05,8,1
0.001711026,-3.627206e-06,8,1
0.001760456,-2.81688e-06,8,1
0.001793355,3.462021e-05,8,1
0.001803403,0.0001022015,8,1
0.001779255,0.0001848548,8,1
0.00169725,0.000269777,8,1
0.001520923,0.0003488649,8,1
0.001232608,0.0004141773,8,1
0.0008489988,0.0004623107,8,1
0.0004203358,0.0004984512,8,1
1.322759e-05,0.0005365367,8,1
-0.0003121996,0.0005832114,8,1
-0.0005133225,0.000638962,8,1
-0.0005625904,0.0006971435,8,1
-0.0004606514,0.00074787,8,1
-0.0002404046,0.0007794728,8,1
3.089271e-05,0.0007806072,8,1
0.0002733424,0.0007477079,8,1
0.00041596,0.0006895264,8,1
0.000420984,0.0006208107,8,1
0.0002986247,0.0005574431,8,1
0.0001020394,0.0005068787,8,1
-9.584238e-05,0.0004678209,8,1
-0.0002493182,0.0004394595,8,1
-0.0003575778,0.0004217943,8,1
-0.0004463896,0.0004145014,8,1
-0.0005437909,0.000420984,8,1
-0.0006656639,0.0004495075,8,1
-0.0008105503,0.0005072028,8,1
-0.0009680777,0.0005934216,8,1
-0.001125119,0.000696009,8,1
-0.001269681,0.0007911414,8,1
-0.001394796,0.0008365198,8,1
-0.001489442,0.0007835244,8,1
-0.001545192,0.0006049282,8,1
-0.001551513,0.0003218,8,1
-0.001513265,-5.409925e-06,8,1
-0.001451519,-0.0003031239,8,1
-0.001390744,-0.0005235327,8,1
-0.001334345,-0.0006541573,8,1
-0.001279243,-0.0007133111,8,1
-0.001234675,-0.0007335693,8,1
-0.001209393,-0.0007432932,8,1
-0.001194321,-0.0007436173,8,1
-0.00115348,-0.0007197938,8,1
-0.001040683,-0.0006611261,8,1
-0.0008225431,-0.0005646973,8,1
-0.0005024642,-0.000444931,8,1
-0.0001331174,-0.0003240303,8,1
0.0002132162,-0.0002284118,8,1
0.000468145,-0.0001684476,8,1
0.0005947181,-0.0001436516,8,1
0.0006047662,-0.000137169,8,1
0.0005420469,-0.000119666,8,1
0.0004439973,-6.245691e-05,8,1
0.000331848,5.066468e-05,8,1
0.0002182402,0.0002132162,8,1
0.0001179218,0.0003997535,8,1
3.380988e-05,0.0005736496,8,1
-4.090223e-05,0.0007088122,8,1
-0.0001162626,0.0008013516,8,1
-0.0001929195,0.0008561297,8,1
-0.0002622834,0.0008741189,8,1
-0.0003050687,0.0008574262,8,1
-0.0002951827,0.0008091307,8,1
-0.0002078295,0.0007238843,8,1
-3.68506e-05,0.0005872631,8,1
0.0001963614,0.0003992672,8,1
0.0004399457,0.0001859892,8,1
0.0006409068,-9.623623e-06,8,1
0.0007707212,-0.0001486757,8,1
0.0008353853,-0.0002162569,8,1
0.0008489988,-0.0002319772,8,1
0.0008311716,-0.0002324634,8,1
0.0008076721,-0.0002548284,8,1
0.0007992447,-0.0003160891,8,1
0.0008141547,-0.0004164075,8,1
0.0008556435,-0.0005287188,8,1
0.0009152836,-0.0006217443,8,1
0.0009655239,-0.000668257,8,1
0.0009718445,-0.0006590193,8,1
0.0009169042,-0.0005987309,8,1
0.0008096169,-0.0005016539,8,1
0.0006796404,-0.00038286,8,1
0.0005543638,-0.0002496423,8,1
0.0004456179,-0.000112373,8,1
0.0003425444,1.387585e-05,8,1
0.0002115956,0.0001164632,8,1
3.316162e-05,0.000187934,8,1
-0.0001716889,0.0002287745,8,1
-0.0003519055,0.0002478982,8,1
-0.0004587066,0.0002639427,8,1
-0.0004755614,0.0002908455,8,1
-0.0004215936,0.0003333067,8,1
-0.0003337542,0.0003893813,8,1
-0.0002645523,0.0004490213,8,1
-0.000261311,0.0004947237,8,1
-0.0003308371,0.0005013684,8,1
-0.0004415277,0.0004522626,8,1
-0.0005413599,0.00035162,8,1
-0.0005928966,0.0002172679,8,1
-0.0005943552,7.319176e-05,8,1
-0.0005672903,-6.472583e-05,8,1
-0.000539253,-0.0001874093,8,1
-0.0005253154,-0.0002914552,8,1
-0.0005280706,-0.0003818876,8,1
-0.0005527044,-0.0004734545,8,1
-0.0006044033,-0.0005796073,8,1
-0.0006731189,-0.0007011562,8,1
-0.000725304,-0.0008228673,8,1
-0.0007126629,-0.000921403,8,1
-0.0005959758,-0.00097375,8,1
-0.0003734602,-0.0009671054,8,1
-9.308726e-05,-0.0009061688,8,1
0.0001589243,-0.0008068228,8,1
0.0003039728,-0.0006893255,8,1
0.0003122381,-0.0005629146,8,1
0.0002083542,-0.0004181903,8,1
5.666109e-05,-0.0002399184,8,1
-7.752899e-05,-1.983374e-05,8,1
-0.0001530514,0.000225209,8,1
-0.0001517549,0.0004585832,8,1
-8.02841e-05,0.000641393,8,1
3.818565e-05,0.0007481941,8,1
0.0002010613,0.0007750969,8,1
0.0004170944,0.0007391184,8,1
0.0006728336,0.0006603546,8,1
0.0009280868,0.0005503122,8,1
0.001128562,0.0004200116,8,1
0.001224667,0.0002889007,8,1
0.001185933,0.0001714034,8,1
0.001023381,7.367795e-05,8,1
0.0007770417,2.623614e-07,8,1
0.0004976409,-4.608832e-05,8,1
0.0002287745,-7.169464e-05,8,1
-2.81688e-06,-8.125649e-05,8,1
-0.0001737958,-7.509801e-05,8,1
-0.0002676316,-5.483985e-05,8,1
-0.000286107,-2.226472e-05,8,1
-0.0002535319,1.857574e-05,8,1
-0.0002112329,5.698522e-05,8,1
-0.0001982676,8.307774e-05,8,1
-0.0002340841,9.085688e-05,8,1
-0.0003040963,8.42122e-05,8,1
-0.0003770257,7.043665e-05,8,1
-0.0004342347,5.341979e-05,8,1
-0.0004734545,3.526847e-05,8,1
-0.0004954954,1.679302e-05,8,1
-0.0004890127,-4.599598e-06,8,1
-0.0004392588,-2.307504e-05,8,1
-0.0003386162,-2.534396e-05,8,1
-0.0001898403,-1.497178e-05,8,1
-7.840905e-06,-2.09682e-05,8,1
0.0001788584,-8.660465e-05,8,1
0.0003357376,-0.000233922,8,1
0.0004347596,-0.0004450931,8,1
0.0004728449,-0.0006727948,8,1
0.0004743035,-0.0008719731,8,1
0.0004819206,-0.001010377,8,1
0.0005295678,-0.001068882,8,1
0.0006256726,-0.001045869,8,1
0.0007376599,-0.0009534919,8,1
0.0008203132,-0.000809902,8,1
0.0008337647,-0.0006421645,8,1
0.0007606731,-0.0004799371,8,1
0.0006101143,-0.0003426678,8,1
0.0004098015,-0.000238784,8,1
0.000195389,-0.0001564548,8,1
2.207145e-06,-8.239095e-05,8,1
-0.0001442999,-7.516774e-06,8,1
-0.0002316531,7.286763e-05,8,1
-0.0002629317,0.0001644345,8,1
-0.000261149,0.000269777,8,1
-0.0002559629,0.00038614,8,1
-0.0002645523,0.0005112545,8,1
-0.0002968033,0.0006425274,8,1
-0.0003577399,0.0007742866,8,1
-0.000452386,0.0009002115,8,1
-0.0005723144,0.001022085,8,1
-0.0006885151,0.001145741,8,1
-0.0007594998,0.001278148,8,1
-0.0007463724,0.001417525,8,1
-0.000633575,0.001544422,8,1
-0.0004316416,0.001628859,8,1
-0.0001822232,0.001646686,8,1
4.807163e-05,0.00158429,8,1
0.0002039785,0.001438593,8,1
0.0002592428,0.001223694,8,1
0.0002051129,0.0009734652,8,1
5.066468e-05,0.0007242084,8,1
-0.0001630995,0.0005109303,8,1
-0.0003781601,0.0003556717,8,1
-0.0005548113,0.0002574601,8,1
-0.0006776568,0.0001913374,8,1
-0.0007465345,0.0001235941,8,1
-0.0007711684,3.543054e-05,8,1
-0.0007705202,-7.33153e-05,8,1
-0.0007604721,-0.0001896782,8,1
-0.0007473448,-0.0002968033,8,1
-0.0007238454,-0.0003792946,8,1
-0.0006753879,-0.0004288866,8,1
-0.0005961379,-0.0004412035,8,1
-0.0004916058,-0.0004181903,8,1
-0.0003739464,-0.0003707051,8,1
-0.0002561249,-0.0003160891,8,1
-0.0001258245,-0.000268604,8,1
4.645098e-05,-0.0002357047,8,1
0.0002543808,-0.0002251705,8,1
0.0004368664,-0.0002457528,8,1
0.0005337815,-0.0003078238,8,1
0.0005381573,-0.0004134903,8,1
0.0005034753,-0.0005514079,8,1
0.0005013684,-0.000700508,8,1
0.0005707325,-0.0008442599,8,1
0.0006981159,-0.0009679157,8,1
0.0008587227,-0.001071313,8,1
0.00103975,-0.001157046,8,1
0.001223856,-0.001222196,8,1
0.001371822,-0.001259309,8,1
0.001440538,-0.00126174,8,1
0.001412339,-0.001221386,8,1
0.001314127,-0.001133222,8,1
0.001195333,-0.001004218,8,1
0.001101983,-0.0008497701,8,1
0.001050446,-0.0006904599,8,1
0.001020464,-0.0005446012,8,1
0.0009655239,-0.0004160834,8,1
0.000839599,-0.0003011791,8,1
0.0006204865,-0.0001950263,8,1
0.0003339549,-9.66527e-05,8,1
4.418206e-05,-1.043395e-05,8,1
-0.0001637477,6.152305e-05,8,1
-0.0002376495,0.0001218114,8,1
-0.0001880575,0.0001756171,8,1
-7.299116e-05,0.0002216436,8,1
4.434413e-05,0.000259891,8,1
0.0001292664,0.0002950592,8,1
0.000180479,0.0003347652,8,1
0.0002172679,0.000383871,8,1
0.0002568118,0.0004435111,8,1
0.0002968419,0.0005093097,8,1
0.0003145071,0.000572029,8,1
0.0002759355,0.0006195141,8,1
0.0001676758,0.0006362069,8,1
1.720949e-06,0.0006097901,8,1
-0.0001875713,0.0005426951,8,1
-0.0003567675,0.0004524247,8,1
-0.0004758855,0.000361506,8,1
-0.0005415219,0.0002890628,8,1
-0.0005706937,0.0002370398,8,1
-0.0005893312,0.000195389,8,1
-0.0006225546,0.0001534141,8,1
-0.0006890013,0.0001073875,8,1
-0.0007940196,6.136099e-05,8,1
-0.0009277235,1.857574e-05,8,1
-0.00107261,-1.756482e-05,8,1
-0.001206962,-4.236082e-05,8,1
-0.001308739,-5.59743e-05,8,1
-0.001357683,-6.472583e-05,8,1
-0.00136449,-7.23429e-05,8,1
-0.00135979,-7.590833e-05,8,1
-0.001358979,-7.380149e-05,8,1
-0.00135201,-6.796714e-05,8,1
-0.001317004,-5.970181e-05,8,1
-0.001236296,-4.641245e-05,8,1
-0.001105509,-2.858527e-05,8,1
-0.0009377715,-4.437533e-06,8,1
-0.0007484793,2.424803e-05,8,1
-0.0005450874,5.536457e-05,8,1
-0.0003460712,8.275361e-05,8,1
-0.0001851404,9.814982e-05,8,1
-8.854943e-05,9.68533e-05,8,1
-5.678463e-05,8.275361e-05,8,1
-6.829127e-05,6.541262e-05,8,1
-8.709085e-05,5.244739e-05,8,1
-7.704279e-05,4.580272e-05,8,1
-1.691656e-05,4.191315e-05,8,1
9.814982e-05,4.077869e-05,8,1
0.0002686426,4.531652e-05,8,1
0.0004901859,5.633696e-05,8,1
0.0007577559,7.319176e-05,8,1
0.001043477,9.490851e-05,8,1
0.001296462,0.0001171115,8,1
0.00146501,0.0001341283,8,1
0.001524488,0.0001386662,8,1
0.001497747,0.000128294,8,1
0.001429518,0.0001052807,8,1
0.00135594,7.740546e-05,8,1
0.001286252,5.260946e-05,8,1
0.001206839,3.802358e-05,8,1
0.001097931,3.299956e-05,8,1
0.0009548276,3.235129e-05,8,1
0.0007953551,2.81376e-05,8,1
0.0006386379,1.663096e-05,8,1
0.0004909963,2.623614e-07,8,1
0.000339141,-1.62683e-05,8,1
0.0001529279,-2.647842e-05,8,1
-7.542214e-05,-3.490581e-05,8,1
-0.0003350507,-4.85193e-05,8,1
-0.0006108859,-5.953974e-05,8,1
-0.0008839659,-5.402952e-05,8,1
-0.001139543,-3.847125e-05,8,1
-0.001376644,-4.43056e-05,8,1
-0.001592029,-9.794922e-05,8,1
-0.001783266,-0.0001994021,8,1
-0.001932367,-0.0003228959,8,1
-0.002001568,-0.0004403932,8,1
-0.001959756,-0.0005335807,8,1
-0.001795097,-0.0005916001,8,1
-0.001521207,-0.00061121,8,1
-0.001180707,-0.0005928966,8,1
-0.0008280533,-0.0005408737,8,1
-0.0004980884,-0.0004650271,8,1
-0.0001956746,-0.0003861013,8,1
9.101894e-05,-0.0003248407,8,1
0.0003722023,-0.0002872415,8,1
0.0006456067,-0.0002650386,8,1
0.0008896773,-0.0002405667,8,1
0.001082049,-0.0001924333,8,1
0.001207488,-0.0001032974,8,1
0.001261294,3.121684e-05,8,1
0.001245573,0.0002000889,8,1
0.001179937,0.0003801436,8,1
0.001109114,0.0005495019,8,1
0.001093394,0.0007063812,8,1
0.001169889,0.000864395,8,1
0.001339409,0.00103505,8,1
0.001569218,0.001204895,8,1
0.001821393,0.001338113,8,1
0.00205963,0.001398401,8,1
0.002236443,0.001374415,8,1
0.002297704,0.001281552,8,1
0.00219463,0.001152061,8,1
0.001899346,0.001013009,8,1
0.001429842,0.0008762258,8,1
0.0008509436,0.0007399287,8,1
0.0002636185,0.0006021731,8,1
-0.0002428356,0.0004692795,8,1
-0.0006105618,0.0003524304,8,1
-0.0008267568,0.0002641047,8,1
-0.0008979035,0.0002112714,8,1
-0.0008384255,0.0001874478,8,1
-0.0006796016,0.0001816135,8,1
-0.0004614617,0.0001748067,8,1
-0.0002297083,0.0001545486,8,1
-2.826114e-05,0.0001195424,8,1
0.0001088461,8.064677e-05,8,1
0.0001636242,4.661304e-05,8,1
0.0001355869,1.808955e-05,8,1
3.624086e-05,-1.140634e-05,8,1
-0.0001204763,-4.932962e-05,8,1
-0.0003102548,-9.065628e-05,8,1
-0.0005073262,-0.0001279313,8,1
-0.0006891634,-0.0001559686,8,1
-0.0008366429,-0.0001854645,8,1
-0.0009403646,-0.0002331117,8,1
-0.0009978978,-0.0003060411,8,1
-0.001019615,-0.0003959873,8,1
-0.001022532,-0.0004809095,8,1
-0.001018804,-0.0005444391,8,1
-0.001011997,-0.0005805797,8,1
-0.001000329,-0.0005917621,8,1
-0.0009816912,-0.0005901415,8,1
-0.0009615952,-0.0005880346,8,1
-0.0009473335,-0.0005867381,8,1
-0.0009387439,-0.0005841451,8,1
-0.0009335579,-0.0005753936,8,1
-0.0009309648,-0.0005601594,8,1
-0.0009356647,-0.000546546,8,1
-0.0009491161,-0.0005446012,8,1
-0.0009693743,-0.0005611319,8,1
-0.000993522,-0.0005945173,8,1
-0.001018642,-0.0006321164,8,1
-0.001046193,-0.0006632329,8,1
-0.001092868,-0.0006766844,8,1
-0.001164501,-0.0006726327,8,1
-0.001242454,-0.0006565883,8,1
-0.001298529,-0.0006319543,8,1
-0.001309874,-0.0005964621,8,1
-0.001274705,-0.0005484907,8,1
-0.001200479,-0.0004859335,8,1
-0.00109773,-0.0004118697,8,1
-0.0009826636,-0.0003303509,8,1
-0.0008876934,-0.0002491561,8,1
-0.0008377773,-0.0001728234,8,1
-0.0008016367,-9.989401e-05,8,1
-0.0007032631,-2.339918e-05,8,1
-0.0004857715,5.56887e-05,8,1
-0.0001394379,0.0001300767,8,1
0.0002929524,0.0001835583,8,1
0.0007475458,0.0002036544,8,1
0.001155789,0.0001817755,8,1
0.001466469,0.0001200286,8,1
0.001663054,3.462021e-05,8,1
0.001764507,-4.300908e-05,8,1
0.001819934,-7.412562e-05,8,1
0.001877629,-2.826114e-05,8,1
0.001953638,8.988449e-05,8,1
0.002025758,0.0002414156,8,1
0.002051364,0.0003770643,8,1
0.001995289,0.0004603659,8,1
0.001840678,0.0004799758,8,1
0.001605197,0.0004446456,8,1
0.001332927,0.0003757678,8,1
0.001079132,0.0002997591,8,1
0.0008901635,0.0002368777,8,1
0.0007844968,0.0002034923,8,1
0.0007561353,0.0002044647,8,1
0.0007857933,0.0002310434,8,1
0.0008502954,0.0002735045,8,1
0.0009245213,0.0003250413,8,1
0.0009919406,0.0003850055,8,1
0.001044936,0.0004551798,8,1
0.001087559,0.0005319988,8,1
0.001124348,0.0006065489,8,1
0.001139258,0.0006652166,8,1
0.001103604,0.0006932539,8,1
0.000992913,0.0006828817,8,1
0.0008042688,0.0006375034,8,1
0.0005653843,0.000569598,8,1
0.0003171001,0.0004898618,8,1
9.328786e-05,0.0004068843,8,1
-8.547019e-05,0.0003261758,8,1
-0.0002086398,0.0002475741,8,1
-0.000268604,0.0001626518,8,1
-0.0002605007,5.860588e-05,8,1
-0.000189192,-6.39155e-05,8,1
-7.60704e-05,-0.0001901644,8,1
5.212327e-05,-0.0002938862,8,1
0.0001542244,-0.0003541745,8,1
0.0001884202,-0.0003650328,8,1
0.0001289422,-0.0003363473,8,1
-2.275091e-05,-0.0002862691,8,1
-0.0002382978,-0.0002360289,8,1
-0.0004784786,-0.0001974573,8,1
-0.0007052079,-0.0001700683,8,1
-0.0008878555,-0.0001493239,8,1
-0.001004867,-0.0001387897,8,1
-0.001049597,-0.0001449482,8,1
-0.001030473,-0.0001760647,8,1
-0.0009731018,-0.0002235498,8,1
-0.0009029275,-0.0002715212,8,1
-0.0008442599,-0.0003023136,8,1
-0.000814764,-0.0003045825,8,1
-0.0008168708,-0.0002726556,8,1
-0.0008406945,-0.0002156086,8,1
-0.0008640318,-0.0001605064,8,1
-0.0008517149,-0.0001462447,8,1
-0.0007956403,-0.0001997262,8,1
-0.0007215765,-0.0003188442,8,1
-0.0006638812,-0.0004747511,8,1
-0.0006428128,-0.0006251476,8,1
-0.0006614503,-0.0007379451,8,1
-0.0007069906,-0.000799854,8,1
-0.0007525309,-0.0008118468,8,1
-0.0007693857,-0.0007914266,8,1
-0.0007505861,-0.0007556102,8,1
-0.0007116905,-0.0007201179,8,1
-0.0006676087,-0.0006975908,8,1
-0.0006321164,-0.0006964564,8,1
-0.000623689,-0.0007118525,8,1
-0.0006522125,-0.0007280591,8,1
-0.0007019666,-0.0007251419,8,1
-0.0007434553,-0.0006925668,8,1
-0.0007432932,-0.0006337371,8,1
-0.0006862463,-0.0005599973,8,1
-0.0005875485,-0.0004802613,8,1
-0.0004862577,-0.0003893426,8,1
-0.0004115456,-0.0002737901,8,1
-0.0003749188,-0.0001212866,8,1
-0.00036795,6.800567e-05,8,1
-0.0003682741,0.0002809595,8,1
-0.0003438023,0.0005039615,8,1
-0.0002715212,0.0007336082,8,1
-0.0001533756,0.0009650377,8,1
-1.520357e-06,0.001185933,8,1
0.0001765894,0.00137004,8,1
0.0003676645,0.001482675,8,1
0.0005585775,0.00149402,8,1
0.0007295565,0.001390946,8,1
0.0008626123,0.001186905,8,1
0.0009467243,0.0009246834,8,1
0.00098562,0.0006553305,8,1
0.0009734652,0.0004175806,8,1
0.0009047493,0.0002313675,8,1
0.0007896828,0.0001022015,8,1
0.0006447964,2.81376e-05,8,1
0.0004911583,1.396819e-06,8,1
0.0003618301,1.063454e-05,8,1
0.0002979764,4.288554e-05,8,1
0.0003323342,8.826383e-05,8,1
0.0004801379,0.0001427178,8,1
0.0007412253,0.0002073819,8,1
0.001097121,0.0002838767,8,1
0.001509902,0.0003632887,8,1
0.001928032,0.0004341113,8,1
0.002305159,0.0004871067,8,1
0.002597365,0.0005188715,8,1
0.002757,0.0005358884,8,1
0.002756028,0.000547233,8,1
0.00259542,0.0005593878,8,1
0.00230289,0.0005726772,8,1
0.001921711,0.0005883976,8,1
0.001501151,0.0006015248,8,1
0.001075728,0.0006096281,8,1
0.0006681338,0.0006120591,8,1
0.0002914938,0.0006086557,8,1
-4.738484e-05,0.0005955285,8,1
-0.0003463953,0.000569598,8,1
-0.000606186,0.0005345919,8,1
-0.0008243258,0.0005008822,8,1
-0.001002274,0.0004806241,8,1
-0.001147322,0.0004788414,8,1
-0.001268385,0.0004926169,8,1
-0.001364328,0.0005073649,8,1
-0.001419916,0.0005070407,8,1
-0.001425912,0.0004759242,8,1
-0.001385882,0.0004044533,8,1
-0.00130647,0.0002913317,8,1
-0.001208259,0.0001438522,8,1
-0.001118961,-1.967167e-05,8,1
-0.001054459,-0.0001770371,8,1
-0.001003084,-0.0003099306,8,1
-0.0009458748,-0.000405063,8,1
-0.0008729455,-0.0004603272,8,1
-0.0007812165,-0.0004838267,8,1
-0.0006737672,-0.0004878783,8,1
-0.000559025,-0.0004903093,8,1
-0.0004551412,-0.000509595,8,1
-0.0003750809,-0.0005596732,8,1
-0.0003248407,-0.0006384369,8,1
-0.0003002067,-0.0007335693,8,1
-0.0002964792,-0.0008316188,8,1
-0.0003211132,-0.0009184858,8,1
-0.0003823738,-0.0009734259,8,1
-0.0004839888,-0.0009844464,8,1
-0.0006126686,-0.0009491161,8,1
-0.0007348658,-0.0008812108,8,1
-0.0008285395,-0.0007966127,8,1
-0.0008974173,-0.0007100698,8,1
-0.0009598124,-0.00064103,8,1
-0.001011835,-0.0006016482,8,1
-0.001035335,-0.000591276,8,1
-0.00102318,-0.0005995413,8,1
-0.0009922255,-0.0006141272,8,1
-0.0009601366,-0.0006233649,8,1
-0.0009319372,-0.0006196374,8,1
-0.0008970932,-0.0005985689,8,1
-0.0008447461,-0.0005599973,8,1
-0.0007786234,-0.0005136467,8,1
-0.000710718,-0.0004726442,8,1
-0.0006376266,-0.0004437966,8,1
-0.0005345531,-0.0004258073,8,1
-0.0003938804,-0.0004134903,8,1
-0.0002381357,-0.0004005251,8,1
-0.0001018388,-0.0003794566,8,1
-1.432352e-05,-0.0003493125,8,1
2.651694e-05,-0.0003104168,8,1
5.115087e-05,-0.0002624455,8,1
0.000106091,-0.0002109087,8,1
0.0002307193,-0.0001656925,8,1
0.0004201737,-0.0001316588,8,1
0.0006180556,-0.0001021629,8,1
0.0007622938,-6.926366e-05,8,1
0.0008386266,-2.728874e-05,8,1
0.0008898393,1.825161e-05,8,1
0.0009754099,5.795762e-05,8,1
0.001112841,8.323981e-05,8,1
0.001263725,8.923623e-05,8,1
0.001369715,7.57848e-05,8,1
0.00138106,4.985435e-05,8,1
0.001275555,2.01964e-05,8,1
0.00107589,-3.789272e-06,8,1
0.0008436506,-1.108221e-05,8,1
0.0006485239,3.017472e-06,8,1
0.0005378332,4.677511e-05,8,1
0.0005183853,0.0001166253,8,1
0.0005606844,0.0002023578,8,1
0.0006201624,0.0002918179,8,1
0.0006584098,0.0003751195,8,1
0.0006682958,0.0004467524,8,1
0.0006619753,0.0004979651,8,1
0.0006618132,0.0005256782,8,1
0.0006854748,0.0005303781,8,1
0.0007436562,0.0005188715,8,1
0.0008434886,0.0005016926,8,1
0.0009822167,0.0004898618,8,1
0.001130182,0.0004858102,8,1
0.001234391,0.0004851619,8,1
0.001253028,0.0004858102,8,1
0.001169402,0.0004846757,8,1
0.001001989,0.0004781931,8,1
0.0007906552,0.000462959,8,1
0.0005877494,0.0004435111,8,1
0.0004271425,0.0004235771,8,1
0.0003195311,0.0004051016,8,1
0.0002530843,0.000386302,8,1
0.00021273,0.0003649094,8,1
0.0001884202,0.0003428685,8,1
0.0001816135,0.0003248792,8,1
0.0001902029,0.0003124002,8,1
0.0002043026,0.0003038107,8,1
0.000200251,0.0002976523,8,1
0.0001485521,0.0002934386,8,1
3.299956e-05,0.0002864697,8,1
-0.0001360346,0.00027707,8,1
-0.0003378059,0.0002670219,8,1
-0.0005559457,0.0002584324,8,1
-0.0007692237,0.0002501671,8,1
-0.0009593263,0.0002376881,8,1
-0.00111734,0.0002161334,8,1
-0.001243103,0.0001809652,8,1
-0.001348121,0.0001320215,8,1
-0.00144617,7.351589e-05,8,1
-0.001546489,1.112074e-05,8,1
-0.001644052,-5.240886e-05,8,1
-0.001722978,-0.0001136696,8,1
-0.001769815,-0.0001702304,8,1
-0.001782132,-0.0002217671,8,1
-0.001768032,-0.0002676316,8,1
-0.001741454,-0.0003049066,8,1
-0.001700937,-0.0003285682,8,1
-0.001629628,-0.0003334301,8,1
-0.001511321,-0.0003180339,8,1
-0.001349417,-0.0002843243,8,1
-0.001167904,-0.0002418632,8,1
-0.0009876877,-0.0002000504,8,1
-0.0008136295,-0.0001640719,8,1
-0.000628551,-0.0001355484,8,1
-0.0004063595,-0.0001079973,8,1
-0.0001430034,-7.574627e-05,8,1
0.0001334801,-3.960571e-05,8,1
0.0003969983,-8.651231e-06,8,1
0.0006344241,1.002961e-07,8,1
0.0008363577,-3.101625e-05,8,1
0.0009940475,-0.00010978,8,1
0.001101011,-0.0002269532,8,1
0.001147361,-0.000358064,8,1
0.001126293,-0.0004776682,8,1
0.001044774,-0.0005650214,8,1
0.0009241972,-0.0006076446,8,1
0.0007945448,-0.0006034309,8,1
0.0006951987,-0.0005611319,8,1
0.0006789921,-0.0004907955,8,1
0.0007903311,-0.0004031182,8,1
0.001030998,-0.0003031239,8,1
0.001346216,-0.0001955125,8,1
0.001649765,-8.725291e-05,8,1
0.001871633,1.193106e-05,8,1
0.001982486,9.442231e-05,8,1
0.001993993,0.0001576278,8,1
0.001927222,0.0002034923,8,1
0.001787359,0.0002363916,8,1
0.00157408,0.000259729,8,1
0.001301162,0.0002749631,8,1
0.001001665,0.0002863077,8,1
0.0007167534,0.0003004074,8,1
0.0004851619,0.0003289309,8,1
0.0003196932,0.0003683128,8,1
0.0002034923,0.0003963501,8,1
0.0001022015,0.0003926226,8,1
-6.706447e-06,0.0003576164,8,1
-0.0001276072,0.0003098072,8,1
-0.000261149,0.0002764217,8,1
-0.0004105732,0.0002760976,8,1
-0.0005719902,0.0003089969,8,1
-0.0007329211,0.0003650715,8,1
-0.0008875313,0.0004195254,8,1
-0.001036793,0.0004448076,8,1
-0.001186704,0.0004328148,8,1
-0.001343097,0.0003939191,8,1
-0.001499976,0.0003427064,8,1
-0.001642918,0.0002903593,8,1
-0.001751988,0.0002412535,8,1
-0.001809521,0.0001974959,8,1
-0.001812924,0.0001589243,8,1
-0.001768843,0.0001252147,8,1
-0.001684244,9.863601e-05,8,1
-0.001558158,8.615699e-05,8,1
-0.001387503,8.761557e-05,8,1
-0.001173415,0.0001018773,8,1
-0.0009350164,0.000128456,8,1
-0.0007071526,0.0001647587,8,1
-0.0005152673,0.0002049509,8,1
-0.0003630881,0.0002383363,8,1
-0.000241377,0.0002581083,8,1
-0.0001256624,0.0002686426,8,1
1.144487e-05,0.0002887387,8,1
0.0001820997,0.000334117,8,1
0.000378847,0.0003953777,8,1
0.0005812666,0.0004318424,8,1
0.0007582422,0.0004004017,8,1
0.0008799533,0.0002859836,8,1
0.0009219283,0.0001052807,8,1
0.0008833567,-0.0001026491,8,1
0.000795031,-0.0002953447,8,1
0.0006854748,-0.0004450931,8,1
0.0005652222,-0.0005446012,8,1
0.0004461041,-0.0005982448,8,1
0.0003488649,-0.0006191512,8,1
0.0002947351,-0.0006209339,8,1
0.000289387,-0.0006202856,8,1
0.0003028383,-0.0006304958,8,1
0.0003010556,-0.0006572366,8,1
0.0002795009,-0.0007026148,8,1
0.0002535705,-0.0007663065,8,1
0.0002490327,-0.0008397221,8,1
0.000289549,-0.0009082757,8,1
0.0003785229,-0.0009478196,8,1
0.0004919686,-0.0009366371,8,1
0.0005939078,-0.0008646801,8,1
0.000658896,-0.0007350279,8,1
0.0006747784,-0.0005603215,8,1
0.0006383138,-0.0003570916,8,1
0.0005619809,-0.0001491618,8,1
0.0004660382,4.191315e-05,8,1
0.0003624784,0.0002072198,8,1
0.0002600531,0.0003581026,8,1
0.0001663793,0.0005029891,8,1
8.226741e-05,0.0006282657,8,1
3.827799e-06,0.0007041123,8,1
-7.33153e-05,0.0007092984,8,1
-0.0001436516,0.0006481997,8,1
-0.0001968091,0.0005456123,8,1
-0.0002319772,0.0004386491,8,1
-0.0002647144,0.0003495132,8,1
-0.0003120375,0.0002778803,8,1
-0.0003749188,0.0002128921,8,1
-0.000439907,0.0001464453,8,1
-0.0004890127,8.064677e-05,8,1
-0.0005165638,1.825161e-05,8,1
-0.0005305015,-4.171256e-05,8,1
-0.0005429805,-0.0001031353,8,1
-0.0005684248,-0.0001676373,8,1
-0.000611048,-0.0002297083,8,1
-0.0006573986,-0.0002812451,8,1
-0.000683005,-0.0003143064,8,1
-0.0006690673,-0.0003271096,8,1
-0.0006045654,-0.0003262992,8,1
-0.0004883645,-0.0003190063,8,1
-0.0003450988,-0.0003092824,8,1
-0.0002151224,-0.0002982619,8,1
-0.0001282554,-0.0002904828,8,1
-9.470791e-05,-0.0002867553,8,1
-0.0001177212,-0.0002809209,8,1
-0.0001921092,-0.0002653627,8,1
-0.0003015032,-0.0002366771,8,1
-0.0004243487,-0.0002032917,8,1
-0.0005314739,-0.0001710407,8,1
-0.0005977586,-0.0001378173,8,1
-0.0006081308,-9.600444e-05,8,1
-0.0005612939,-4.268495e-05,8,1
-0.0004684305,1.9224e-05,8,1
-0.0003468815,8.42122e-05,8,1
-0.0002088019,0.000148228,8,1
-5.872941e-05,0.0002125679,8,1
0.0001030118,0.0002773941,8,1
0.000274801,0.0003418961,8,1
0.0004441593,0.0004070464,8,1
0.0006007145,0.0004712243,8,1
0.0007447907,0.0005305402,8,1
0.0008843291,0.0005838597,8,1
0.001020626,0.0006318311,8,1
0.001150765,0.0006757508,8,1
0.001275879,0.0007148086,8,1
0.001381222,0.0007384702,8,1
0.001446859,0.0007245325,8,1
0.001453828,0.0006639201,8,1
0.00138657,0.000562305,8,1
0.001232122,0.0004349216,8,1
0.0009942095,0.0003002453,8,1
0.0007097846,0.0001676758,8,1
0.0004334631,3.93201e-05,8,1
0.0001989545,-7.882551e-05,8,1
1.630683e-05,-0.0001702304,8,1
-0.00010978,-0.0002188499,8,1
-0.0001836818,-0.0002254946,8,1
-0.0002138259,-0.0002028055,8,1
-0.0002152845,-0.0001608306,8,1
-0.000208964,-0.0001188556,8,1
-0.0002157707,-0.0001136696,8,1
-0.000251263,-0.0001741199,8,1
-0.0003274337,-0.0003011791,8,1
-0.0004403932,-0.0004629203,8,1
-0.0005650214,-0.0006249856,8,1
-0.0006684191,-0.0007653341,8,1
-0.0007199558,-0.0008731075,8,1
-0.0007090974,-0.0009418232,8,1
-0.0006444334,-0.0009731018,8,1
-0.0005373082,-0.0009753707,8,1
-0.0004034423,-0.0009581918,8,1
-0.0002716832,-0.0009325854,8,1
-0.0001908126,-0.0009137859,8,1
-0.0002045882,-0.0009103825,8,1
-0.0003057169,-0.0009167031,8,1
-0.0004470379,-0.0009160548,8,1
-0.0005747453,-0.0008949863,8,1
-0.0006467023,-0.0008486357,8,1
-0.0006342233,-0.0007763545,8,1
-0.0005238568,-0.0006745775,8,1
-0.0003151167,-0.0005399013,8,1
-2.518189e-05,-0.0003676259,8,1
0.0003153174,-0.0001551583,8,1
0.0006700786,8.761557e-05,8,1
0.001001665,0.000341734,8,1
0.001269073,0.0005854804,8,1
0.001424007,0.0008052412,8,1
0.00142579,0.001002799,8,1
0.00127199,0.001189661,8,1
0.001017385,0.00136145,8,1
0.0007462493,0.001496451,8,1
0.0005238955,0.001569542,8,1
0.0003718782,0.001565815,8,1
0.0002718839,0.001490779,8,1
0.000200251,0.001365502,8,1
0.0001445005,0.001224018,8,1
0.0001049566,0.001099066,8,1
8.453633e-05,0.001011226,8,1
7.043665e-05,0.0009546655,8,1
4.191315e-05,0.0009092872,8,1
-1.837515e-05,0.000854347,8,1
-0.0001076731,0.0007781762,8,1
-0.0002083157,0.0006801266,8,1
-0.0002899966,0.0005683015,8,1
-0.0003209511,0.00046069,8,1
-0.0002916173,0.0003723644,8,1
-0.0002254946,0.0003122381,8,1
-0.0001553203,0.0002806354,8,1
-0.0001045939,0.0002764217,8,1
-8.757704e-05,0.0002906835,8,1
-0.0001065387,0.0002991108,8,1
-0.000142031,0.0002817699,8,1
-0.0001645581,0.000225047,8,1
-0.0001467309,0.0001318594,8,1
-8.790117e-05,1.97102e-05,8,1
-1.3027e-05,-8.935975e-05,8,1
3.996837e-05,-0.0001796301,8,1
4.985435e-05,-0.000243808,8,1
2.538249e-05,-0.00027849,8,1
-9.947754e-06,-0.0002836761,8,1
-3.960571e-05,-0.0002681178,8,1
-6.521203e-05,-0.0002468872,8,1
-9.940781e-05,-0.0002368392,8,1
-0.0001512687,-0.000246401,8,1
-0.0002250084,-0.0002793003,8,1
-0.0003154408,-0.0003348887,8,1
-0.0004096008,-0.0004173799,8,1
-0.0004898231,-0.0005264499,8,1
-0.0005452494,-0.0006573986,8,1
-0.0005718282,-0.0008039057,8,1
-0.000589007,-0.0009612711,8,1
-0.0006345474,-0.001117826,8,1
-0.0007347037,-0.001254285,8,1
-0.0008752144,-0.001345528,8,1
-0.00101378,-0.001372593,8,1
-0.001106968,-0.001327215,8,1
-0.001125929,-0.001213769,8,1
-0.001068072,-0.001042304,8,1
-0.0009578677,-0.000827243,8,1
-0.0008314567,-0.0005834968,8,1
-0.0007065044,-0.0003215994,8,1
-0.0005611319,-6.0188e-05,8,1
-0.0003642225,0.0001688103,8,1
-0.0001120489,0.0003289309,8,1
0.0001560072,0.0003945674,8,1
0.000378847,0.0003631267,8,1
0.0005130371,0.0002577842,8,1
0.0005493398,0.0001248906,8,1
0.0005037994,8.365628e-06,8,1
0.0004093153,-6.634648e-05,8,1
0.0002908455,-9.179074e-05,8,1
0.000170593,-7.769106e-05,8,1
7.886404e-05,-4.171256e-05,8,1
4.466826e-05,-3.627206e-06,8,1
6.816773e-05,2.538249e-05,8,1
0.0001198666,4.239934e-05,8,1
0.0001566554,5.19612e-05,8,1
0.0001406109,6.168512e-05,8,1
4.969229e-05,7.562274e-05,8,1
-0.0001165867,9.604298e-05,8,1
-0.0003327818,0.0001200286,8,1
-0.0005509217,0.0001479039,8,1
-0.0007014804,0.0001757791,8,1
-0.0007257902,0.0002013854,8,1
-0.0006149375,0.0002211574,8,1
-0.0004277521,0.0002336365,8,1
-0.0002574215,0.000242388,8,1
-0.0001689338,0.0002488706,8,1
-0.0001549962,0.0002551911,8,1
-0.00015451,0.0002608634,8,1
-0.0001067007,0.0002590807,8,1
1.558884e-06,0.0002431983,8,1
0.000150659,0.0002122438,8,1
0.0003205035,0.0001786963,8,1
0.0005042856,0.0001534141,8,1
0.0007036261,0.0001402868,8,1
0.0009159319,0.0001430419,8,1
0.001121593,0.0001535762,8,1
0.001285765,0.0001466074,8,1
0.001382194,9.977047e-05,8,1
0.001413635,1.436204e-05,8,1
0.001406829,-8.741498e-05,8,1
0.001394025,-0.0001737958,8,1
0.001385112,-0.0002235498,8,1
0.001363233,-0.0002394322,8,1
0.001298569,-0.0002311669,8,1
0.001185123,-0.0002104225,8,1
0.001045584,-0.0001874093,8,1
0.0008994011,-0.0001658546,8,1
0.0007558112,-0.0001477033,8,1
0.0006175694,-0.0001363587,8,1
0.000485324,-0.0001295519,8,1
0.0003675024,-0.0001279313,8,1
0.0002707494,-0.0001289037,8,1
0.0001911753,-0.0001295519,8,1
0.0001227837,-0.0001232314,8,1
5.795762e-05,-0.0001003802,8,1
-9.137427e-06,-5.386745e-05,8,1
-8.984595e-05,1.841368e-05,8,1
-0.0002070192,0.0001038221,8,1
-0.0003912874,0.0001876099,8,1
-0.0006562641,0.0002676702,8,1
-0.0009732639,0.0003527545,8,1
-0.001275191,0.0004441593,8,1
-0.001485066,0.0005431813,8,1
-0.001531093,0.0006559788,8,1
-0.001369514,0.0007841726,8,1
-0.001008918,0.0009165801,8,1
-0.0005264499,0.001029864,8,1
-2.923353e-05,0.001099552,8,1
0.0003769022,0.001105386,8,1
0.0006211348,0.00104445,8,1
0.0006869333,0.0009293833,8,1
0.0006289139,0.0007861174,8,1
0.000547233,0.0006415551,8,1
0.0005336195,0.0005104441,8,1
0.0006318311,0.0003944053,8,1
0.0008254994,0.0002859836,8,1
0.001049474,0.0001806411,8,1
0.001217212,7.886404e-05,8,1
0.001260969,-1.497178e-05,8,1
0.001162109,-9.762509e-05,8,1
0.0009523966,-0.00016942,8,1
0.0006903367,-0.0002295462,8,1
0.0004298976,-0.0002804347,8,1
0.0001974959,-0.0003235441,8,1
-1.221667e-05,-0.0003557951,8,1
-0.0002170672,-0.0003768636,8,1
-0.0004222419,-0.0003945287,8,1
-0.0006066722,-0.0004256453,8,1
-0.0007382692,-0.0004839888,8,1
-0.0007964507,-0.0005651835,8,1
-0.0007935334,-0.000646054,8,1
-0.0007614446,-0.0006966184,8,1
-0.0007355141,-0.0007008321,8,1
-0.0007360002,-0.0006669604,8,1
-0.0007656582,-0.0006113721,8,1
-0.0008183295,-0.0005486528,8,1
-0.0008873693,-0.0004859335,8,1
-0.0009679157,-0.0004227281,8,1
-0.001047652,-0.0003559572,8,1
-0.001110695,-0.0002825416,8,1
-0.00114797,-0.0002086398,8,1
-0.001161746,-0.0001412206,8,1
-0.001171632,-7.947377e-05,8,1
-0.001195293,-3.166451e-05,8,1
-0.001226572,-9.785688e-06,8,1
-0.001230948,-2.42095e-05,8,1
-0.001163042,-6.796714e-05,8,1
-0.0009850947,-0.0001251762,8,1
-0.0007013183,-0.0001780095,8,1
-0.0003648708,-0.0002149604,8,1
-4.608832e-05,-0.0002271153,8,1
0.0002057612,-0.0002154466,8,1
0.0003817642,-0.0001878955,8,1
0.0004969927,-0.0001561307,8,1
0.0005742979,-0.0001224211,8,1
0.0006326414,-8.40116e-05,8,1
0.0006785059,-4.122636e-05,8,1
0.0007026537,-3.303076e-06,8,1
0.0006922815,2.01964e-05,8,1
0.0006443101,3.170304e-05,8,1
0.0005707325,3.640293e-05,8,1
0.0004861343,3.202716e-05,8,1
0.0004025085,1.209313e-05,8,1
0.0003313618,-2.388537e-05,8,1
0.0002804733,-6.829127e-05,8,1
0.0002412535,-0.0001018388,8,1
0.000190365,-0.0001032974,8,1
9.733949e-05,-5.759496e-05,8,1
-4.754691e-05,4.531652e-05,8,1
-0.0002348944,0.000205275,8,1
-0.0004314796,0.0004072085,8,1
-0.0005925725,0.0006114109,8,1
-0.0006833291,0.0007755831,8,1
-0.0006920806,0.0008736328,8,1
-0.0006363301,0.0009034528,8,1
-0.0005805797,0.0008775223,8,1
-0.0006060239,0.0008071859,8,1
-0.0007466965,0.000693416,8,1
-0.0009667812,0.0005396159,8,1
-0.001185245,0.0003657197,8,1
-0.001327215,0.0001973338,8,1
-0.001357521,5.974033e-05,8,1
-0.001277623,-3.668853e-05,8,1
-0.001114585,-9.600444e-05,8,1
-0.0008990379,-0.0001302002,8,1
-0.0006512401,-0.000147055,8,1
-0.0003792946,-0.0001541859,8,1
-9.179074e-05,-0.0001525652,8,1
0.0001889064,-0.0001480274,8,1
0.0004243874,-0.0001434896,8,1
0.0005851563,-0.0001397621,8,1
0.0006747784,-0.000134576,8,1
0.000728098,-0.0001289037,8,1
0.0007880622,-0.0001159385,8,1
0.0008757396,-8.660465e-05,8,1
0.000973303,-4.511593e-05,8,1
0.001038615,-2.89094e-05,8,1
0.001026623,-8.595638e-05,8,1
0.0009277626,-0.0002392702,8,1
0.0007806072,-0.0004679443,8,1
0.0006585719,-0.0007285453,8,1
0.0006243761,-0.0009734259,8,1
0.0006904988,-0.001163366,8,1
0.0008101031,-0.001270978,8,1
0.0009071803,-0.001287346,8,1
0.0009301936,-0.001222034,8,1
0.0008807636,-0.001098054,8,1
0.0007866036,-0.0009470092,8,1
0.0006728336,-0.0008006644,8,1
0.0005673291,-0.0006792775,8,1
0.0005047718,-0.000586252,8,1
0.0005110924,-0.0005108916,8,1
0.0005825632,-0.0004345588,8,1
0.0006817472,-0.0003423437,8,1
0.000748032,-0.0002319772,8,1
0.0007323117,-0.0001079973,8,1
0.0006140039,2.489629e-05,8,1
0.0004130428,0.0001663793,8,1
0.0001850168,0.0003185587,8,1
-9.299493e-06,0.0004843516,8,1
-0.0001319829,0.0006601926,8,1
-0.0001724993,0.0008337647,8,1
-0.0001412206,0.0009895095,8,1
-6.456377e-05,0.001096149,8,1
1.954813e-05,0.00112532,8,1
8.42122e-05,0.001079456,8,1
0.0001088461,0.0009877268,8,1
7.853991e-05,0.000886598,8,1
-1.844488e-06,0.0007955172,8,1
-0.0001036215,0.00071335,8,1
-0.0002002124,0.0006426895,8,1
-0.000271197,0.0006007145,8,1
-0.0002906449,0.0006071971,8,1
-0.0002237119,0.0006579236,8,1
-4.80331e-05,0.0007277738,8,1
0.0002158093,0.0007832003,8,1
0.0005096338,0.0007977861,8,1
0.000772828,0.0007644006,8,1
0.0009630929,0.000693578,8,1
0.001062601,0.0006021731,8,1
0.001079942,0.0005062304,8,1
0.001038778,0.0004128807,8,1
0.0009750858,0.0003221241,8,1
0.0009230627,0.0002303951,8,1
0.0008932427,0.0001389903,8,1
0.0008652053,5.212327e-05,8,1
0.0008042688,-2.89094e-05,8,1
0.0006809369,-0.0001088076,8,1
0.0004900239,-0.000191785,8,1
0.0002547049,-0.0002757348,8,1
3.665733e-06,-0.0003515814,8,1
-0.000246239,-0.0004091146,8,1
-0.0004742648,-0.0004382863,8,1
-0.000655778,-0.0004386105,8,1
-0.0007698719,-0.0004138145,8,1
-0.0008189777,-0.0003697327,8,1
-0.0008233535,-0.0003167374,8,1
-0.0008005023,-0.0002650386,8,1
-0.0007666306,-0.0002232257,8,1
-0.0007424829,-0.0001994021,8,1
-0.0007543136,-0.0001981056,8,1
-0.0008186536,-0.0002136638,8,1
-0.0009329096,-0.0002381357,8,1
-0.001074717,-0.0002626076,8,1
-0.001209069,-0.0002872415,8,1
-0.001299663,-0.0003146305,8,1
-0.001323001,-0.0003619536,8,1
-0.001279567,-0.0004331002,8,1
-0.001183949,-0.0005078124,8,1
-0.001048138,-0.0005564319,8,1
-0.0008844521,-0.0005651835,8,1
-0.0007116905,-0.0005436288,8,1
-0.0005535148,-0.0005066779,8,1
-0.0004439586,-0.0004627582,8,1
-0.000405063,-0.0004096008,8,1
-0.0004285624,-0.0003470436,8,1
-0.0004835025,-0.0002827037,8,1
-0.0005283947,-0.0002271153,8,1
-0.0005298533,-0.0001870851,8,1
-0.0004659995,-0.0001660166,8,1
-0.0003410472,-0.0001621271,8,1
-0.0001835197,-0.0001682856,8,1
-4.932962e-05,-0.0001857886,8,1
1.22552e-05,-0.000221605,8,1
-2.194059e-05,-0.0002775176,8,1
-0.0001327933,-0.0003412093,8,1
-0.0002720074,-0.0003980942,8,1
-0.0003906392,-0.0004368278,8,1
-0.0004612996,-0.0004488206,8,1
-0.0004867439,-0.000427428,8,1
-0.0004862577,-0.0003694086,8,1
-0.0004907955,-0.0002768693,8,1
-0.0005160777,-0.0001585616,8,1
-0.0005471942,-2.728874e-05,8,1
-0.0005379565,9.879808e-05,8,1
-0.000437476,0.0002070577,8,1
-0.0002292221,0.0002979764,8,1
5.504044e-05,0.0003791712,8,1
0.0003574544,0.0004524247,8,1
0.000621783,0.0005047718,8,1
0.0008066997,0.0005172509,8,1
0.0009044252,0.0004786793,8,1
0.0009504518,0.0003952156,8,1
0.0009937233,0.0002973281,8,1
0.001063249,0.0002232643,8,1
0.001160489,0.0002044647,8,1
0.001273935,0.0002472499,8,1
0.001385436,0.000331848,8,1
0.001466631,0.000433301,8,1
0.001492561,0.0005428572,8,1
0.001433083,0.0006658648,8,1
0.001271342,0.0008054032,8,1
0.00102095,0.0009498035,8,1
0.0007186982,0.001074432,8,1
0.0004107739,0.001147848,8,1
0.0001440143,0.001149792,8,1
-5.386745e-05,0.001076863,8,1
-0.0001752544,0.0009400796,8,1
-0.0002267911,0.0007663454,8,1
-0.0002306807,0.000586939,8,1
-0.0002258187,0.0004305459,8,1
-0.0002441321,0.0003133726,8,1
-0.0002911311,0.0002357433,8,1
-0.0003535262,0.0001858272,8,1
-0.0004112214,0.0001440143,8,1
-0.0004484965,8.956036e-05,8,1
-0.0004564377,1.808955e-05,8,1
-0.0004277521,-6.796714e-05,8,1
-0.0003587123,-0.0001509446,8,1
-0.000253856,-0.000201671,8,1
-0.0001410586,-0.0002003745,8,1
-6.877746e-05,-0.0001585616,8,1
-6.748094e-05,-0.0001161005,8,1
-0.0001282554,-0.0001105903,8,1
-0.000221605,-0.0001616409,8,1
-0.0003233821,-0.0002640662,8,1
-0.0004331002,-0.0003955011,8,1
-0.0005753936,-0.0005311498,8,1
-0.0007713305,-0.0006578848,8,1
-0.001001301,-0.0007731132,8,1
-0.00120291,-0.0008802384,8,1
-0.001312953,-0.0009797465,8,1
-0.001303877,-0.001071313,8,1
-0.001189297,-0.001150401,8,1
-0.001002111,-0.001210852,8,1
-0.0007797579,-0.001238079,8,1
-0.000556756,-0.001214417,8,1
-0.000360495,-0.001135815,8,1
-0.0001865989,-0.001019128,8,1
9.175954e-06,-0.0008825073,8,1
0.000269777,-0.0007397278,8,1
0.0006050903,-0.0005946793,8,1
0.0009710342,-0.0004463896,8,1
0.001282848,-0.0002898345,8,1
0.001463227,-0.0001237176,8,1
0.001487375,4.888196e-05,8,1
0.001382032,0.0002218057,8,1
0.001192254,0.0003890571,8,1
0.0009681169,0.0005530673,8,1
0.0007614834,0.0007271256,8,1
0.0005979594,0.0009183628,8,1
0.000473007,0.001112679,8,1
0.0003746333,0.001267614,8,1
0.000307052,0.001336654,8,1
0.0002974902,0.001297272,8,1
0.0003705817,0.001168754,8,1
0.0005253541,0.001000044,8,1
0.0007329599,0.0008342508,8,1
0.0009527208,0.0006856368,8,1
0.001139906,0.0005509604,8,1
0.001234553,0.0004188772,8,1
0.001178478,0.0002739907,8,1
0.0009702237,0.000110953,8,1
0.0006713751,-6.618442e-05,8,1
0.0003712299,-0.0002452666,8,1
0.0001446626,-0.0004120317,8,1
3.624086e-05,-0.0005543251,8,1
5.714729e-05,-0.0006640433,8,1
0.0001765894,-0.0007358382,8,1
0.0003227724,-0.0007661444,8,1
0.0004368664,-0.0007512344,8,1
0.0005110924,-0.0006896496,8,1
0.0005736496,-0.0005885208,8,1
0.0006407447,-0.000462272,8,1
0.0006987641,-0.0003290543,8,1
0.0007266394,-0.0002135018,8,1
0.000720805,-0.0001305243,8,1
0.0006917953,-8.611845e-05,8,1
0.0006511169,-7.137051e-05,8,1
0.0006091419,-6.829127e-05,8,1
0.0005742979,-6.099833e-05,8,1
0.0005384815,-4.495386e-05,8,1
0.000478031,-2.356124e-05,8,1
0.0003694472,-2.81688e-06,8,1
0.0001994406,2.311357e-05,8,1
-2.712668e-05,6.606088e-05,8,1
-0.000290969,0.0001321835,8,1
-0.0005578905,0.0002154851,8,1
-0.0007885094,0.0003017039,8,1
-0.0009398784,0.0003718782,8,1
-0.000991091,0.0004196875,8,1
-0.0009557608,0.0004499937,8,1
-0.0008752144,0.0004670106,8,1
-0.0008000161,0.0004718725,8,1
-0.0007833233,0.0004670106,8,1
-0.0008557665,0.0004571246,8,1
-0.001008108,0.0004402698,8,1
-0.001197238,0.0004047775,8,1
-0.001370162,0.0003331446,8,1
-0.00148928,0.0002243987,8,1
-0.001556537,9.490851e-05,8,1
-0.001602077,-2.696461e-05,8,1
-0.001651831,-0.0001238797,8,1
-0.001706772,-0.0001888679,8,1
-0.001751177,-0.0002301945,8,1
-0.001765763,-0.0002596904,8,1
-0.00172865,-0.0002852967,8,1
-0.001626387,-0.0003092824,8,1
-0.001457191,-0.0003267854,8,1
-0.001235323,-0.0003297026,8,1
-0.0009894704,-0.0003170615,8,1
-0.0007586894,-0.0002976137,8,1
-0.0005695592,-0.0002749245,8,1
-0.000430021,-0.0002504527,8,1
-0.0003378059,-0.0002254946,8,1
-0.0002870794,-0.0002034537,8,1
-0.0002754107,-0.0001864369,8,1
-0.000303286,-0.0001734716,8,1
-0.0003582261,-0.0001647201,8,1
-0.0004238625,-0.0001562927,8,1
-0.0004778303,-0.000144624,8,1
-0.0005050572,-0.0001261486,8,1
-0.0005152673,-9.892161e-05,8,1
-0.0005387668,-6.213279e-05,8,1
-0.000589007,-1.20546e-05,8,1
-0.0006390853,5.066468e-05,8,1
-0.0006514022,0.0001329939,8,1
-0.0006071584,0.000239957,8,1
-0.0005104054,0.0003525924,8,1
-0.0003786463,0.0004239012,8,1
-0.0002201465,0.0004091532,8,1
-1.772689e-05,0.0002958695,8,1
0.0002410915,0.0001124116,8,1
0.0005352402,-8.82253e-05,8,1
0.0008143168,-0.000256287,8,1
0.001051743,-0.0003637363,8,1
0.001268911,-0.0004078181,8,1
0.001509092,-0.00039777,8,1
0.001796921,-0.0003486642,8,1
0.002106629,-0.000276059,8,1
0.002378413,-0.0001930815,8,1
0.002547448,-0.000112211,8,1
0.00256009,-4.592625e-05,8,1
0.002397861,9.106227e-07,8,1
0.002102739,3.089271e-05,8,1
0.001738253,4.969229e-05,8,1
0.001376684,6.071273e-05,8,1
0.001061791,6.184718e-05,8,1
0.0007955172,5.860588e-05,8,1
0.0005527431,6.573675e-05,8,1
0.0003096451,9.604298e-05,8,1
6.654708e-05,0.0001571416,8,1
-0.0001562927,0.0002478982,8,1
-0.0003259751,0.0003593992,8,1
-0.0004120317,0.0004773828,8,1
-0.0004074939,0.0005927734,8,1
-0.0003267854,0.0007102708,8,1
-0.0001974573,0.0008324682,8,1
-5.046408e-05,0.0009496415,8,1
9.68533e-05,0.00102954,8,1
0.0002320158,0.001042829,8,1
0.0003467581,0.000975572,8,1
0.0004350837,0.0008404093,8,1
0.0004919686,0.0006704027,8,1
0.000514982,0.0005026649,8,1
0.0005065545,0.0003636129,8,1
0.0004720346,0.0002650771,8,1
0.0004200116,0.0002043026,8,1
0.0003628026,0.0001738343,8,1
0.0003218,0.0001696206,8,1
0.0003102934,0.0001884202,8,1
0.000324393,0.0002248849,8,1
0.0003414099,0.000264753,8,1
0.0003227724,0.0002976523,8,1
0.0002359054,0.0003245551,8,1
7.691926e-05,0.0003446512,8,1
-0.0001290658,0.0003558337,8,1
-0.0003472056,0.000356644,8,1
-0.0005463839,0.000341572,8,1
-0.0007144455,0.0003031625,8,1
-0.0008533355,0.0002305572,8,1
-0.0009682399,0.0001203528,8,1
-0.0010577,-1.853722e-05,8,1
-0.001117664,-0.000166989,8,1
-0.001149591,-0.0003026377,8,1
-0.001150725,-0.000410249,8,1
-0.00111183,-0.0004836646,8,1
-0.001026421,-0.0005270981,8,1
-0.0009051964,-0.0005528665,8,1
-0.0007771649,-0.0005716661,8,1
-0.000675712,-0.0005886829,8,1
-0.0006330888,-0.0006079687,8,1
-0.0006700397,-0.0006295234,8,1
-0.000782351,-0.0006528608,8,1
-0.0009405267,-0.0006695535,8,1
-0.00109854,-0.000675874,8,1
-0.001206638,-0.00067085,8,1
-0.001217658,-0.0006565883,8,1
-0.001106968,-0.0006366542,8,1
-0.0008901244,-0.0006115342,8,1
-0.0006089411,-0.0005818762,8,1
-0.0003243544,-0.0005504355,8,1
-8.757704e-05,-0.0005233706,8,1
8.097089e-05,-0.0005014918,8,1
0.0002008992,-0.0004880404,8,1
0.000307052,-0.0004789647,8,1
0.0004204978,-0.0004724821,8,1
0.0005396159,-0.0004643789,8,1
0.0006412309,-0.0004540067,8,1
0.0007005468,-0.0004426621,8,1
0.0007078398,-0.000434883,8,1
0.0006729957,-0.0004342347,8,1
0.0006148142,-0.0004405553,8,1
0.0005509604,-0.0004444448,8,1
0.0005034753,-0.0004353692,8,1
0.0004838654,-0.0004096008,8,1
0.0004796517,-0.0003684362,8,1
0.000475438,-0.0003199787,8,1
0.0004652279,-0.0002653627,8,1
0.0004486972,-0.0002045882,8,1
0.0004127187,-0.0001400862,8,1
0.0003396272,-7.412562e-05,8,1
0.0002224539,-7.192643e-06,8,1
7.594687e-05,5.325772e-05,8,1
-6.261898e-05,0.0001005808,8,1
-0.0001477033,0.0001302388,8,1
-0.000152079,0.0001419075,8,1
-7.056019e-05,0.000138342,8,1
8.988449e-05,0.0001237561,8,1
0.0003062417,0.0001026876,8,1
0.0005469088,8.145709e-05,8,1
0.0007908173,6.281957e-05,8,1
0.001035536,4.304761e-05,8,1
0.001287224,1.776542e-05,8,1
0.001545881,-1.643037e-05,8,1
0.001791248,-5.970181e-05,8,1
0.001998855,-0.0001057284,8,1
0.002153303,-0.0001467309,8,1
0.002249085,-0.0001786577,8,1
0.002277284,-0.0001998883,8,1
0.002224126,-0.0002131776,8,1
0.00208086,-0.0002217671,8,1
0.001856561,-0.0002241981,8,1
0.001572298,-0.0002113949,8,1
0.001233742,-0.0001726613,8,1
0.000827282,-0.0001146419,8,1
0.0003446512,-6.991193e-05,8,1
-0.00019924,-7.542214e-05,8,1
-0.0007577171,-0.0001407345,8,1
-0.001278919,-0.0002496423,8,1
-0.001717144,-0.0003651949,8,1
-0.002062829,-0.0004478482,8,1
-0.002318082,-0.0004817198,8,1
-0.002472369,-0.000464703,8,1
-0.002504458,-0.0003979321,8,1
-0.002394901,-0.0002901587,8,1
-0.002150831,-0.0001496481,8,1
-0.00181098,1.209313e-05,8,1
-0.001437905,0.0001827479,8,1
-0.001102916,0.0003508097,8,1
-0.0008590078,0.0005073649,8,1
-0.0007244936,0.0006504686,8,1
-0.0006984011,0.0007819037,8,1
-0.0007706822,0.0009105837,8,1
-0.0009252926,0.001042019,8,1
-0.001127226,0.001179288,8,1
-0.001326728,0.001315099,8,1
-0.00146578,0.001437135,8,1
-0.001494466,0.00153956,8,1
-0.001382479,0.00162821,8,1
-0.001135167,0.001706488,8,1
-0.0007854302,0.001772287,8,1
-0.000387722,0.001813289,8,1
-2.330684e-06,0.001816044,8,1
0.0003218,0.001776176,8,1
0.000562305,0.00169563,8,1
0.000723236,0.001580239,8,1
0.0008269579,0.001429031,8,1
0.0008968081,0.001239415,8,1
0.0009478587,0.001021599,8,1
0.0009833511,0.0007938966,8,1
0.001000206,0.0005775391,8,1
0.001002313,0.0003845193,8,1
0.0009961543,0.0002193747,8,1
0.0009886993,7.67572e-05,8,1
0.0009815684,-5.435365e-05,8,1
0.0009614723,-0.0001870851,8,1
0.0009201455,-0.0003366714,8,1
0.0008669881,-0.0005108916,8,1
0.0008248511,-0.0007008321,8,1
0.000795031,-0.0008747282,8,1
0.0007564594,-0.001010863,8,1
0.0006867713,-0.001111343,8,1
0.0005838597,-0.001187028,8,1
0.0004678209,-0.001245047,8,1
0.0003634508,-0.001287995,8,1
0.0002670219,-0.001319922,8,1
0.0001514693,-0.001342935,8,1
-7.678839e-06,-0.001344555,8,1
-0.0002159328,-0.001302743,8,1
-0.0004528722,-0.001194483,8,1
-0.0006796016,-0.001017508,8,1
-0.0008659766,-0.0007915886,8,1
-0.001006649,-0.0005531906,8,1
-0.001113126,-0.000338292,8,1
-0.001199021,-0.0001676373,8,1
-0.001265792,-5.030202e-05,8,1
-0.001295936,1.403791e-05,8,1
-0.001262875,3.818565e-05,8,1
-0.001158829,4.061663e-05,8,1
-0.0009996805,4.207521e-05,8,1
-0.0008086055,5.844381e-05,8,1
-0.0006092652,9.004655e-05,8,1
-0.0004233763,0.0001253768,8,1
-0.0002684419,0.0001443384,8,1
-0.0001525652,0.0001302388,8,1
-7.477388e-05,7.67572e-05,8,1
-1.545797e-05,-9.137427e-06,8,1
5.050261e-05,-0.0001083214,8,1
0.0001440143,-0.0002037779,8,1
0.0002705873,-0.0002851347,8,1
0.0004214702,-0.0003523917,8,1
0.0005780254,-0.0004147869,8,1
0.0007118915,-0.0004838267,8,1
0.0007979482,-0.0005569181,8,1
0.0008327923,-0.0006178547,8,1
0.0008256614,-0.0006570745,8,1
0.0007864416,-0.0006760361,8,1
0.000728098,-0.0006843015,8,1
0.0006798024,-0.0006872186,8,1
0.0006888782,-0.000685598,8,1
0.0007937344,-0.0006718224,8,1
0.0009848097,-0.0006390853,8,1
0.001208136,-0.0005775004,8,1
0.001404397,-0.0004815578,8,1
0.00151914,-0.0003562813,8,1
0.001508282,-0.0002105846,8,1
0.001357236,-4.122636e-05,8,1
0.001082211,0.000160707,8,1
0.00071335,0.0003950536,8,1
0.0002723701,0.0006381517,8,1
-0.000216581,0.0008520781,8,1
-0.0006961322,0.001008147,8,1
-0.001091572,0.00109469,8,1
-0.001359952,0.001117704,8,1
-0.001500948,0.001081077,8,1
-0.001530931,0.0009825408,8,1
-0.00146886,0.0008259855,8,1
-0.001339207,0.0006279415,8,1
-0.001171146,0.0004145014,8,1
-0.0009941703,0.00021273,8,1
-0.0008361567,3.850978e-05,8,1
-0.0007144455,-9.713889e-05,8,1
-0.0006303337,-0.0001838438,8,1
-0.0005646973,-0.0002125294,8,1
-0.0004878783,-0.0001840059,8,1
-0.0003711913,-0.0001063766,8,1
-0.0001953505,-6.176923e-08,8,1
3.802358e-05,0.0001103047,8,1
0.0003000832,0.000200413,8,1
0.0005603603,0.0002537325,8,1
0.0007953551,0.0002662116,8,1
0.0009838373,0.0002475741,8,1
0.001115597,0.0002112714,8,1
0.001201653,0.0001743205,8,1
0.001273773,0.0001526038,8,1
0.001365664,0.0001543865,8,1
0.001495316,0.0001757791,8,1
0.001660461,0.000202682,8,1
0.001839382,0.0002203471,8,1
0.001980703,0.0002224539,8,1
0.002016196,0.0002054371,8,1
0.00188395,0.0001748067,8,1
0.001562412,0.0001323456,8,1
0.001087397,8.275361e-05,8,1
0.00053994,3.008238e-05,8,1
1.776542e-05,-2.501983e-05,8,1
-0.0003998769,-8.465986e-05,8,1
-0.0006750637,-0.0001428413,8,1
-0.0008142778,-0.0001908126,8,1
-0.0008549562,-0.0002196603,8,1
-0.0008483115,-0.000221605,8,1
-0.0008358325,-0.0001977815,8,1
-0.000832267,-0.0001614788,8,1
-0.0008312946,-0.0001235555,8,1
-0.0008238396,-9.29252e-05,8,1
-0.0008055263,-7.639453e-05,8,1
-0.0007789475,-7.023606e-05,8,1
-0.0007475069,-6.099833e-05,8,1
-0.0007146077,-3.344723e-05,8,1
-0.0006870566,7.879432e-06,8,1
-0.0006740913,3.024445e-05,8,1
-0.0006737672,-9.785688e-06,8,1
-0.0006747396,-0.0001279313,8,1
-0.0006637191,-0.0003013411,8,1
-0.0006369784,-0.0004817198,8,1
-0.0005993792,-0.0006233649,8,1
-0.0005676145,-0.0007045596,8,1
-0.0005514079,-0.0007238454,8,1
-0.0005504355,-0.000685598,8,1
-0.0005638869,-0.000598893,8,1
-0.0005925725,-0.0004812336,8,1
-0.000628551,-0.0003626019,8,1
-0.0006622606,-0.0002733039,8,1
-0.0006928909,-0.0002355427,8,1
-0.0007308142,-0.0002517492,8,1
-0.0007914266,-0.0003018274,8,1
-0.0008959587,-0.000360495,8,1
-0.001063858,-0.0004003631,8,1
-0.001284591,-0.0004037664,8,1
-0.001515858,-0.000365357,8,1
-0.001686675,-0.0002820554,8,1
-0.001735295,-0.0001481895,8,1
-0.001637408,4.337174e-05,8,1
-0.001418781,0.0002934386,8,1
-0.001137436,0.0005875872,8,1
-0.0008541459,0.0008971323,8,1
-0.0006068342,0.001193064,8,1
-0.000405225,0.001454476,8,1
-0.0002420253,0.00167132,8,1
-0.0001135075,0.001831441,8,1
-3.117831e-05,0.001923332,8,1
4.151929e-06,0.001940025,8,1
3.202716e-05,0.001880223,8,1
0.0001020394,0.001745708,8,1
0.0002384984,0.00153956,8,1
0.0004273046,0.001268911,8,1
0.0006344241,0.0009554758,8,1
0.00082712,0.0006345862,8,1
0.0009758961,0.0003449753,8,1
0.001073135,0.0001146805,8,1
0.001142175,-3.944364e-05,8,1
0.001232284,-0.0001209625,8,1
0.001382843,-0.0001524032,8,1
0.001580077,-0.0001613168,8,1
0.001765966,-0.000169258,8,1
0.001867581,-0.0001912988,8,1
0.00183371,-0.0002324634,8,1
0.001645227,-0.0002872415,8,1
0.00131283,-0.0003439643,8,1
0.00089146,-0.0003935563,8,1
0.0004665244,-0.0004306693,8,1
0.0001177597,-0.0004578962,8,1
-0.000117235,-0.0004815578,8,1
-0.0002352185,-0.0005086227,8,1
-0.0002530457,-0.0005384427,8,1
-0.000184168,-0.0005705316,8,1
-5.370539e-05,-0.0006084549,8,1
9.101894e-05,-0.0006475127,8,1
0.0002041406,-0.0006833291,8,1
0.0002594049,-0.0007110422,8,1
0.0002582704,-0.0007272488,8,1
0.0002266676,-0.0007309763,8,1
0.000200251,-0.0007246558,8,1
0.0002000889,-0.0007133111,8,1
0.0002232643,-0.0006954839,8,1
0.0002470879,-0.0006669604,8,1
0.0002487085,-0.00062612,8,1
0.0002219677,-0.0005786349,8,1
0.0001898788,-0.0005300153,8,1
0.0001931201,-0.0004813957,8,1
0.0002560015,-0.0004368278,8,1
0.0003683128,-0.0003963114,8,1
0.0004989374,-0.0003577399,8,1
0.000621621,-0.0003151167,8,1
0.0007240463,-0.0002608248,8,1
0.0008045929,-0.0001969711,8,1
0.0008697432,-0.0001302002,8,1
0.0009135009,-6.91016e-05,8,1
0.0009314902,-1.788895e-05,8,1
0.0009256558,2.457216e-05,8,1
0.0009070183,6.022653e-05,8,1
0.0008818981,9.361199e-05,8,1
0.0008559676,0.0001274836,8,1
0.0008152892,0.0001623277,8,1
0.0007321496,0.0001924718,8,1
0.0005861287,0.0002161334,8,1
0.0003791712,0.0002362295,8,1
0.000133318,0.0002615117,8,1
-0.000119828,0.0002952213,8,1
-0.0003496366,0.0003302274,8,1
-0.0005332566,0.0003593992,8,1
-0.0006535091,0.000373823,8,1
-0.0007061802,0.0003700955,8,1
-0.0006992114,0.0003506476,8,1
-0.0006449196,0.0003161277,8,1
-0.0005423322,0.0002662116,8,1
-0.0003844807,0.0001996027,8,1
-0.0001788198,0.0001151667,8,1
3.60788e-05,1.711715e-05,8,1
0.000205275,-8.125649e-05,8,1
0.0002890628,-0.0001600202,8,1
0.0002858215,-0.0002006986,8,1
0.000222616,-0.0001943781,8,1
0.0001305629,-0.0001498101,8,1
2.959619e-05,-8.952183e-05,8,1
-7.201877e-05,-3.539201e-05,8,1
-0.0001755785,-6.176923e-08,8,1
-0.000285945,1.031041e-05,8,1
-0.0004014975,-3.789272e-06,8,1
-0.0005154294,-3.360929e-05,8,1
-0.0006197995,-6.715681e-05,8,1
-0.0007037492,-9.017008e-05,8,1
-0.000760148,-9.486997e-05,8,1
-0.000792561,-8.611845e-05,8,1
-0.0008186536,-7.509801e-05,8,1
-0.0008625733,-7.153257e-05,8,1
-0.0009395542,-7.979791e-05,8,1
-0.00104198,-0.0001008664,8,1
-0.001146187,-0.0001267968,8,1
-0.001230299,-0.0001457585,8,1
-0.001289777,-0.0001558065,8,1
-0.00133467,-0.0001590478,8,1
-0.001387989,-0.0001559686,8,1
-0.001477125,-0.0001472171,8,1
-0.001613746,-0.000134738,8,1
-0.001772246,-0.0001230693,8,1
-0.001895254,-0.0001167488,8,1
-0.001909515,-0.0001156143,8,1
-0.001774353,-0.0001136696,8,1
-0.001498518,-0.0001042698,8,1
-0.001133546,-8.790117e-05,8,1
-0.000747831,-6.780507e-05,8,1
-0.0003933943,-4.884343e-05,8,1
-9.179074e-05,-3.604027e-05,8,1
0.0001561692,-3.101625e-05,8,1
0.0003645853,-3.63644e-05,8,1
0.0005460985,-4.884343e-05,8,1
0.0007114052,-6.229485e-05,8,1
0.0008682846,-7.201877e-05,8,1
0.00101074,-7.769106e-05,8,1
0.001119162,-8.109443e-05,8,1
0.00117232,-8.141856e-05,8,1
0.001154006,-7.412562e-05,8,1
0.00105936,-5.856735e-05,8,1
0.0008955116,-3.393342e-05,8,1
0.0006906608,-8.720959e-07,8,1
0.0004926169,3.121684e-05,8,1
0.0003472443,5.244739e-05,8,1
0.0002905214,6.119892e-05,8,1
0.0003349273,5.844381e-05,8,1
0.0004569625,4.758544e-05,8,1
0.0006118971,3.526847e-05,8,1
0.0007400909,2.894792e-05,8,1
0.0007908173,3.93201e-05,8,1
0.0007357151,6.41161e-05,8,1
0.0005789978,0.000101067,8,1
0.0003715541,0.0001404489,8,1
0.0001843686,0.0001741585,8,1
8.032264e-05,0.0001976579,8,1
9.409818e-05,0.0002054371,8,1
0.0002162954,0.0002023578,8,1
0.0004004017,0.0001979821,8,1
0.0005947181,0.0001979821,8,1
0.0007666696,0.0002072198,8,1
0.0008968081,0.0002315296,8,1
0.0009718445,0.000272208,8,1
0.0009839993,0.0003221241,8,1
0.0009358659,0.0003650715,8,1
0.0008493229,0.0003924605,8,1
0.0007642386,0.0004034809,8,1
0.0007222636,0.0004089912,8,1
0.0007494906,0.0004068843,8,1
0.0008269579,0.0003621543,8,1
0.0008900014,0.0002386605,8,1
0.0008789809,3.996837e-05,8,1
0.0007778521,-0.0001898403,8,1
0.0006178935,-0.0003899909,8,1
0.0004405939,-0.0005181845,8,1
0.0002806354,-0.0005637249,8,1
0.0001469315,-0.0005397392,8,1
3.040651e-05,-0.000469727,8,1
-8.563225e-05,-0.0003718396,8,1
-0.0001994021,-0.0002556388,8,1
-0.0002953447,-0.0001250141,8,1
-0.0003616295,1.338965e-05,8,1
-0.0004029561,0.0001430419,8,1
-0.00042759,0.0002517878,8,1
-0.0004431483,0.000331686,8,1
-0.0004494688,0.0003897054,8,1
-0.0004437966,0.0004405939,8,1
-0.0004240246,0.0004986133,8,1
-0.0004008493,0.0005754323,8,1
-0.0003882082,0.0006760749,8,1
-0.0003839945,0.0008037825,8,1
-0.0003724878,0.0009598516,8,1
-0.0003447747,0.001139906,8,1
-0.0003023136,0.001329199,8,1
-0.0002575835,0.001503582,8,1
-0.0002157707,0.001654141,8,1
-0.0001776853,0.001795138,8,1
-0.0001392759,0.001952828,8,1
-9.389759e-05,0.00212559,8,1
-3.749886e-05,0.002266588,8,1
2.538249e-05,0.002305808,8,1
8.275361e-05,0.002186689,8,1
0.0001094944,0.001882005,8,1
7.367795e-05,0.001408287,8,1
-3.733679e-05,0.000824689,8,1
-0.0002060468,0.0002146748,8,1
-0.0003946908,-0.0003463953,8,1
-0.0005585388,-0.0008050401,8,1
-0.0006544815,-0.001141326,8,1
-0.0006599916,-0.001368703,8,1
-0.0005898174,-0.001516993,8,1
-0.0004933886,-0.001625091,8,1
-0.0004258073,-0.001725571,8,1
-0.0004254832,-0.001833669,8,1
-0.0005055434,-0.001947115,8,1
-0.0006549676,-0.00205975,8,1
-0.0008429634,-0.002163958,8,1
-0.001031931,-0.002251636,8,1
-0.001180707,-0.002310466,8,1
-0.001258337,-0.00232651,8,1
-0.001252016,-0.002294259,8,1
-0.001172766,-0.002219385,8,1
-0.001034687,-0.002111611,8,1
-0.0008475012,-0.001972073,8,1
-0.0006168823,-0.001794773,8,1
-0.0003566054,-0.001576471,8,1
-8.952183e-05,-0.001315708,8,1
0.0001568175,-0.001014428,8,1
0.0003595612,-0.0006859221,8,1
0.0004963444,-0.0003669776,8,1
0.0005533914,-0.0001028112,8,1
0.0005392918,7.983644e-05,8,1
0.000483055,0.0001820997,8,1
0.0004206599,0.0002260194,8,1
0.000376416,0.0002339606,8,1
0.0003519442,0.0002174299,8,1
0.0003305515,0.0001819376,8,1
0.0002955454,0.0001414213,8,1
0.0002454672,0.0001187321,8,1
0.0001950649,0.0001352628,8,1
0.0001558451,0.0001931201,8,1
0.0001367214,0.0002827423,8,1
0.0001394765,0.0003913261,8,1
0.0001543865,0.0004989374,8,1
0.0001603829,0.0005789978,8,1
0.0001305629,0.000611735,8,1
5.56887e-05,0.0005987698,8,1
-5.419158e-05,0.000557281,8,1
-0.0001715269,0.0005109303,8,1
-0.0002619593,0.0004749518,8,1
-0.0003037722,0.0004474007,8,1
-0.000295993,0.0004123946,8,1
-0.0002598524,0.0003579406,8,1
-0.0002227395,0.0002918179,8,1
-0.0002062088,0.0002373639,8,1
-0.0002188499,0.0002135403,8,1
-0.0002556388,0.0002213195,8,1
-0.0002997205,0.0002456293,8,1
-0.0003225718,0.0002660495,8,1
-0.0002995585,0.0002702632,8,1
-0.0002144742,0.0002560015,8,1
-6.504996e-05,0.0002295848,8,1
0.0001255389,0.0002000889,8,1
0.0003300653,0.0001786963,8,1
0.0005198439,0.0001733481,8,1
0.0006700786,0.0001869616,8,1
0.0007634282,0.0002185644,8,1
0.0008003792,0.0002645909,8,1
0.0007985964,0.0003226103,8,1
0.0007846588,0.0003944053,8,1
0.0007773659,0.0004845136,8,1
0.0007820658,0.000591801,8,1
0.0007943827,0.0007068674,8,1
0.0008005413,0.0008164236,8,1
0.0007817416,0.0009044252,8,1
0.0007199947,0.0009541793,8,1
0.0006054144,0.0009506139,8,1
0.0004427008,0.0008925945,8,1
0.0002600531,0.0007854691,8,1
0.0001023635,0.0006366931,8,1
2.04508e-06,0.0004670106,8,1
-2.566809e-05,0.000304459,8,1
2.214118e-05,0.0001618415,8,1
0.0001325077,3.218923e-05,8,1
0.0002663737,-9.940781e-05,8,1
0.0003631267,-0.0002366771,8,1
0.0003772264,-0.0003648708,8,1
0.0002965178,-0.000459679,8,1
0.0001427178,-0.0005008436,8,1
-4.284701e-05,-0.00048723,8,1
-0.0002126914,-0.0004339106,8,1
-0.0003297026,-0.0003613053,8,1
-0.0003796187,-0.0002841623,8,1
-0.0003651949,-0.0002118811,8,1
-0.0003016653,-0.0001501342,8,1
-0.0002062088,-0.0001021629,8,1
-9.859748e-05,-6.715681e-05,8,1
1.072688e-06,-4.041603e-05,8,1
7.238143e-05,-1.950961e-05,8,1
0.0001009049,-4.599598e-06,8,1
9.571884e-05,6.744974e-06,8,1
8.923623e-05,1.241726e-05,8,1
0.0001219734,1.322759e-05,8,1
0.0002184023,9.013889e-06,8,1
0.0003702575,-3.951337e-06,8,1
0.0005381573,-5.062615e-05,8,1
0.0006780197,-0.000166989,8,1
0.000760349,-0.0003627639,8,1
0.0007814175,-0.0006013241,8,1
0.0007533802,-0.0008180053,8,1
0.0006853127,-0.0009567332,8,1
0.0005710566,-0.0009948185,8,1
0.0004164462,-0.0009371233,8,1
0.0002391467,-0.0008086055,8,1
4.596478e-05,-0.0006423265,8,1
-0.0001715269,-0.000469727,8,1
-0.0004172179,-0.0003112272,8,1
-0.0006677708,-0.0001820611,8,1
-0.0008948243,-9.065628e-05,8,1
-0.001070827,-3.879538e-05,8,1
-0.00116126,-2.242678e-05,8,1
-0.001132088,-2.939559e-05,8,1
-0.0009667812,-4.738484e-05,8,1
-0.0006625847,-6.099833e-05,8,1
-0.0002593663,-5.419158e-05,8,1
0.0001675138,-2.080613e-05,8,1
0.000539778,3.640293e-05,8,1
0.0008055653,0.0001090082,8,1
0.0009478587,0.0001923098,8,1
0.00098562,0.0002863077,8,1
0.000953207,0.0004005638,8,1
0.0008794671,0.000534916,8,1
0.0007738004,0.0006793162,8,1
0.000631669,0.0008274441,8,1
0.0004485351,0.0009809202,8,1
0.0002346088,0.001136827,8,1
1.355172e-05,0.001282362,8,1
-0.0002152845,0.001400184,8,1
-0.0004676201,0.00146582,8,1
-0.0007304901,0.001445724,8,1
-0.0009528436,0.001327578,8,1
-0.001087682,0.001128562,8,1
-0.001130791,0.0008820602,8,1
-0.001117826,0.0006321552,8,1
-0.001091734,0.0004182289,8,1
-0.001080065,0.0002654013,8,1
-0.001089141,0.0001761032,8,1
-0.001117016,0.0001292664,8,1
-0.001158991,9.701536e-05,8,1
-0.001202748,6.233338e-05,8,1
-0.001219927,2.262738e-05,8,1
-0.001182976,-1.367526e-05,8,1
-0.001084603,-3.506788e-05,8,1
-0.0009474955,-3.863332e-05,8,1
-0.0007970989,-3.117831e-05,8,1
-0.0006360059,-2.194059e-05,8,1
-0.0004506033,-1.513384e-05,8,1
-0.0002311669,-1.3027e-05,8,1
1.630683e-05,-1.497178e-05,8,1
0.0002641047,-1.967167e-05,8,1
0.0004802999,-2.745081e-05,8,1
0.000646417,-4.317115e-05,8,1
0.0007656972,-7.639453e-05,8,1
0.0008622882,-0.0001339277,8,1
0.0009577448,-0.0002144742,8,1
0.001053363,-0.0003037722,8,1
0.001147686,-0.0003825359,8,1
0.001241846,-0.0004402311,8,1
0.001336006,-0.0004749131,8,1
0.001415904,-0.0004956574,8,1
0.001443131,-0.0005138087,8,1
0.00136696,-0.0005364979,8,1
0.001153034,-0.0005671282,8,1
0.0008115617,-0.0006053757,8,1
0.0003987811,-0.0006454058,8,1
-1.059602e-05,-0.0006787913,8,1
-0.0003626019,-0.0006959701,8,1
-0.0006398956,-0.0006943495,8,1
-0.0008426392,-0.0006823567,8,1
-0.0009729397,-0.0006674466,8,1
-0.001031607,-0.0006536711,8,1
-0.001024476,-0.0006384369,8,1
-0.0009601366,-0.0006175305,8,1
-0.0008507425,-0.0005860899,8,1
-0.0007186593,-0.0005329325,8,1
-0.0005825245,-0.0004463896,8,1
-0.0004460655,-0.0003324577,8,1
-0.0003094444,-0.0002126914,8,1
-0.0001697442,-0.000107349,8,1
-2.696461e-05,-2.631635e-05,8,1
0.0001124116,2.262738e-05,8,1
0.0002472499,3.575467e-05,8,1
0.0003760919,1.419998e-05,8,1
0.0004986133,-3.231277e-05,8,1
0.0006089798,-8.676672e-05,8,1
0.0006992503,-0.0001314967,8,1
0.0007687764,-0.0001540238,8,1
0.0008313337,-0.0001493239,8,1
0.0009042631,-0.0001238797,8,1
0.0009966405,-9.033215e-05,8,1
0.001101335,-6.359137e-05,8,1
0.001190957,-5.095028e-05,8,1
0.001219643,-5.030202e-05,8,1
0.001142337,-5.548811e-05,8,1
0.0009216042,-5.937768e-05,8,1
0.0005401021,-6.359137e-05,8,1
1.906194e-05,-7.266703e-05,8,1
-0.0005682627,-9.551824e-05,8,1
-0.001113774,-0.0001324691,8,1
-0.001520396,-0.0001713648,8,1
-0.001731892,-0.0001937298,8,1
-0.001744371,-0.0001869231,8,1
-0.001586033,-0.0001460826,8,1
-0.001303229,-7.850138e-05,8,1
-0.00094863,5.86492e-07,8,1
-0.0005690731,7.124698e-05,8,1
-0.000199078,0.0001237561,8,1
0.000135749,0.0001558451,8,1
0.000418553,0.0001728619,8,1
0.0006363689,0.0001803169,8,1
0.0007791486,0.0001838824,8,1
0.0008496471,0.0001851789,8,1
0.0008525642,0.0001848548,8,1
0.0008070238,0.000187934,8,1
0.000738146,0.0001979821,8,1
0.0006665131,0.0002096508,8,1
0.0005963388,0.0002180782,8,1
0.0005204921,0.0002185644,8,1
0.0004307079,0.0002085163,8,1
0.0003295791,0.0001893926,8,1
0.0002266676,0.0001683241,8,1
0.0001297526,0.0001511452,8,1
3.413401e-05,0.0001380179,8,1
-6.958779e-05,0.000125863,8,1
-0.0001812508,0.0001116012,8,1
-0.0002924276,0.0001009049,8,1
-0.0003987424,9.555677e-05,8,1
-0.0005108916,9.377406e-05,8,1
-0.0006439472,9.31258e-05,8,1
-0.0008035815,8.84259e-05,8,1
-0.0009850947,7.967438e-05,8,1
-0.001174063,6.962632e-05,8,1
-0.001352821,6.217132e-05,8,1
-0.001500948,5.957827e-05,8,1
-0.001593326,6.168512e-05,8,1
-0.001604508,6.476436e-05,8,1
-0.001516021,6.735741e-05,8,1
-0.001333697,6.444023e-05,8,1
-0.001083792,5.034055e-05,8,1
-0.000812171,2.732727e-05,8,1
-0.0005559457,1.558884e-06,8,1
-0.0003486642,-1.934754e-05,8,1
-0.0002295462,-3.182657e-05,8,1
-0.0002169052,-4.090223e-05,8,1
-0.0002882139,-4.787104e-05,8,1
-0.0003861013,-5.370539e-05,8,1
-0.0004455793,-6.148453e-05,8,1
-0.0004237005,-7.153257e-05,8,1
-0.0003074997,-7.850138e-05,8,1
-0.0001029732,-7.947377e-05,8,1
0.0001675138,-7.396356e-05,8,1
0.0004684692,-6.537409e-05,8,1
0.0007579181,-5.824322e-05,8,1
0.001004258,-5.111234e-05,8,1
0.001202302,-4.05781e-05,8,1
0.001364367,-2.534396e-05,8,1
0.001501799,-8.651231e-06,8,1
0.001612814,8.527692e-06,8,1
0.00169174,2.538249e-05,8,1
0.001739225,4.304761e-05,8,1
0.001764832,6.281957e-05,8,1
0.001766452,8.437427e-05,8,1
0.001710216,0.0001125736,8,1
0.001556415,0.000145797,8,1
0.00128301,0.0001782101,8,1
0.0009135009,0.0002067336,8,1
0.0005059062,0.0002290986,8,1
0.0001197045,0.0002457913,8,1
-0.0001995642,0.0002587566,8,1
-0.0004262935,0.0002688046,8,1
-0.0005535148,0.0002782044,8,1
-0.0005804176,0.0002889007,8,1
-0.0005136467,0.000299597,8,1
-0.0003708672,0.0003091589,8,1
-0.0001830335,0.0003219621,8,1
1.22552e-05,0.0003354135,8,1
0.0001783722,0.0003344411,8,1
0.0002952213,0.0002965178,8,1
0.0003553475,0.0002229401,8,1
0.000356482,0.0001341283,8,1
0.0003055935,5.406805e-05,8,1
0.0002205092,-4.275467e-06,8,1
0.0001107909,-3.555408e-05,8,1
-2.388537e-05,-4.041603e-05,8,1
-0.0001912988,-2.501983e-05,8,1
-0.00039777,1.002961e-07,8,1
-0.0006347094,2.81376e-05,8,1
-0.0008804005,5.390598e-05,8,1
-0.001114423,7.20573e-05,8,1
-0.001316032,7.691926e-05,8,1
-0.00145557,7.076078e-05,8,1
-0.001499976,5.94162e-05,8,1
-0.001425426,5.163707e-05,8,1
-0.001234027,5.066468e-05,8,1
-0.0009632158,5.487838e-05,8,1
-0.000675712,6.152305e-05,8,1
-0.0004368278,7.092284e-05,8,1
-0.0002888622,9.231547e-05,8,1
-0.0002457528,0.0001380179,8,1
-0.0002828657,0.0002138645,8,1
-0.0003519055,0.0003166139,8,1
-0.000402794,0.0004329769,8,1
-0.0003856151,0.00055485,8,1
-0.0002622834,0.0006759129,8,1
-1.513384e-05,0.0007867657,8,1
0.0003389789,0.0008744431,8,1
0.0007515975,0.0009306798,8,1
0.001168754,0.0009519104,8,1
0.00153875,0.0009259799,8,1
0.001817017,0.0008365198,8,1
0.001982162,0.0006775336,8,1
0.00204634,0.0004645796,8,1
0.002045854,0.0002289366,8,1
0.002017816,9.500085e-06,8,1
0.00197649,-0.0001666649,8,1
0.001911501,-0.0002895104,8,1
0.001804862,-0.0003676259,8,1
0.001633234,-0.0004209454,8,1
0.001384463,-0.0004700511,8,1
0.00106957,-0.0005245051,8,1
0.0007175637,-0.0005823624,8,1
0.0003728506,-0.0006330888,8,1
8.226741e-05,-0.0006713362,8,1
-0.0001225832,-0.0006927288,8,1
-0.0002368392,-0.0006998597,8,1
-0.0002979378,-0.0006972667,8,1
-0.0003737844,-0.0006938633,8,1
-0.0005377944,-0.0007048837,8,1
-0.0008134675,-0.0007376209,8,1
-0.001157856,-0.0007854302,8,1
-0.001485228,-0.0008400462,8,1
-0.001713254,-0.0008974173,8,1
-0.001798987,-0.0009494403,8,1
-0.00174745,-0.0009789361,8,1
-0.001608722,-0.0009718052,8,1
-0.001447629,-0.0009168651,8,1
-0.001308091,-0.0008150881,8,1
-0.001196104,-0.000675712,8,1
-0.001088492,-0.0005185087,8,1
-0.0009628917,-0.00035304,8,1
-0.0008139537,-0.0001786577,8,1
-0.0006522125,-4.113403e-06,8,1
-0.0004943609,0.0001430419,8,1
-0.0003546606,0.0002286124,8,1
-0.0002357047,0.0002316917,8,1
-0.0001319829,0.0001637863,8,1
-3.393342e-05,6.298164e-05,8,1
6.881599e-05,-3.701266e-05,8,1
0.0001764274,-0.0001164247,8,1
0.0002812837,-0.0001724993,8,1
0.0003676645,-0.0002037779,8,1
0.0004143393,-0.0002029675,8,1
0.000401212,-0.0001658546,8,1
0.0003222862,-9.632857e-05,8,1
0.0002018716,-1.20546e-05,8,1
8.534666e-05,6.995045e-05,8,1
1.193106e-05,0.0001354248,8,1
-2.978945e-06,0.0001764274,8,1
3.073064e-05,0.0001863134,8,1
9.896015e-05,0.0001623277,8,1
0.0001887444,0.0001022015,8,1
0.0002910076,4.962256e-06,8,1
0.0003945674,-0.0001167488,8,1
0.0004861343,-0.0002319772,8,1
0.0005470709,-0.0003068514,8,1
0.0005636016,-0.0003159271,8,1
0.0005329712,-0.0002528836,8,1
0.0004731691,-0.0001237176,8,1
0.0004052637,6.119892e-05,8,1
0.0003405996,0.0002885766,8,1
0.0002775562,0.0005443158,8,1
0.000210137,0.000804755,8,1
0.000130887,0.001029216,8,1
3.899597e-05,0.001167944,8,1
-5.727083e-05,0.001182206,8,1
-0.0001522411,0.001067949,8,1
-0.0002476975,0.0008629364,8,1
-0.0003446126,0.000621783,8,1
-0.0004446069,0.0003892192,8,1
-0.0005410357,0.0001926339,8,1
-0.0006262821,4.45062e-05,8,1
-0.0006959701,-4.997789e-05,8,1
-0.0007423208,-9.19528e-05,8,1
-0.0007499378,-8.676672e-05,8,1
-0.0007094215,-4.544006e-05,8,1
-0.0006301716,1.889987e-05,8,1
-0.0005314739,9.409818e-05,8,1
-0.0004326141,0.0001699448,8,1
-0.0003459091,0.0002397949,8,1
-0.0002820554,0.0002965178,8,1
-0.0002478596,0.0003358997,8,1
-0.0002481838,0.0003569682,8,1
-0.0002773555,0.0003569682,8,1
-0.0003254889,0.0003289309,8,1
-0.0003742705,0.0002678322,8,1
-0.0004042526,0.0001772377,8,1
-0.000400201,5.909208e-05,8,1
-0.0003608192,-8.709085e-05,8,1
-0.0002921034,-0.0002630937,8,1
-0.0002047502,-0.0004676201,8,1
-0.0001164247,-0.0006786292,8,1
-3.928157e-05,-0.0008598181,8,1
2.165498e-05,-0.0009727777,8,1
6.525056e-05,-0.0009977358,8,1
9.393612e-05,-0.0009358267,8,1
0.000113546,-0.00080974,8,1
0.0001295905,-0.0006449196,8,1
0.0001503349,-0.0004638926,8,1
0.0001809652,-0.0002840002,8,1
0.0002209954,-0.0001276072,8,1
0.0002629703,-1.643037e-05,8,1
0.0002947351,4.499239e-05,8,1
0.0002991108,6.395404e-05,8,1
0.0002514636,4.742337e-05,8,1
0.0001480659,3.665733e-06,8,1
1.079661e-05,-5.402952e-05,8,1
-0.0001208004,-0.0001089697,8,1
-0.0002050744,-0.0001455964,8,1
-0.0002086398,-0.0001616409,8,1
-0.0001214487,-0.0001629374,8,1
3.332369e-05,-0.0001551583,8,1
0.0002043026,-0.0001365208,8,1
0.0003360618,-0.0001045939,8,1
0.0004023465,-5.970181e-05,8,1
0.0004112601,-7.516774e-06,8,1
0.0003897054,4.207521e-05,8,1
0.0003671783,8.097089e-05,8,1
0.0003650715,0.0001041462,8,1
0.0003939191,0.0001190562,8,1
0.0004568005,0.0001355869,8,1
0.0005363746,0.0001620036,8,1
0.0006063868,0.000202682,8,1
0.0006506307,0.0002616738,8,1
0.0006629477,0.0003446512,8,1
0.0006324793,0.0004449697,8,1
0.0005504743,0.0005396159,8,1
0.0004287631,0.0005924492,8,1
0.0003078624,0.0005838597,8,1
0.0002487085,0.0005172509,8,1
0.0003062417,0.0004174185,8,1
0.0004913204,0.0003078624,8,1
0.0007593766,0.0002075439,8,1
0.001026136,0.0001300767,8,1
0.001200033,8.161915e-05,8,1
0.001235687,6.217132e-05,8,1
0.001141365,6.703327e-05,8,1
0.0009580689,8.680524e-05,8,1
0.0007366874,0.0001009049,8,1
0.0005140096,7.821578e-05,8,1
0.000311914,1.095867e-05,8,1
0.0001438522,-8.465986e-05,8,1
-2.145439e-05,-0.0001844921,8,1
-0.0002292221,-0.0002705488,8,1
-0.0004690787,-0.0003297026,8,1
-0.0006833291,-0.0003541745,8,1
-0.0007953162,-0.0003436402,8,1
-0.0007633893,-0.000305879,8,1
-0.0005964621,-0.0002433218,8,1
-0.0003434782,-0.00015451,8,1
-7.380149e-05,-4.05781e-05,8,1
0.0001451488,8.631905e-05,8,1
0.0002709115,0.000192958,8,1
0.0003059176,0.0002435224,8,1
0.000287118,0.0002266676,8,1
0.0002655633,0.0001584381,8,1
0.0002819319,7.708133e-05,8,1
0.0003470822,2.570662e-05,8,1
0.0004511282,2.797553e-05,8,1
0.0005825632,8.113296e-05,8,1
0.0007303669,0.0001611932,8,1
0.0008843291,0.000234933,8,1
0.001025488,0.0002863077,8,1
0.001120783,0.0003102934,8,1
0.001132614,0.0003133726,8,1
0.001036671,0.0003135347,8,1
0.0008267959,0.0003339549,8,1
0.0005310264,0.0003874365,8,1
0.0001965235,0.0004676588,8,1
-0.0001263107,0.0005579292,8,1
-0.0003997148,0.0006426895,8,1
-0.000621258,0.0007068674,8,1
-0.000807309,0.000737984,8,1
-0.0009692122,0.0007349047,8,1
-0.001105833,0.0007067053,8,1
-0.001217334,0.0006704027,8,1
-0.001309063,0.0006344241,8,1
-0.001387341,0.0005966629,8,1
-0.001451032,0.0005553362,8,1
-0.00148458,0.000517575,8,1
-0.001476801,0.0004932652,8,1
-0.001432071,0.000482893,8,1
-0.001361897,0.0004689553,8,1
-0.001275354,0.0004253598,8,1
-0.001178114,0.0003331446,8,1
-0.001070503,0.0001866375,8,1
-0.0009538161,7.485573e-07,8,1
-0.0008377773,-0.0001984297,8,1
-0.0007372968,-0.0003804291,8,1
-0.0006646916,-0.000519481,8,1
-0.0006201236,-0.0006001896,8,1
-0.0005937069,-0.0006243373,8,1
-0.0005611319,-0.0006056998,8,1
-0.0004917679,-0.0005674524,8,1
-0.0003635742,-0.0005330946,8,1
-0.0001671511,-0.0005141329,8,1
8.242948e-05,-0.0005066779,8,1
0.0003402755,-0.0005045711,8,1
0.0005490156,-0.0005005194,8,1
0.0006705648,-0.0004882024,8,1
0.000701033,-0.0004698891,8,1
0.0006600305,-0.0004515757,8,1
0.0005799701,-0.0004347209,8,1
0.0004781931,-0.0004160834,8,1
0.0003532407,-0.0003945287,8,1
0.0002015475,-0.0003741085,8,1
3.13789e-05,-0.000358064,8,1
-0.0001421931,-0.0003459091,8,1
-0.0003045825,-0.0003344025,8,1
-0.0004444448,-0.0003228959,8,1
-0.0005458977,-0.0003074997,8,1
-0.0005995413,-0.0002872415,8,1
-0.0005992171,-0.0002592042,8,1
-0.000551732,-0.0002227395,8,1
-0.0004629203,-0.0001827094,8,1
-0.0003421817,-0.0001480274,8,1
-0.0001900023,-0.0001212866,8,1
-3.858999e-07,-0.0001037836,8,1
0.000217592,-9.19528e-05,8,1
0.0004341113,-8.352541e-05,8,1
0.0006110868,-7.882551e-05,8,1
0.0007292324,-8.255302e-05,8,1
0.0007904932,-9.632857e-05,8,1
0.0008107513,-0.000114804,8,1
0.0008016757,-0.000129714,8,1
0.0007611593,-0.0001384655,8,1
0.0006767232,-0.0001394379,8,1
0.000534754,-0.0001331174,8,1
0.0003300653,-0.0001245279,8,1
7.870197e-05,-0.0001149661,8,1
-0.0001840059,-0.0001037836,8,1
-0.0004194868,-8.968389e-05,8,1
-0.0006029447,-7.461182e-05,8,1
-0.0007325969,-6.164659e-05,8,1
-0.0008184915,-5.759496e-05,8,1
-0.0008710006,-6.602235e-05,8,1
-0.0008922312,-8.530812e-05,8,1
-0.0008708386,-0.0001042698,8,1
-0.0008066607,-0.0001109144,8,1
-0.0007095836,-0.000102325,8,1
-0.0005893312,-8.336335e-05,8,1
-0.0004577342,-6.618442e-05,8,1
-0.0003241924,-6.618442e-05,8,1
-0.0001997262,-8.530812e-05,8,1
-9.19528e-05,-0.0001216107,8,1
-1.010982e-05,-0.000171851,8,1
3.93201e-05,-0.0002245222,8,1
6.816773e-05,-0.0002703867,8,1
0.0001119254,-0.0003016653,8,1
0.0001997648,-0.0003156029,8,1
0.000339141,-0.0003136581,8,1
0.0005345919,-0.0002989102,8,1
0.0007861174,-0.0002734659,8,1
0.001069894,-0.0002408908,8,1
0.001320123,-0.0002052365,8,1
0.00144621,-0.0001721751,8,1
0.00139678,-0.0001517549,8,1
0.00118885,-0.000147055,8,1
0.00088676,-0.00015451,8,1
0.0005702463,-0.0001608306,8,1
0.0003125623,-0.0001580754,8,1
0.0001633001,-0.0001455964,8,1
0.000140773,-0.0001295519,8,1
0.0002256952,-0.0001115627,8,1
0.0003825745,-9.098041e-05,8,1
0.0005883976,-6.326724e-05,8,1
0.0008360335,-2.777494e-05,8,1
0.001104414,9.175954e-06,8,1
0.001353833,4.790957e-05,8,1
0.001542315,9.037068e-05,8,1
0.00163761,0.0001401247,8,1
0.001624159,0.0001949028,8,1
0.001512495,0.0002496809,8,1
0.00135205,0.0002992729,8,1
0.001201815,0.0003376824,8,1
0.001096635,0.0003623164,8,1
0.001039912,0.0003707437,8,1
0.001012685,0.0003696093,8,1
0.0009723307,0.0003704196,8,1
0.0008707156,0.0003790091,8,1
0.0006734819,0.0003948915,8,1
0.000371392,0.0004174185,8,1
-1.659243e-05,0.0004449697,8,1
-0.000439907,0.0004720346,8,1
-0.0008324291,0.0004914824,8,1
-0.001134519,0.0004994237,8,1
-0.001314249,0.0004982892,8,1
-0.001379562,0.0004913204,8,1
-0.001367569,0.0004809482,8,1
-0.001322839,0.0004692795,8,1
-0.001272112,0.0004603659,8,1
-0.001223655,0.000455666,8,1
-0.001180707,0.0004555039,8,1
-0.001144567,0.0004577728,8,1
-0.001117988,0.0004616624,8,1
-0.001103564,0.0004564763,8,1
-0.001096433,0.00043087,8,1
-0.001090437,0.0003777126,8,1
-0.001080875,0.0003004074,8,1
-0.001070017,0.0002093267,8,1
-0.001062562,0.0001229458,8,1
-0.001056727,5.504044e-05,8,1
-0.001045383,9.338019e-06,8,1
-0.001012646,-1.659243e-05,8,1
-0.0009479817,-3.036798e-05,8,1
-0.0008517149,-4.203669e-05,8,1
-0.000737783,-5.046408e-05,8,1
-0.0006282268,-4.90055e-05,8,1
-0.0005481666,-3.539201e-05,8,1
-0.0005115399,-1.010982e-05,8,1
-0.0005173742,2.359977e-05,8,1
-0.0005463839,6.395404e-05,8,1
-0.0005690731,0.0001098185,8,1
-0.0005580526,0.0001569795,8,1
-0.0005089468,0.0001992786,8,1
-0.0004332623,0.0002294227,8,1
-0.0003394265,0.0002446569,8,1
-0.000231491,0.0002469258,8,1
-0.0001102662,0.0002397949,8,1
1.387585e-05,0.000225047,8,1
0.0001221355,0.0002018716,8,1
0.0002007372,0.000168,8,1
0.0002466017,0.0001244044,8,1
0.0002710735,7.221937e-05,8,1
0.0002859836,1.241726e-05,8,1
0.0002913317,-5.046408e-05,8,1
0.000264753,-0.0001109144,8,1
0.0001801549,-0.0001613168,8,1
4.628891e-05,-0.0001982676,8,1
-9.098041e-05,-0.0002285739,8,1
-0.0001784957,-0.0002639041,8,1
-0.0001830335,-0.000310741,8,1
-0.0001070249,-0.0003614674,8,1
1.808955e-05,-0.0004003631,8,1
0.0001519555,-0.0004191627,8,1
0.0002621599,-0.0004202971,8,1
0.0003346032,-0.0004073319,8,1
0.0003775505,-0.0003796187,8,1
0.0004089912,-0.0003334301,8,1
0.0004465904,-0.0002684419,8,1
0.000497803,-0.000194216,8,1
0.0005566327,-0.0001253383,8,1
0.0006115729,-7.704279e-05,8,1
0.0006486859,-5.856735e-05,8,1
0.0006605167,-7.218083e-05,8,1
0.0006470652,-0.0001058904,8,1
0.0006114109,-0.0001431655,8,1
0.0005587396,-0.0001750923,8,1
0.0004924549,-0.0002057227,8,1
0.0004196875,-0.0002361909,8,1
0.0003499994,-0.0002664971,8,1
0.0002906835,-0.0002912931,8,1
0.0002446569,-0.0003045825,8,1
0.000210137,-0.0003024756,8,1
0.0001822617,-0.0002814071,8,1
0.0001564933,-0.000246239,8,1
0.0001297526,-0.0002156086,8,1
9.750156e-05,-0.0002076674,8,1
5.974033e-05,-0.0002233878,8,1
2.100672e-05,-0.0002434839,8,1
-1.464765e-05,-0.0002470493,8,1
-4.187462e-05,-0.0002230636,8,1
-5.435365e-05,-0.0001723372,8,1
-4.576419e-05,-0.0001036215,8,1
-1.950961e-05,-2.615429e-05,8,1
9.66215e-06,5.1475e-05,8,1
2.359977e-05,0.0001257009,8,1
1.630683e-05,0.0001898788,8,1
6.90704e-06,0.000237526,8,1
2.878586e-05,0.0002675081,8,1
0.0001041462,0.0002830664,8,1
0.0002232643,0.0002869559,8,1
0.0003457857,0.0002811216,8,1
0.0004216323,0.0002689667,8,1
0.0004180668,0.0002519498,8,1
0.0003358997,0.0002265056,8,1
0.0002008992,0.0001733481,8,1
5.439218e-05,6.573675e-05,8,1
-6.278104e-05,-0.0001078352,8,1
-0.0001182074,-0.0003279199,8,1
-9.697683e-05,-0.0005583767,8,1
-7.354709e-06,-0.0007620928,8,1
0.0001281319,-0.0009118411,8,1
0.0002744769,-0.0009941703,8,1
0.0003957018,-0.001004867,8,1
0.0004642555,-0.0009528436,8,1
0.0004712243,-0.0008515528,8,1
0.0004248736,-0.00071558,8,1
0.0003454615,-0.0005522182,8,1
0.0002618358,-0.0003750809,8,1
0.0002025199,-0.0002031296,8,1
0.0001923098,-6.035007e-05,8,1
0.0002487085,4.304761e-05,8,1
0.0003723644,0.0001099806,8,1
0.0005428572,0.000153252,8,1
0.0007186982,0.0001876099,8,1
0.0008486747,0.0002310434,8,1
0.000901346,0.0002908455,8,1
0.0008801154,0.0003608578,8,1
0.0008088066,0.00043087,8,1
0.000708326,0.0005005581,8,1
0.0005921251,0.0005718669,8,1
0.0004663623,0.0006373413,8,1
0.0003388169,0.000685961,8,1
0.0002146748,0.000713188,8,1
8.680524e-05,0.0007259911,8,1
-5.338126e-05,0.0007353909,8,1
-0.0002083157,0.0007410632,8,1
-0.000367788,0.0007438183,8,1
-0.0005173742,0.0007383081,8,1
-0.0006450817,0.0007112432,8,1
-0.000755286,0.0006298863,8,1
-0.0008706765,0.000468145,8,1
-0.0009998425,0.0002295848,8,1
-0.001123985,-4.916756e-05,8,1
-0.001200966,-0.0003078238,8,1
-0.001193511,-0.0004899852,8,1
-0.001092382,-0.0005595111,8,1
-0.0009233478,-0.0005055434,8,1
-0.0007335693,-0.0003408851,8,1
-0.0005672903,-0.0001044318,8,1
-0.0004460655,0.0001462832,8,1
-0.0003611433,0.0003595612,8,1
-0.0002929138,0.00050542,8,1
-0.0002272773,0.0005880735,8,1
-0.0001574272,0.0006201624,8,1
-7.817725e-05,0.0006039558,8,1
2.359977e-05,0.0005457744,8,1
0.0001615174,0.0004662003,8,1
0.0003420582,0.0003942432,8,1
0.000557281,0.000354051,8,1
0.0007922759,0.0003587509,8,1
0.001031647,0.0004122325,8,1
0.001252704,0.0005281092,8,1
0.001421414,0.0007219395,8,1
0.00150342,0.0009943716,8,1
0.001473438,0.001311696,8,1
0.00133163,0.00160228,8,1
0.001099066,0.001794814,8,1
0.0008136685,0.001848296,8,1
0.0005161164,0.001758835,8,1
0.0002378501,0.001556091,8,1
-1.140634e-05,0.001280579,8,1
-0.0002454286,0.0009637412,8,1
-0.0004849611,0.0006253485,8,1
-0.0007398899,0.000284687,8,1
-0.0009904428,-2.777494e-05,8,1
-0.001200642,-0.0002817312,8,1
-0.001357683,-0.0004651892,8,1
-0.001462053,-0.0005907898,8,1
-0.001521693,-0.0006893255,8,1
-0.001534334,-0.00079483,8,1
-0.001492683,-0.0009248063,8,1
-0.001398523,-0.001074393,8,1
-0.001266602,-0.00122252,8,1
-0.001116692,-0.001342287,8,1
-0.0009627296,-0.001413757,8,1
-0.0008052022,-0.001430936,8,1
-0.0006254718,-0.001396579,8,1
-0.0004023079,-0.00132057,8,1
-0.0001417068,-0.001212472,8,1
0.0001198666,-0.001085899,8,1
0.0003321722,-0.0009549505,8,1
0.0004611762,-0.0008374532,8,1
0.0004849998,-0.0007496137,8,1
0.0004068843,-0.0007008321,8,1
0.0002501671,-0.0006896496,8,1
4.320967e-05,-0.0007065044,8,1
-0.0001733096,-0.0007369727,8,1
-0.0003572537,-0.0007656582,8,1
-0.000492092,-0.0007829992,8,1
-0.0005883588,-0.0007855922,8,1
-0.0006645294,-0.0007706822,8,1
-0.0007254661,-0.0007408622,8,1
-0.0007703581,-0.0007014804,8,1
-0.0007844578,-0.0006562641,8,1
-0.000747669,-0.0006027826,8,1
-0.0006423265,-0.0005402254,8,1
-0.0004624341,-0.0004664857,8,1
-0.0002269532,-0.0003836704,8,1
2.327564e-05,-0.000295993,8,1
0.0002404432,-0.000211557,8,1
0.0003903536,-0.0001353863,8,1
0.000450804,-7.18567e-05,8,1
