EMG1,EMG2,class,user
0.0009827028,0.0003089969,8,1
0.00101155,0.000321638,8,1
0.0009104217,0.0003347652,8,1
0.0006684579,0.0003530786,8,1
0.0003402755,0.0003777126,8,1
1.54965e-05,0.0004041292,8,1
-0.0002243602,0.0004211461,8,1
-0.0003413713,0.000418553,8,1
-0.0003394265,0.0003968363,8,1
-0.0002553146,0.0003636129,8,1
-0.0001378173,0.0003303894,8,1
-3.490581e-05,0.0003049452,8,1
2.133085e-05,0.0002942489,8,1
3.640293e-05,0.000299597,8,1
5.779555e-05,0.0003136967,8,1
0.0001404489,0.0003239069,8,1
0.0003072141,0.0003183966,8,1
0.0005428572,0.0002906835,8,1
0.0008010275,0.0002491947,8,1
0.001020302,0.0002060853,8,1
0.001147523,0.000160545,8,1
0.001162109,8.631905e-05,8,1
0.001075404,-3.652646e-05,8,1
0.0009151215,-0.0001977815,8,1
0.0007067053,-0.000362926,8,1
0.0004642555,-0.0004875542,8,1
0.0001974959,-0.0005259637,8,1
-8.336335e-05,-0.0004603272,8,1
-0.0003626019,-0.0003123616,8,1
-0.0006150996,-0.0001319829,8,1
-0.0008039057,2.505836e-05,8,1
-0.0008936898,0.0001132219,8,1
-0.0008578734,0.0001244044,8,1
-0.0006953219,8.016057e-05,8,1
-0.0004389346,6.582909e-06,8,1
-0.000137007,-7.882551e-05,8,1
0.0001662173,-0.0001630995,8,1
0.0004363802,-0.0002348944,8,1
0.0006535479,-0.0002917793,8,1
0.0008066997,-0.0003326198,8,1
0.0008950254,-0.0003512573,8,1
0.0009266282,-0.0003413713,8,1
0.000911232,-0.000303448,8,1
0.0008710398,-0.0002404046,8,1
0.000837168,-0.0001548341,8,1
0.0008368439,-4.657452e-05,8,1
0.0008877325,7.967438e-05,8,1
0.0009886993,0.0002114335,8,1
0.001115434,0.0003358997,8,1
0.001207974,0.0004430249,8,1
0.001196467,0.0005276231,8,1
0.001031323,0.0005903424,8,1
0.0007054088,0.0006347483,8,1
0.0002696149,0.0006530617,8,1
-0.0001703924,0.0006328035,8,1
-0.0005147812,0.0005687877,8,1
-0.000725304,0.0004540453,8,1
-0.00082465,0.0002785285,8,1
-0.0008556045,4.82337e-05,8,1
-0.0008481495,-0.0002110708,8,1
-0.000819788,-0.0004608134,8,1
-0.0007732753,-0.0006656639,8,1
-0.0007069906,-0.0007977472,8,1
-0.0006283889,-0.0008397221,8,1
-0.0005582146,-0.0007945059,8,1
-0.0005220741,-0.0006771705,8,1
-0.0005397392,-0.0005045711,8,1
-0.0006194753,-0.0003006929,8,1
-0.0007492896,-9.146661e-05,8,1
-0.0009100584,9.717743e-05,8,1
-0.001080551,0.0002357433,8,1
-0.001224141,0.0003055935,8,1
-0.001311494,0.0003086727,8,1
-0.001342773,0.0002655633,8,1
-0.001347797,0.0001931201,8,1
-0.001364328,0.0001020394,8,1
-0.001388961,-4.275467e-06,8,1
-0.001373889,-0.0001175591,8,1
-0.001263847,-0.0002180396,8,1
-0.001030149,-0.0002969654,8,1
-0.0006766844,-0.0003613053,8,1
-0.0002352185,-0.00041268,8,1
0.0002493568,-0.0004481723,8,1
0.0007188602,-0.0004617858,8,1
0.001126131,-0.0004450931,8,1
0.001435352,-0.0003974459,8,1
0.00164231,-0.0003284061,8,1
0.001759808,-0.0002532078,8,1
0.001808103,-0.0001833576,8,1
0.00181102,-0.0001143178,8,1
0.001793355,-3.68506e-05,8,1
0.001773421,5.423012e-05,8,1
0.001754784,0.0001493625,8,1
0.001714267,0.0002380122,8,1
0.001623672,0.0003146691,8,1
0.001485592,0.0003751195,8,1
0.001321582,0.0004177427,8,1
0.001153358,0.0004470765,8,1
0.001001502,0.0004731691,8,1
0.000864557,0.0005068787,8,1
0.0007039502,0.0005624671,8,1
0.0004918066,0.0006418792,8,1
0.0002602152,0.0007365254,8,1
8.46984e-05,0.0008306854,8,1
3.672706e-05,0.0009125285,8,1
0.00013818,0.00097071,8,1
0.0003305515,0.0009946957,8,1
0.0004995857,0.0009851338,8,1
0.0005507984,0.0009627688,8,1
0.0004564763,0.000953207,8,1
0.0002462775,0.0009606619,8,1
-2.777494e-05,0.00097071,8,1
-0.000310903,0.0009561241,8,1
-0.0005574043,0.0008959978,8,1
-0.0007382692,0.0007846588,8,1
-0.0008526873,0.0006287518,8,1
-0.0009217271,0.0004444835,8,1
-0.0009693743,0.000242388,8,1
-0.00100357,2.846173e-05,8,1
-0.001015563,-0.0001788198,8,1
-0.000986067,-0.0003528779,8,1
-0.0008974173,-0.0004706994,8,1
-0.0007432932,-0.0005288809,8,1
-0.000539091,-0.0005462218,8,1
-0.000318358,-0.0005476804,8,1
-0.0001318209,-0.0005520562,8,1
-2.971972e-05,-0.0005622663,8,1
-3.944364e-05,-0.0005729626,8,1
-0.0001575893,-0.0005728005,8,1
-0.0003433161,-0.0005554595,8,1
-0.0005355255,-0.0005238568,8,1
-0.000675874,-0.0004954954,8,1
-0.0007421587,-0.0004880404,8,1
-0.0007559343,-0.0005091089,8,1
-0.000757555,-0.0005548113,8,1
-0.0007745718,-0.0006128307,8,1
-0.000817357,-0.00067085,8,1
-0.0008703524,-0.0007210903,8,1
-0.0009124894,-0.00076501,8,1
-0.0009450645,-0.0008103882,8,1
-0.0009816912,-0.0008607905,8,1
-0.001024801,-0.0009048723,8,1
-0.001062886,-0.0009220513,8,1
-0.001081037,-0.0009027654,8,1
-0.001066613,-0.0008483115,8,1
-0.001000491,-0.0007684134,8,1
-0.0008710006,-0.0006753879,8,1
-0.0006946736,-0.0005781487,8,1
-0.0005005194,-0.0004825302,8,1
-0.0002948586,-0.0003942046,8,1
-6.958779e-05,-0.0003222476,8,1
0.0001628139,-0.0002643903,8,1
0.0003692851,-0.0002117191,8,1
0.0005178991,-0.0001562927,8,1
0.0005872631,-9.357346e-05,8,1
0.0005686256,-3.360929e-05,8,1
0.0004749518,6.096713e-06,8,1
0.0003376824,8.203562e-06,8,1
0.0001966855,-3.992984e-05,8,1
8.080883e-05,-0.0001340898,8,1
-2.168618e-06,-0.0002577456,8,1
-6.310517e-05,-0.0003911253,8,1
-0.0001230693,-0.0005162397,8,1
-0.0001981056,-0.0006228787,8,1
-0.0003019894,-0.0007022907,8,1
-0.0004531963,-0.0007415105,8,1
-0.0006684191,-0.000725304,8,1
-0.0009312889,-0.0006407059,8,1
-0.001179249,-0.000489499,8,1
-0.001342125,-0.0002912931,8,1
-0.001365948,-7.65566e-05,8,1
-0.001221872,0.0001245665,8,1
-0.0009103825,0.0002905214,8,1
-0.0004708614,0.0004115842,8,1
1.338965e-05,0.0004890515,8,1
0.0004495075,0.000532485,8,1
0.0007817416,0.0005537156,8,1
0.001004906,0.0005576051,8,1
0.001145579,0.0005493398,8,1
0.001232932,0.0005360505,8,1
0.001280579,0.0005297299,8,1
0.001287224,0.0005389676,8,1
0.001254811,0.0005606844,8,1
0.001197602,0.0005885597,8,1
0.001138448,0.0006125454,8,1
0.001094528,0.0006285898,8,1
0.001065194,0.0006379896,8,1
0.001028405,0.0006470652,8,1
0.0009535311,0.0006684579,8,1
0.0008133444,0.000710919,8,1
0.0005856425,0.0007819037,8,1
0.0002670219,0.0008749293,8,1
-0.0001117248,0.0009674687,8,1
-0.0004708614,0.00103505,8,1
-0.0007133111,0.001061467,8,1
-0.0007706822,0.001048664,8,1
-0.0006306578,0.001009444,8,1
-0.000335699,0.0009580689,8,1
4.320967e-05,0.0008987529,8,1
0.0004221185,0.0008264717,8,1
0.0007199947,0.0007327979,8,1
0.0008935668,0.0006164349,8,1
0.0009588792,0.0004840274,8,1
0.0009640653,0.0003474063,8,1
0.0009475346,0.0002159713,8,1
0.0009191732,9.63671e-05,8,1
0.0008647192,-4.761664e-06,8,1
0.0007569456,-8.579432e-05,8,1
0.0005801322,-0.0001498101,8,1
0.0003472443,-0.000204102,8,1
9.993253e-05,-0.0002543422,8,1
-0.0001044318,-0.0003026377,8,1
-0.0002245222,-0.0003462333,8,1
-0.0002431597,-0.0003771877,8,1
-0.0001752544,-0.0003872358,8,1
-5.970181e-05,-0.0003794566,8,1
6.476436e-05,-0.000372974,8,1
0.0001775618,-0.0003942046,8,1
0.0002678322,-0.0004520619,8,1
0.0003368721,-0.0005309877,8,1
0.0003953777,-0.0006074825,8,1
0.0004561522,-0.0006617744,8,1
0.0005209784,-0.0006904599,8,1
0.0005888838,-0.0006969426,8,1
0.0006614891,-0.0006799257,8,1
0.000738146,-0.0006374646,8,1
0.000814803,-0.0005705316,8,1
0.0008765499,-0.000484475,8,1
0.0009070183,-0.0003867496,8,1
0.0008945392,-0.0002838381,8,1
0.0008326302,-0.0001838438,8,1
0.0007211292,-9.924574e-05,8,1
0.0005660325,-3.830919e-05,8,1
0.0003827366,2.623614e-07,8,1
0.0001934442,1.873781e-05,8,1
1.112074e-05,2.667901e-05,8,1
-0.0001653684,3.510641e-05,8,1
-0.0003335922,5.244739e-05,8,1
-0.0004813957,8.777764e-05,8,1
-0.0006018102,0.0001475797,8,1
-0.0006941874,0.0002341226,8,1
-0.0007585274,0.0003404375,8,1
-0.000789806,0.0004486972,8,1
-0.0007857543,0.0005360505,8,1
-0.0007543136,0.000591963,8,1
-0.0007108802,0.0006258347,8,1
-0.0006828429,0.0006567892,8,1
-0.000713149,0.0006961711,8,1
-0.00083956,0.000735553,8,1
-0.001050893,0.0007566215,8,1
-0.001300312,0.0007387943,8,1
-0.001529148,0.0006700786,8,1
-0.001680193,0.0005446399,8,1
-0.001715037,0.0003769022,8,1
-0.001630439,0.0001949028,8,1
-0.001455894,2.732727e-05,8,1
-0.001239699,-0.0001084835,8,1
-0.001029014,-0.0002042641,8,1
-0.00085447,-0.0002617972,8,1
-0.0007233592,-0.0002864312,8,1
-0.0006220684,-0.0002856209,8,1
-0.0005277464,-0.000271197,8,1
-0.0004206212,-0.000253856,8,1
-0.0002818933,-0.0002429977,8,1
-0.0001039456,-0.0002400805,8,1
0.0001025256,-0.0002407288,8,1
0.0003047831,-0.0002371633,8,1
0.0004600418,-0.0002269532,8,1
0.0005332953,-0.0002126914,8,1
0.0005128751,-0.0001977815,8,1
0.0004088291,-0.0001849783,8,1
0.0002509774,-0.0001783336,8,1
8.323981e-05,-0.0001806025,8,1
-4.025397e-05,-0.0001888679,8,1
-7.882551e-05,-0.0001958367,8,1
-1.724069e-05,-0.00019924,8,1
0.0001297526,-0.0002023193,8,1
0.0003344411,-0.0002092881,8,1
0.0005723531,-0.000221443,8,1
0.0008204753,-0.0002323013,8,1
0.001044774,-0.0002335979,8,1
0.001207164,-0.0002186879,8,1
0.001264049,-0.0001865989,8,1
0.001199871,-0.0001426792,8,1
0.001045746,-0.0001032974,8,1
0.0008575883,-8.465986e-05,8,1
0.0006903367,-9.66527e-05,8,1
0.0005702463,-0.000134576,8,1
0.000483055,-0.0001846542,8,1
0.0004031568,-0.0002298704,8,1
0.000316776,-0.0002574215,8,1
0.0002261814,-0.0002647144,8,1
0.0001346145,-0.0002569353,8,1
5.260946e-05,-0.0002425115,8,1
-6.706447e-06,-0.0002300324,8,1
-3.231277e-05,-0.0002209568,8,1
-2.42095e-05,-0.000209126,8,1
3.827799e-06,-0.0001945401,8,1
1.873781e-05,-0.0001922712,8,1
-1.399939e-05,-0.000226467,8,1
-0.0001141558,-0.0003053928,8,1
-0.0002773555,-0.0004154351,8,1
-0.0004750752,-0.0005266119,8,1
-0.0006570745,-0.0006091032,8,1
-0.0007894818,-0.000648485,8,1
-0.000881859,-0.0006415162,8,1
-0.0009632158,-0.0005922483,8,1
-0.001046679,-0.0005052193,8,1
-0.001113612,-0.0003882082,8,1
-0.001127874,-0.0002579077,8,1
-0.001059483,-0.0001353863,8,1
-0.0009055205,-3.328516e-05,8,1
-0.0006868945,3.948217e-05,8,1
-0.000435045,7.999851e-05,8,1
-0.0001810887,9.814982e-05,8,1
5.228533e-05,0.0001124116,8,1
0.0002532463,0.0001399627,8,1
0.0004261701,0.0001837203,8,1
0.0005801322,0.0002342847,8,1
0.0007123777,0.0002790148,8,1
0.0008083204,0.0003109416,8,1
0.0008436506,0.0003287688,8,1
0.0007922759,0.0003405996,8,1
0.0006418792,0.0003636129,8,1
0.0004088291,0.0004101256,8,1
0.0001419075,0.0004819206,8,1
-8.644259e-05,0.0005742979,8,1
-0.0002131776,0.0006796404,8,1
-0.000216581,0.000787576,8,1
-0.0001229073,0.0008929186,8,1
1.371378e-05,0.0009935612,8,1
0.0001386662,0.00108999,8,1
0.0002047888,0.001179775,8,1
0.0001756171,0.001249139,8,1
4.677511e-05,0.001270855,8,1
-0.0001329553,0.001196953,8,1
-0.0002791382,0.0009930751,8,1
-0.0003203028,0.0006776956,8,1
-0.0002274394,0.0003145071,8,1
-2.858527e-05,-2.339918e-05,8,1
0.0002081922,-0.0002831898,8,1
0.0004146635,-0.0004502792,8,1
0.0005470709,-0.0005426564,8,1
0.0005900182,-0.0005935449,8,1
0.0005605224,-0.0006279027,8,1
0.0005042856,-0.0006518884,8,1
0.0004715484,-0.0006580469,8,1
0.0004825689,-0.0006363301,8,1
0.0005247059,-0.000586414,8,1
0.0005707325,-0.000524343,8,1
0.0005981215,-0.0004645409,8,1
0.0006039558,-0.0004073319,8,1
0.0006000663,-0.0003475298,8,1
0.0006024973,-0.0002814071,8,1
0.0006193521,-0.0002110708,8,1
0.000638962,-0.0001405724,8,1
0.0006384758,-7.477388e-05,8,1
0.0005900182,-1.529591e-05,8,1
0.0004734932,3.786152e-05,8,1
0.0002798251,8.664318e-05,8,1
2.278944e-05,0.0001310491,8,1
-0.0002593663,0.0001710792,8,1
-0.0005186707,0.0002044647,8,1
-0.0007231971,0.0002305572,8,1
-0.0008663007,0.0002545429,8,1
-0.0009653227,0.0002901973,8,1
-0.001043276,0.0003399513,8,1
-0.001121554,0.000386302,8,1
-0.001207448,0.0004031568,8,1
-0.001287346,0.0003668542,8,1
-0.001342773,0.000269777,8,1
-0.001358655,0.0001248906,8,1
-0.001323163,-3.409549e-05,8,1
-0.001224951,-0.0001700683,8,1
-0.001065155,-0.0002603387,8,1
-0.0008590078,-0.0002997205,8,1
-0.0006279027,-0.0002979378,8,1
-0.0003995528,-0.0002737901,8,1
-0.0002049123,-0.0002434839,8,1
-6.035007e-05,-0.0002144742,8,1
3.526847e-05,-0.0001893541,8,1
9.085688e-05,-0.000171851,8,1
0.0001276457,-0.0001647201,8,1
0.000185503,-0.0001674752,8,1
0.000319207,-0.0001763888,8,1
0.0005469088,-0.0001904885,8,1
0.0008214476,-0.0002026434,8,1
0.001064222,-0.0002079916,8,1
0.001193226,-0.0002097743,8,1
0.001171347,-0.0002144742,8,1
0.001027109,-0.0002196603,8,1
0.0008261476,-0.0002180396,8,1
0.0006397723,-0.0002063709,8,1
0.0005206542,-0.0001849783,8,1
0.0004791655,-0.0001567789,8,1
0.0004851619,-0.0001285796,8,1
0.0005012064,-0.0001084835,8,1
0.0005078511,-0.0001037836,8,1
0.0005012064,-0.000119666,8,1
0.0004798138,-0.0001548341,8,1
0.0004405939,-0.0001951884,8,1
0.000378685,-0.0002173914,8,1
0.0002923041,-0.0002023193,8,1
0.0001902029,-0.0001491618,8,1
0.0001033359,-7.526008e-05,8,1
6.217132e-05,-1.189254e-05,8,1
8.356394e-05,6.582909e-06,8,1
0.0001684862,-3.992984e-05,8,1
0.0003008936,-0.0001438137,8,1
0.0004470765,-0.0002679557,8,1
0.0005657084,-0.0003666535,8,1
0.0006386379,-0.0004061974,8,1
0.0006747784,-0.0003784843,8,1
0.0006877437,-0.0003055549,8,1
0.0006763991,-0.0002232257,8,1
0.0006178935,-0.0001553203,8,1
0.0004859722,-0.0001000561,8,1
0.0002858215,-3.231277e-05,8,1
6.508849e-05,7.400208e-05,8,1
-0.0001211246,0.000225047,8,1
-0.0002310048,0.0003995914,8,1
-0.000246401,0.0005687877,8,1
-0.0001681235,0.0007154569,8,1
-1.67545e-05,0.0008298751,8,1
0.0001749688,0.0009049114,8,1
0.0003585888,0.0009357039,8,1
0.0004728449,0.0009248455,8,1
0.0004663623,0.0008755776,8,1
0.0003252034,0.0007885484,8,1
7.837785e-05,0.0006645683,8,1
-0.0002110708,0.0005089855,8,1
-0.0004747511,0.0003414099,8,1
-0.0006791154,0.0001885823,8,1
-0.0008231914,6.83298e-05,8,1
-0.0009265891,-1.691656e-05,8,1
-0.001005677,-7.817725e-05,8,1
-0.001071313,-0.0001245279,8,1
-0.001136302,-0.0001553203,8,1
-0.001212634,-0.0001661787,8,1
-0.001302256,-0.0001551583,8,1
-0.001391392,-0.0001292278,8,1
-0.001448926,-9.940781e-05,8,1
-0.001453463,-7.752899e-05,8,1
-0.001403061,-6.991193e-05,8,1
-0.001312467,-7.720486e-05,8,1
-0.001199345,-8.725291e-05,8,1
-0.001076499,-7.153257e-05,8,1
-0.0009546264,-6.706447e-06,8,1
-0.0008428013,0.0001009049,8,1
-0.0007361624,0.0002086784,8,1
-0.0006220684,0.0002710735,8,1
-0.0004903093,0.0002717218,8,1
-0.0003447747,0.0002188885,8,1
-0.0002011848,0.0001354248,8,1
-8.935975e-05,4.677511e-05,8,1
-3.279896e-05,-2.907146e-05,8,1
-2.258885e-05,-9.276313e-05,8,1
-2.534396e-05,-0.0001549962,8,1
-6.868513e-06,-0.0002246843,8,1
5.1475e-05,-0.0002938862,8,1
0.0001545486,-0.0003483401,8,1
0.0002973281,-0.0003783222,8,1
0.0004712243,-0.0003899909,8,1
0.0006627856,-0.0004024699,8,1
0.0008248511,-0.0004308313,8,1
0.0008802774,-0.0004739407,8,1
0.0007815796,-0.0005159156,8,1
0.0005650602,-0.0005400634,8,1
0.0003224483,-0.0005379565,8,1
0.0001428799,-0.0005131605,8,1
6.217132e-05,-0.0004741028,8,1
6.476436e-05,-0.0004262935,8,1
0.0001161391,-0.0003690845,8,1
0.0001918236,-0.0003013411,8,1
0.0002838767,-0.0002160948,8,1
0.0003791712,-9.989401e-05,8,1
0.0004436732,4.531652e-05,8,1
0.0004465904,0.0001923098,8,1
0.0003848434,0.0003101313,8,1
0.0002877662,0.0003814401,8,1
0.0001996027,0.0004057499,8,1
0.0001475797,0.0003809539,8,1
0.0001276457,0.0003062417,8,1
0.0001163011,0.0001950649,8,1
9.280167e-05,7.043665e-05,8,1
5.034055e-05,-4.171256e-05,8,1
2.855407e-06,-0.0001216107,8,1
-2.761287e-05,-0.0001572651,8,1
-3.101625e-05,-0.0001477033,8,1
-6.868513e-06,-9.535618e-05,8,1
2.959619e-05,-6.868513e-06,8,1
5.341979e-05,0.0001054428,8,1
3.251336e-05,0.0002290986,8,1
-5.305713e-05,0.0003451374,8,1
-0.0001989159,0.0004350837,8,1
-0.0003736223,0.0004880791,8,1
-0.0005264499,0.000500396,8,1
-0.000613641,0.0004794896,8,1
-0.0006253097,0.0004344354,8,1
-0.0005760419,0.000368799,8,1
-0.0004778303,0.0002825802,8,1
-0.0003389403,0.0001816135,8,1
-0.0001773612,7.805372e-05,8,1
-1.934754e-05,-8.975362e-06,8,1
0.0001197045,-5.565017e-05,8,1
0.000234933,-4.689865e-05,8,1
0.0003290929,1.679302e-05,8,1
0.0004115842,0.0001166253,8,1
0.0004888894,0.0002190506,8,1
0.0005657084,0.000299597,8,1
0.0006449584,0.0003543751,8,1
0.0007219395,0.0003965121,8,1
0.0007870898,0.0004354078,8,1
0.0008318199,0.0004683071,8,1
0.0008477023,0.0004862963,8,1
0.0008293889,0.000485486,8,1
0.0007822278,0.0004764104,8,1
0.0007264773,0.0004807861,8,1
0.0006840162,0.000509958,8,1
0.0006733199,0.0005496639,8,1
0.0006880678,0.0005723531,8,1
0.0007057329,0.0005558224,8,1
0.00069844,0.0005013684,8,1
0.000659058,0.0004247115,8,1
0.0006122212,0.0003405996,8,1
0.0006010387,0.0002534084,8,1
0.0006530617,0.0001548727,8,1
0.0007598628,3.996837e-05,8,1
0.0008823843,-8.271508e-05,8,1
0.0009575827,-0.0001969711,8,1
0.0009284109,-0.0002901587,8,1
0.0007810934,-0.0003551469,8,1
0.0005532294,-0.0003937184,8,1
0.0003046211,-0.0004104111,8,1
8.016057e-05,-0.0004128421,8,1
-9.519411e-05,-0.0004086284,8,1
-0.0002188499,-0.0004065215,8,1
-0.0002980999,-0.0004066836,8,1
-0.0003394265,-0.0004049009,8,1
-0.0003527159,-0.0003964735,8,1
-0.0003520676,-0.00038286,8,1
-0.0003572537,-0.0003687603,8,1
-0.0003822118,-0.0003595226,8,1
-0.000430021,-0.0003544986,8,1
-0.0004925782,-0.000350447,8,1
-0.0005616181,-0.0003391024,8,1
-0.0006356818,-0.0003115513,8,1
-0.0007196317,-0.0002699005,8,1
-0.0008230293,-0.0002290601,8,1
-0.0009521954,-0.0002005366,8,1
-0.001087358,-0.0001864369,8,1
-0.001194807,-0.0001840059,8,1
-0.00124294,-0.0001900023,8,1
-0.001218955,-0.0001997262,8,1
-0.001133222,-0.000211557,8,1
-0.001007784,-0.000223874,8,1
-0.0008625733,-0.0002391081,8,1
-0.0007246558,-0.000266173,8,1
-0.000618503,-0.0003134961,8,1
-0.0005410357,-0.0003775118,8,1
-0.0004692408,-0.000442338,8,1
-0.0003875599,-0.0004899852,8,1
-0.0002807589,-0.0005128364,8,1
-0.0001464067,-0.0005154294,8,1
1.501031e-05,-0.0005040849,8,1
0.0001960373,-0.00047232,8,1
0.0003841952,-0.0004117076,8,1
0.0005640878,-0.0003238683,8,1
0.0007141604,-0.0002297083,8,1
0.0008162616,-0.0001575893,8,1
0.0008624502,-0.000129714,8,1
0.0008525642,-0.0001462447,8,1
0.0007809313,-0.0001929195,8,1
0.0006491721,-0.000246401,8,1
0.0004713863,-0.0002882139,8,1
0.0002636185,-0.0003121996,8,1
4.677511e-05,-0.0003130099,8,1
-0.0001660166,-0.0002883759,8,1
-0.000375405,-0.0002481838,8,1
-0.0005932208,-0.0002175534,8,1
-0.0008257844,-0.0002078295,8,1
-0.001052352,-0.0002070192,8,1
-0.001244723,-0.0001937298,8,1
-0.001397551,-0.000156941,8,1
-0.001524772,-9.405965e-05,8,1
-0.001641783,-1.092015e-05,8,1
-0.001739509,8.46984e-05,8,1
-0.00177727,0.0001872858,8,1
-0.001712768,0.0002942489,8,1
-0.001514238,0.000401212,8,1
-0.001170335,0.000500234,8,1
-0.000707963,0.0005741358,8,1
-0.0001846542,0.0006049282,8,1
0.0003141829,0.0005840218,8,1
0.0007062191,0.0005211404,8,1
0.0009530449,0.0004391353,8,1
0.001074108,0.0003650715,8,1
0.001128724,0.0003252034,8,1
0.001188364,0.0003337929,8,1
0.00130732,0.0003948915,8,1
0.001494344,0.0005013684,8,1
0.001716698,0.0006352345,8,1
0.001922198,0.0007705591,8,1
0.002069353,0.0008836808,8,1
0.002135638,0.0009517483,8,1
0.002120242,0.0009634171,8,1
0.002038723,0.000926142,8,1
0.001899995,0.0008611537,8,1
0.001699033,0.0007948689,8,1
0.001435838,0.0007433321,8,1
0.00113002,0.0006981159,8,1
0.0008112376,0.0006344241,8,1
0.0005084993,0.0005260024,8,1
0.0002556773,0.0003665301,8,1
8.631905e-05,0.0001731861,8,1
1.1769e-05,-1.886135e-05,8,1
-1.520357e-06,-0.0001797922,8,1
-1.869928e-05,-0.0002922655,8,1
-8.741498e-05,-0.000353202,8,1
-0.0002088019,-0.0003779981,8,1
-0.0003543365,-0.0003904771,8,1
-0.0004841508,-0.0004104111,8,1
-0.0005651835,-0.0004437966,8,1
-0.0005856037,-0.000482206,8,1
-0.0005570802,-0.0005104054,8,1
-0.0005068399,-0.0005126743,8,1
-0.0004638926,-0.0004783165,8,1
-0.0004467137,-0.0004066836,8,1
-0.0004533584,-0.0003091203,8,1
-0.00046211,-0.0002120432,8,1
-0.0004321279,-0.0001418689,8,1
-0.0003313232,-0.0001133454,8,1
-0.0001540238,-0.0001216107,8,1
6.865393e-05,-0.0001481895,8,1
0.0002754493,-0.0001728234,8,1
0.0004093153,-0.0001794681,8,1
0.0004362182,-0.0001577513,8,1
0.0003496752,-0.0001092938,8,1
0.0001739964,-4.673658e-05,8,1
-4.284701e-05,1.031041e-05,8,1
-0.0002514251,4.72613e-05,8,1
-0.0004181903,6.444023e-05,8,1
-0.0005373082,6.719535e-05,8,1
-0.0006223925,6.168512e-05,8,1
-0.0006958081,5.471631e-05,8,1
-0.0007795958,5.260946e-05,8,1
-0.0008863969,6.055066e-05,8,1
-0.001011511,7.886404e-05,8,1
-0.00113695,0.0001046324,8,1
-0.001240185,0.0001304008,8,1
-0.001304201,0.0001428799,8,1
-0.001317815,0.000128294,8,1
-0.001278271,8.097089e-05,8,1
-0.001192052,-1.034161e-06,8,1
-0.001065155,-0.0001186936,8,1
-0.0009003344,-0.0002653627,8,1
-0.0007128249,-0.0004280762,8,1
-0.0005245051,-0.0005894933,8,1
-0.0003671397,-0.0007233592,8,1
-0.0002593663,-0.0008076332,8,1
-0.0001994021,-0.000827243,8,1
-0.0001554824,-0.000782513,8,1
-7.347736e-05,-0.0006851118,8,1
8.615699e-05,-0.0005561078,8,1
0.0003101313,-0.0004238625,8,1
0.0005444778,-0.0003152788,8,1
0.0007274497,-0.0002467252,8,1
0.0008253373,-0.0002123673,8,1
0.0008499712,-0.0001982676,8,1
0.0008379783,-0.0001848162,8,1
0.0008199891,-0.0001592099,8,1
0.0007997309,-0.0001170729,8,1
0.0007601869,-5.937768e-05,8,1
0.000690985,5.124321e-06,8,1
0.0005974732,7.092284e-05,8,1
0.0004867825,0.0001342904,8,1
0.0003475684,0.0001887444,8,1
0.0001662173,0.0002287745,8,1
-4.252288e-05,0.0002495189,8,1
-0.0002279256,0.0002477361,8,1
-0.0003266234,0.0002239125,8,1
-0.0003081479,0.0001830721,8,1
-0.0001969711,0.0001338042,8,1
-6.294311e-05,8.615699e-05,8,1
1.582063e-05,5.439218e-05,8,1
1.014835e-05,5.163707e-05,8,1
-4.787104e-05,7.935024e-05,8,1
-9.843541e-05,0.0001242423,8,1
-9.049421e-05,0.0001668655,8,1
-3.14101e-06,0.0001958752,8,1
0.0001451488,0.0001983062,8,1
0.0003059176,0.0001650828,8,1
0.0004222805,0.0001000946,8,1
0.0004639314,2.116879e-05,8,1
0.0004368664,-5.402952e-05,8,1
0.0003650715,-0.0001208004,8,1
0.0002684805,-0.0001801163,8,1
0.0001558451,-0.0002334358,8,1
3.13789e-05,-0.0002749245,8,1
-9.146661e-05,-0.0002899966,8,1
-0.000191623,-0.000268766,8,1
-0.0002553146,-0.0002180396,8,1
-0.0002752487,-0.0001543479,8,1
-0.0002530457,-9.438378e-05,8,1
-0.0002099363,-4.641245e-05,8,1
-0.0001762268,-7.840905e-06,8,1
-0.0001621271,3.073064e-05,8,1
-0.0001480274,7.52986e-05,8,1
-0.0001120489,0.0001257009,8,1
-5.483985e-05,0.0001801549,8,1
5.934648e-06,0.0002329882,8,1
4.82337e-05,0.0002778803,8,1
6.78436e-05,0.0003149933,8,1
9.63671e-05,0.0003496752,8,1
0.0001840444,0.0003879227,8,1
0.0003608578,0.0004371906,8,1
0.0006047662,0.0005031512,8,1
0.0008600192,0.0005848321,8,1
0.00105936,0.0006747784,8,1
0.001147361,0.0007618076,8,1
0.0011002,0.000837168,8,1
0.0009308419,0.0008942151,8,1
0.0006791542,0.0009308419,8,1
0.0003969983,0.0009515863,8,1
0.0001255389,0.0009567724,8,1
-0.000112373,0.0009366762,8,1
-0.0003190063,0.0008783326,8,1
-0.0005058676,0.0007882243,8,1
-0.000663395,0.000688554,8,1
-0.0007648479,0.0006075213,8,1
-0.0007977472,0.0005593878,8,1
-0.0007732753,0.0005243817,8,1
-0.0007194696,0.0004670106,8,1
-0.0006603158,0.000368961,8,1
-0.0006107238,0.0002393087,8,1
-0.0005736109,0.0001046324,8,1
-0.000541684,-3.627206e-06,8,1
-0.0005073262,-7.056019e-05,8,1
-0.0004637306,-9.389759e-05,8,1
-0.0004058733,-9.081835e-05,8,1
-0.0003322956,-8.579432e-05,8,1
-0.0002494803,-9.811128e-05,8,1
-0.0001707166,-0.0001402483,8,1
-0.0001079973,-0.0002126914,8,1
-6.44017e-05,-0.0003026377,8,1
-4.122636e-05,-0.0003933943,8,1
-5.030202e-05,-0.0004736166,8,1
-0.0001078352,-0.00053666,8,1
-0.0002110708,-0.0005786349,8,1
-0.0003387782,-0.0005987309,8,1
-0.0004583824,-0.0006005137,8,1
-0.0005360117,-0.0005959758,8,1
-0.0005604835,-0.0005937069,8,1
-0.0005389289,-0.0005885208,8,1
-0.0004851232,-0.0005679386,8,1
-0.0004258073,-0.0005189948,8,1
-0.0003883702,-0.0004387725,8,1
-0.0003906392,-0.0003340784,8,1
-0.0004355313,-0.0002123673,8,1
-0.0004998712,-7.736692e-05,8,1
-0.0005437909,7.043665e-05,8,1
-0.0005355255,0.0002231022,8,1
-0.0004640547,0.0003597233,8,1
-0.0003378059,0.0004553419,8,1
-0.0001716889,0.000487917,8,1
2.359977e-05,0.0004470765,8,1
0.0002333123,0.0003425444,8,1
0.0004448076,0.00019782,8,1
0.0006556547,4.515445e-05,8,1
0.0008558056,-8.611845e-05,8,1
0.001017709,-0.0001760647,8,1
0.001112517,-0.0002198223,8,1
0.001134396,-0.0002271153,8,1
0.001106197,-0.000209126,8,1
0.001055956,-0.0001801163,8,1
0.001005878,-0.0001551583,8,1
0.0009708721,-0.0001504584,8,1
0.0009574206,-0.0001854645,8,1
0.0009561241,-0.0002650386,8,1
0.0009332729,-0.0003685983,8,1
0.0008528884,-0.0004595169,8,1
0.0007070294,-0.0005053814,8,1
0.0005120648,-0.0004964678,8,1
0.0002987867,-0.0004428242,8,1
9.68533e-05,-0.0003627639,8,1
-7.704279e-05,-0.0002765452,8,1
-0.000221443,-0.0001945401,8,1
-0.0003361852,-0.0001277692,8,1
-0.0004196489,-8.741498e-05,8,1
-0.0004679443,-8.190475e-05,8,1
-0.0004638926,-0.0001152902,8,1
-0.000385291,-0.0001848162,8,1
-0.0002243602,-0.0002741142,8,1
-1.416145e-05,-0.0003557951,8,1
0.0001671896,-0.0004081422,8,1
0.0002456293,-0.0004241867,8,1
0.0002135403,-0.000412518,8,1
0.0001151667,-0.0003917736,8,1
1.630683e-05,-0.0003770257,8,1
-2.09682e-05,-0.0003698948,8,1
3.105477e-05,-0.0003619536,8,1
0.0001466074,-0.0003444506,8,1
0.0002692908,-0.0003151167,8,1
0.0003355756,-0.0002789762,8,1
0.0002817699,-0.0002439701,8,1
7.967438e-05,-0.0002170672,8,1
-0.0002292221,-0.0002003745,8,1
-0.0005317981,-0.0001846542,8,1
-0.0006933771,-0.0001596961,8,1
-0.0006334129,-0.0001164247,8,1
-0.0003598467,-4.85193e-05,8,1
4.45062e-05,4.142696e-05,8,1
0.0004751139,0.0001445005,8,1
0.0008365198,0.0002431983,8,1
0.001076377,0.0003209897,8,1
0.001200033,0.000366368,8,1
0.00126729,0.0003806297,8,1
0.001365178,0.0003720403,8,1
0.001553174,0.0003530786,8,1
0.001820258,0.0003375204,8,1
0.002100956,0.0003305515,8,1
0.002307104,0.0003282826,8,1
0.002346972,0.0003256896,8,1
0.002157355,0.0003183966,8,1
0.001733391,0.0003039728,8,1
0.001140231,0.0002837146,8,1
0.0004887274,0.0002605393,8,1
-0.0001000561,0.0002357433,8,1
-0.0005340669,0.0002140265,8,1
-0.0007876991,0.0002043026,8,1
-0.0009003344,0.0002094887,8,1
-0.0009479817,0.0002266676,8,1
-0.0009927117,0.0002496809,8,1
-0.001051541,0.0002691288,8,1
-0.001103402,0.0002814457,8,1
-0.001122688,0.0002885766,8,1
-0.001101295,0.0002903593,8,1
-0.001047328,0.0002927903,8,1
-0.0009799085,0.0002976523,8,1
-0.0009246443,0.0002948972,8,1
-0.0008919071,0.0002636185,8,1
-0.0008701903,0.0001897167,8,1
-0.000842153,8.194328e-05,8,1
-0.0008040677,-3.863332e-05,8,1
-0.0007721409,-0.0001528894,8,1
-0.0007680892,-0.0002489941,8,1
-0.0008068228,-0.0003264613,8,1
-0.00088429,-0.0003854531,8,1
-0.00097375,-0.0004209454,8,1
-0.001042952,-0.000427428,8,1
-0.001070989,-0.000405063,8,1
-0.001059969,-0.0003601709,8,1
-0.001023504,-0.0002987481,8,1
-0.0009752086,-0.0002284118,8,1
-0.0009261029,-0.0001561307,8,1
-0.0008834797,-9.405965e-05,8,1
-0.0008507425,-5.127441e-05,8,1
-0.000834536,-3.21507e-05,8,1
-0.0008368049,-3.101625e-05,8,1
-0.0008471771,-3.717473e-05,8,1
-0.0008586837,-4.05781e-05,8,1
-0.0008692179,-3.571614e-05,8,1
-0.0008774833,-2.226472e-05,8,1
-0.0008943381,-2.168618e-06,8,1
-0.0009320992,2.700314e-05,8,1
-0.0009852567,6.541262e-05,8,1
-0.001024152,0.000113384,8,1
-0.00101297,0.0001673517,8,1
-0.000931451,0.0002234263,8,1
-0.0007765166,0.000282256,8,1
-0.0005609698,0.0003449753,8,1
-0.0003112272,0.0004138531,8,1
-7.088431e-05,0.0004861343,8,1
0.0001114392,0.0005368608,8,1
0.0002130541,0.0005260024,8,1
0.000250005,0.000425846,8,1
0.0002566497,0.0002422259,8,1
0.0002631324,1.257933e-05,8,1
0.0002897111,-0.0002099363,8,1
0.0003456236,-0.0003783222,8,1
0.0004320045,-0.0004689167,8,1
0.0005234093,-0.0004797751,8,1
0.0005571189,-0.00042759,8,1
0.0004882411,-0.0003475298,8,1
0.0003425444,-0.0002752487,8,1
0.000202844,-0.0002298704,8,1
0.0001500107,-0.0002138259,8,1
0.0002198609,-0.0002185258,8,1
0.0004005638,-0.0002266291,8,1
0.0006524134,-0.0002186879,8,1
0.0009217662,-0.0001812508,8,1
0.001159192,-0.0001136696,8,1
0.001323203,-2.015787e-05,8,1
0.001394512,8.988449e-05,8,1
0.001379277,0.0002051129,8,1
0.001294193,0.0003239069,8,1
0.001167458,0.0004475628,8,1
0.001026299,0.0005751082,8,1
0.000884167,0.0006948746,8,1
0.0007451148,0.0007932483,8,1
0.0006214589,0.0008590469,8,1
0.0005294057,0.0008921082,8,1
0.0004726828,0.0009052355,8,1
0.0004331389,0.0009120423,8,1
0.0003850055,0.0009117182,8,1
0.0003052694,0.0008950254,8,1
0.0001850168,0.0008488368,8,1
2.376183e-05,0.0007684522,8,1
-0.0001574272,0.0006644063,8,1
-0.0003172236,0.0005538776,8,1
-0.0004086284,0.000450804,8,1
-0.0004019837,0.0003626405,8,1
-0.0003002067,0.0002914938,8,1
-0.0001455964,0.0002346088,8,1
8.851824e-06,0.0001897167,8,1
0.0001257009,0.0001472556,8,1
0.0001710792,0.0001017153,8,1
0.000115977,5.358185e-05,8,1
-4.38194e-05,-1.358292e-06,8,1
-0.0002703867,-7.250496e-05,8,1
-0.0005001953,-0.0001639098,8,1
-0.0006734431,-0.0002682799,8,1
-0.0007535033,-0.000370543,8,1
-0.0007184973,-0.0004553032,8,1
-0.0005593491,-0.0005123502,8,1
-0.0002951827,-0.0005358497,8,1
8.365628e-06,-0.0005191569,8,1
0.000264753,-0.0004543308,8,1
0.0004196875,-0.0003434782,8,1
0.0004756001,-0.0002086398,8,1
0.0004692795,-9.389759e-05,8,1
0.0004478869,-4.868137e-05,8,1
0.0004488593,-9.859748e-05,8,1
0.0004822447,-0.0002340841,8,1
0.0005402642,-0.0004217557,8,1
0.0006063868,-0.0006175305,8,1
0.0006575995,-0.0007846198,8,1
0.0006723474,-0.000911355,8,1
0.0006456067,-0.001000815,8,1
0.0005759185,-0.00105689,8,1
0.0004728449,-0.00107812,8,1
0.00035162,-0.001064669,8,1
0.000220185,-0.001024639,8,1
8.275361e-05,-0.00097375,8,1
-5.937768e-05,-0.0009311269,8,1
-0.0001958367,-0.0009120032,8,1
-0.0003087962,-0.0009178375,8,1
-0.0003792946,-0.0009369612,8,1
-0.000392746,-0.0009544643,8,1
-0.0003485022,-0.0009555988,8,1
-0.0002632558,-0.0009246443,8,1
-0.0001639098,-0.0008513908,8,1
-7.542214e-05,-0.0007439415,8,1
-1.740276e-05,-0.0006175305,8,1
1.002961e-07,-0.0004885266,8,1
-1.497178e-05,-0.0003716775,8,1
-4.155049e-05,-0.000271197,8,1
-5.435365e-05,-0.0001791439,8,1
-3.150244e-05,-8.174268e-05,8,1
4.385793e-05,3.413401e-05,8,1
0.0001738343,0.0001790204,8,1
0.0003427064,0.0003597233,8,1
0.000520168,0.0005838597,8,1
0.0006648925,0.0008358715,8,1
0.0007452769,0.001068111,8,1
0.0007459252,0.00121705,8,1
0.0006785059,0.001235201,8,1
0.0005587396,0.001117217,8,1
0.0004023465,0.000906532,8,1
0.0002372019,0.0006682958,8,1
9.63671e-05,0.0004548557,8,1
-2.168618e-06,0.00029198,8,1
-6.683268e-05,0.0001788584,8,1
-0.0001251762,0.0001023635,8,1
-0.0002068571,5.779555e-05,8,1
-0.0003162512,4.920609e-05,8,1
-0.0004394208,7.821578e-05,8,1
-0.000556594,0.0001389903,8,1
-0.0006505919,0.0002193747,8,1
-0.0007100698,0.0003072141,8,1
-0.0007385933,0.0003944053,8,1
-0.000750424,0.0004825689,8,1
-0.000757555,0.0005728393,8,1
-0.000755286,0.0006627856,8,1
-0.0007209282,0.0007368495,8,1
-0.0006395715,0.000780121,8,1
-0.0005238568,0.0007861174,8,1
-0.0004011734,0.0007616456,8,1
-0.0002927517,0.0007214533,8,1
-0.0001951884,0.0006841783,8,1
-9.551824e-05,0.0006668373,8,1
2.116879e-05,0.0006731578,8,1
0.0001595726,0.0006898505,8,1
0.0003041349,0.000695847,8,1
0.0004193634,0.0006853127,8,1
0.0004751139,0.0006644063,8,1
0.0004488593,0.0006524134,8,1
0.0003252034,0.000651441,8,1
0.0001119254,0.0006410689,8,1
-0.0001391138,0.0005935837,8,1
-0.0003609812,0.0004926169,8,1
-0.0005112157,0.0003483787,8,1
-0.0005877105,0.0001796687,8,1
-0.0006134789,1.002961e-07,8,1
-0.0006219063,-0.0001796301,8,1
-0.0006442713,-0.0003499608,8,1
-0.0006940254,-0.0005058676,8,1
-0.0007661444,-0.000643299,8,1
-0.000847015,-0.000757555,8,1
-0.0009348544,-0.0008492839,8,1
-0.001044411,-0.0009204306,8,1
-0.001174225,-0.0009782879,8,1
-0.001293505,-0.001026097,8,1
-0.001348607,-0.001056727,8,1
-0.001303391,-0.001057376,8,1
-0.00116677,-0.001019615,8,1
-0.0009844464,-0.0009534919,8,1
-0.0008064987,-0.0008804005,8,1
-0.0006543194,-0.0008163847,8,1
-0.0005199672,-0.0007617687,8,1
-0.0003925839,-0.0007084492,8,1
-0.0002708729,-0.0006476747,8,1
-0.0001556445,-0.0005825245,8,1
-3.344723e-05,-0.0005167259,8,1
0.0001203528,-0.0004531963,8,1
0.0003122381,-0.0003932322,8,1
0.0005230852,-0.0003378059,8,1
0.0007373357,-0.0002914552,8,1
0.0009522345,-0.0002507768,8,1
0.001156761,-0.0002160948,8,1
0.001313803,-0.0001872472,8,1
0.001385436,-0.0001622891,8,1
0.001361612,-0.0001394379,8,1
0.001271504,-0.0001211246,8,1
0.001166485,-0.0001052422,8,1
0.001081563,-8.433573e-05,8,1
0.001018357,-4.462973e-05,8,1
0.0009548276,2.084466e-05,8,1
0.0008710398,0.0001062531,8,1
0.0007682902,0.0001986303,8,1
0.0006511169,0.0002876042,8,1
0.0005214646,0.0003683128,8,1
0.0003942432,0.0004418904,8,1
0.0003034866,0.0005159543,8,1
0.0002843629,0.0005963388,8,1
0.000354051,0.000681099,8,1
0.0005029891,0.0007579181,8,1
0.0007146465,0.0008070238,8,1
0.0009687652,0.00080751,8,1
0.001229529,0.0007524078,8,1
0.001441348,0.000661327,8,1
0.001547988,0.000574622,8,1
0.001518978,0.000537347,8,1
0.00136226,0.0005702463,8,1
0.001120134,0.0006543582,8,1
0.0008527263,0.0007337703,8,1
0.0006157866,0.0007425218,8,1
0.0004375147,0.0006506307,8,1
0.0003201794,0.000478031,8,1
0.0002389846,0.0002858215,8,1
0.0001613553,0.0001401247,8,1
6.881599e-05,7.772959e-05,8,1
-5.078821e-05,8.923623e-05,8,1
-0.0001835197,0.0001274836,8,1
-0.0002852967,0.0001380179,8,1
-0.0003076617,8.696731e-05,8,1
-0.0002407288,-2.453363e-05,8,1
-0.0001350622,-0.0001703924,8,1
-6.537409e-05,-0.0003190063,8,1
-8.903562e-05,-0.0004574101,8,1
-0.0002138259,-0.0005883588,8,1
-0.0004065215,-0.0007065044,8,1
-0.0006202856,-0.0008016367,8,1
-0.0008100641,-0.0008590078,8,1
-0.0009484679,-0.0008664628,8,1
-0.001025935,-0.0008235155,8,1
-0.001053,-0.0007376209,8,1
-0.001065155,-0.0006243373,8,1
-0.001091896,-0.0005042469,8,1
-0.001133709,-0.0003914495,8,1
-0.001168715,-0.000290969,8,1
-0.001178114,-0.0002021572,8,1
-0.001142298,-0.000127121,8,1
-0.001029176,-6.553616e-05,8,1
-0.0008160605,-1.416145e-05,8,1
-0.0005270981,3.462021e-05,8,1
-0.0002368392,9.053275e-05,8,1
-2.761287e-05,0.0001547106,8,1
3.93201e-05,0.0002206712,8,1
-4.317115e-05,0.0002825802,8,1
-0.0002326255,0.0003321722,8,1
-0.0004643789,0.0003770643,8,1
-0.0006749016,0.0004354078,8,1
-0.0008068228,0.0005144958,8,1
-0.0008275671,0.000606873,8,1
-0.0007518827,0.0006948746,8,1
-0.0006282268,0.0007669937,8,1
-0.0004997091,0.0008185305,8,1
-0.0003749188,0.0008455954,8,1
-0.0002335979,0.0008426782,8,1
-5.743289e-05,0.0008010275,8,1
0.0001435281,0.0007199947,8,1
0.0003363859,0.0006023352,8,1
0.0004874308,0.0004474007,8,1
0.0005888838,0.0002584324,8,1
0.0006462549,4.369587e-05,8,1
0.0006673234,-0.000174444,8,1
0.0006585719,-0.0003664914,8,1
0.0006279415,-0.000504409,8,1
0.0005785116,-0.0005708557,8,1
0.0005122268,-0.0005687489,8,1
0.0004295735,-0.0005285567,8,1
0.0003380065,-0.0004862577,8,1
0.0002472499,-0.0004658375,8,1
0.0001577899,-0.0004757234,8,1
6.233338e-05,-0.0005087847,8,1
-3.668853e-05,-0.0005431426,8,1
-0.0001199901,-0.0005609698,8,1
-0.000171851,-0.0005578905,8,1
-0.0001885437,-0.0005475183,8,1
-0.0001697442,-0.000541684,8,1
-0.0001290658,-0.0005394151,8,1
-0.0001005423,-0.0005303394,8,1
-0.0001110765,-0.0005042469,8,1
-0.0001543479,-0.0004611376,8,1
-0.0001961608,-0.0004087905,8,1
-0.0002023193,-0.0003499608,8,1
-0.0001598582,-0.0002898345,8,1
-8.02841e-05,-0.0002293842,8,1
8.203562e-06,-0.0001697442,8,1
8.712937e-05,-0.0001081593,8,1
0.0001527658,-4.641245e-05,8,1
0.0001926339,1.12828e-05,8,1
0.0001957132,6.200925e-05,8,1
0.0001833962,0.0001141943,8,1
0.0001974959,0.0001801549,8,1
0.0002542187,0.0002679943,8,1
0.0003375204,0.0003791712,8,1
0.0004086671,0.0004966686,8,1
0.0004179048,0.0005976353,8,1
0.0003159656,0.0006658648,8,1
0.0001064152,0.0007002227,8,1
-0.0001477033,0.0007110811,8,1
-0.0003468815,0.0007086502,8,1
-0.000400201,0.0007016813,8,1
-0.0002656868,0.0006955228,8,1
3.267542e-05,0.000693578,8,1
0.0004049396,0.0006901747,8,1
0.0007423597,0.0006718613,8,1
0.0009559621,0.0006251864,8,1
0.001001502,0.000557281,8,1
0.0008911358,0.0004880791,8,1
0.0006802886,0.0004341113,8,1
0.0004324906,0.0003944053,8,1
0.0001960373,0.0003529166,8,1
-2.978945e-06,0.0002932765,8,1
-0.0001546721,0.0002075439,8,1
-0.0002648765,0.0001020394,8,1
-0.0003561192,-6.544382e-06,8,1
-0.0004515757,-9.875954e-05,8,1
-0.000571504,-0.000164396,8,1
-0.0007405381,-0.0002079916,8,1
-0.0009795844,-0.0002370013,8,1
-0.001273733,-0.0002570974,8,1
-0.001561075,-0.0002726556,8,1
-0.001756039,-0.0002887001,8,1
-0.001796232,-0.000310741,8,1
-0.001665283,-0.0003363473,8,1
-0.00139042,-0.0003622777,8,1
-0.001023666,-0.0003814014,8,1
-0.0006350336,-0.0003940425,8,1
-0.0003112272,-0.0003987424,8,1
-0.0001303623,-0.0003979321,8,1
-0.0001199901,-0.0003929081,8,1
-0.0002269532,-0.0003851289,8,1
-0.0003510952,-0.0003789705,8,1
-0.000397608,-0.0003857772,8,1
-0.0003151167,-0.0004134903,8,1
-0.0001058904,-0.000459679,8,1
0.0001942546,-0.0005173742,8,1
0.0005289196,-0.0005698834,8,1
0.0008366818,-0.0006008379,8,1
0.001077349,-0.0005984068,8,1
0.001235525,-0.0005582146,8,1
0.001315748,-0.0004825302,8,1
0.001336168,-0.0003763774,8,1
0.001306024,-0.0002473734,8,1
0.00121867,-0.0001240417,8,1
0.001063736,-4.738484e-05,8,1
0.0008561297,-4.05781e-05,8,1
0.0006259967,-9.924574e-05,8,1
0.0004076947,-0.0001953505,8,1
0.0002394708,-0.0002930758,8,1
0.0001576278,-0.0003681121,8,1
0.0001992786,-0.0004134903,8,1
0.0003791712,-0.0004266177,8,1
0.0006721854,-0.0004068457,8,1
0.001017547,-0.0003523917,8,1
0.001345244,-0.0002669833,8,1
0.001596283,-0.0001640719,8,1
0.001736794,-6.180866e-05,8,1
0.001766128,2.262738e-05,8,1
0.001715077,8.242948e-05,8,1
0.001620107,0.0001265113,8,1
0.001500989,0.0001663793,8,1
0.001357723,0.0002067336,8,1
0.001178478,0.0002493568,8,1
0.0009548276,0.0002929524,8,1
0.0006763991,0.000341734,8,1
0.0003435168,0.0004013741,8,1
-2.42095e-05,0.0004764104,8,1
-0.0003833462,0.0005666808,8,1
-0.0006849497,0.0006608408,8,1
-0.0009014689,0.0007373357,8,1
-0.001029663,0.0007822278,8,1
-0.001083954,0.0007990826,8,1
-0.001084765,0.0008086445,8,1
-0.001044735,0.0008209614,8,1
-0.0009727777,0.0008279303,8,1
-0.0008774833,0.0008088066,8,1
-0.0007697099,0.0007438183,8,1
-0.0006599916,0.0006295622,8,1
-0.0005656697,0.0004806241,8,1
-0.0005107295,0.0003166139,8,1
-0.0005123502,0.0001589243,8,1
-0.0005634008,2.81376e-05,8,1
-0.0006251476,-5.889148e-05,8,1
-0.0006609641,-8.692878e-05,8,1
-0.0006614503,-6.0188e-05,8,1
-0.0006491333,-1.562004e-05,8,1
-0.0006582089,1.558884e-06,8,1
-0.0007078009,-2.728874e-05,8,1
-0.0007967748,-8.482193e-05,8,1
-0.0009019551,-0.0001430034,8,1
-0.0009859049,-0.0001833576,8,1
-0.001010377,-0.0002032917,8,1
-0.000943768,-0.0001982676,8,1
-0.0007797579,-0.0001627754,8,1
-0.0005389289,-9.875954e-05,8,1
-0.0002655248,-2.566809e-05,8,1
-2.664048e-05,3.251336e-05,8,1
0.0001107909,6.444023e-05,8,1
0.0001104668,5.860588e-05,8,1
-1.25408e-05,-1.432352e-05,8,1
-0.0001997262,-0.0001671511,8,1
-0.0003726499,-0.0003755671,8,1
-0.0004862577,-0.0005941931,8,1
-0.000534229,-0.0007758683,8,1
-0.0005347152,-0.0008899623,8,1
-0.0005003574,-0.0009308027,8,1
-0.0004353692,-0.0009121653,8,1
-0.000342992,-0.0008557665,8,1
-0.0002276015,-0.000784944,8,1
-8.206682e-05,-0.0007152559,8,1
0.000101067,-0.0006501057,8,1
0.0003111037,-0.0005869002,8,1
0.0005224369,-0.0005245051,8,1
0.0007039502,-0.0004666478,8,1
0.0008164236,-0.0004186764,8,1
0.0008290648,-0.0003771877,8,1
0.000738146,-0.0003319715,8,1
0.0005665187,-0.0002694143,8,1
0.0003600474,-0.0001849783,8,1
0.0001684862,-8.336335e-05,8,1
2.376183e-05,3.170304e-05,8,1
-6.958779e-05,0.0001592484,8,1
-0.0001344139,0.0002965178,8,1
-0.0002133397,0.0004380009,8,1
-0.0003342404,0.0005807805,8,1
-0.0004843129,0.0007219395,8,1
-0.000621258,0.0008660157,8,1
-0.0007061802,0.001017547,8,1
-0.0007225489,0.001172157,8,1
-0.0006736051,0.001304889,8,1
-0.0005731247,0.001382681,8,1
-0.000437314,0.001367122,8,1
-0.0002771934,0.001229691,8,1
-0.0001044318,0.0009747617,8,1
7.027458e-05,0.0006485239,8,1
0.000225209,0.0003247172,8,1
0.0003394651,6.735741e-05,8,1
0.0004083429,-8.838737e-05,8,1
0.0004381629,-0.0001410586,8,1
0.0004375147,-0.0001195039,8,1
0.0004104497,-6.116039e-05,8,1
0.0003610198,1.614476e-05,8,1
0.0002999212,0.000110953,8,1
0.0002440086,0.0002171058,8,1
0.0002094887,0.0003132105,8,1
0.0001979821,0.0003767402,8,1
0.0001749688,0.0003916502,8,1
9.037068e-05,0.0003592371,8,1
-8.174268e-05,0.0002974902,8,1
-0.0003154408,0.0002323399,8,1
-0.0005463839,0.0001788584,8,1
-0.0007027769,0.0001409351,8,1
-0.0007382692,0.0001130598,8,1
-0.0006450817,8.259155e-05,8,1
-0.000454817,3.93201e-05,8,1
-0.0002224154,-1.918548e-05,8,1
-5.57199e-06,-8.628052e-05,8,1
0.0001594105,-0.0001543479,8,1
0.0002514636,-0.0002117191,8,1
0.0002754493,-0.0002522354,8,1
0.0002684805,-0.0002767073,8,1
0.000274639,-0.0002893484,8,1
0.0003208276,-0.0002911311,8,1
0.0004093153,-0.0002818933,8,1
0.0005302161,-0.0002634179,8,1
0.0006621373,-0.0002412149,8,1
0.0007848209,-0.0002204706,8,1
0.0008925945,-0.0002086398,8,1
0.0009799477,-0.0002143121,8,1
0.001046395,-0.0002525595,8,1
0.001096149,-0.0003253268,8,1
0.001129696,-0.0004180282,8,1
0.00113472,-0.0005050572,8,1
0.001096635,-0.0005617801,8,1
0.001012361,-0.0005792832,8,1
0.0009021563,-0.0005625904,8,1
0.0007891966,-0.0005238568,8,1
0.0006922815,-0.0004750752,8,1
0.0006248623,-0.0004243487,8,1
0.0005908285,-0.000375405,8,1
0.0005921251,-0.0003293785,8,1
0.0006175694,-0.000283514,8,1
0.0006328035,-0.0002386219,8,1
0.0005922872,-0.0001969711,8,1
0.0004637693,-0.0001677994,8,1
0.0002419018,-0.0001541859,8,1
-4.949169e-05,-0.0001549962,8,1
-0.0003613053,-0.0001690959,8,1
-0.0006444334,-0.0001904885,8,1
-0.0008628974,-0.0002052365,8,1
-0.001005677,-0.0001994021,8,1
-0.001084441,-0.0001580754,8,1
-0.001121554,-7.104638e-05,8,1
-0.001131926,5.747142e-05,8,1
-0.00111653,0.0002111094,8,1
-0.001066776,0.0003668542,8,1
-0.0009828256,0.0005010443,8,1
-0.0008747282,0.000589532,8,1
-0.0007612825,0.0006178935,8,1
-0.0006564262,0.0005788357,8,1
-0.0005617801,0.0004718725,8,1
-0.0004713477,0.0003021901,8,1
-0.00038286,8.437427e-05,8,1
-0.0002890242,-0.0001609926,8,1
-0.0001971332,-0.0004078181,8,1
-0.0001290658,-0.0006298475,8,1
-0.0001139937,-0.0008021229,8,1
-0.0001825473,-0.0009060067,8,1
-0.0003342404,-0.0009324234,8,1
-0.0005236948,-0.0008943381,8,1
-0.0006752257,-0.0008139537,8,1
-0.0007262764,-0.0007108802,8,1
-0.0006486471,-0.0005919242,8,1
-0.0004460655,-0.0004565997,8,1
-0.0001611547,-0.0002997205,8,1
0.0001378558,-0.0001292278,8,1
0.0003820883,3.380988e-05,8,1
0.0005305402,0.0001686482,8,1
0.0005819149,0.0002655633,8,1
0.0005755944,0.0003232586,8,1
0.0005634395,0.0003464339,8,1
0.0005751082,0.0003470822,8,1
0.000601849,0.0003405996,8,1
0.0006089798,0.0003371962,8,1
0.0005708945,0.0003457857,8,1
0.0004751139,0.0003673404,8,1
0.0003271482,0.0003942432,8,1
0.0001475797,0.0004227667,8,1
-2.988179e-05,0.0004490213,8,1
-0.0001642339,0.0004715484,8,1
-0.0002248464,0.0004858102,8,1
-0.0002105846,0.0004908342,8,1
-0.0001358725,0.000485324,8,1
-2.745081e-05,0.0004674968,8,1
8.907416e-05,0.0004339493,8,1
0.0002018716,0.0003867882,8,1
0.0003111037,0.0003336308,8,1
0.0004149876,0.0002867939,8,1
0.0004948858,0.0002493568,8,1
0.0005110924,0.0002130541,8,1
0.0004201737,0.0001667035,8,1
0.0002090025,0.0001127357,8,1
-8.384954e-05,6.168512e-05,8,1
-0.0003786463,2.424803e-05,8,1
-0.0005946793,1.072688e-06,8,1
-0.0006794395,-1.173047e-05,8,1
-0.0006249856,-2.242678e-05,8,1
-0.000457248,-3.409549e-05,8,1
-0.0002224154,-4.187462e-05,8,1
3.640293e-05,-4.317115e-05,8,1
0.0002824181,-4.05781e-05,8,1
0.0004898618,-3.506788e-05,8,1
0.000641393,-2.599222e-05,8,1
0.0007167534,-1.351319e-05,8,1
0.0007096225,-1.844488e-06,8,1
0.000631507,5.610517e-06,8,1
0.0004911583,9.500085e-06,8,1
0.0003081865,1.014835e-05,8,1
0.0001104668,1.047248e-05,8,1
-8.676672e-05,1.241726e-05,8,1
-0.0002734659,1.744129e-05,8,1
-0.0004460655,2.619281e-05,8,1
-0.0005881967,4.207521e-05,8,1
-0.0006729569,6.703327e-05,8,1
-0.000675712,0.0001025256,8,1
-0.0005906277,0.0001485521,8,1
-0.0004395829,0.0002005751,8,1
-0.000258718,0.0002527602,8,1
-9.19528e-05,0.0003015418,8,1
2.538249e-05,0.0003506476,8,1
9.101894e-05,0.0003982949,8,1
0.000135911,0.0004329769,8,1
0.0002017096,0.0004342734,8,1
0.0003158036,0.0003913261,8,1
0.000492779,0.0003127243,8,1
0.0007263153,0.0002164575,8,1
0.0009872407,0.0001302388,8,1
0.001220129,7.416415e-05,8,1
0.00136064,5.61749e-05,8,1
0.001363557,6.751948e-05,8,1
0.001227098,9.280167e-05,8,1
0.0009924268,0.0001166253,8,1
0.0007272876,0.0001247285,8,1
0.0004992616,0.0001070634,8,1
0.0003543751,6.46023e-05,8,1
0.0003112658,6.582909e-06,8,1
0.0003501615,-5.32192e-05,8,1
0.0004145014,-0.0001026491,8,1
0.0004396215,-0.0001363587,8,1
0.0003827366,-0.0001535376,8,1
0.0002490327,-0.0001543479,8,1
8.891209e-05,-0.0001452723,8,1
-4.236082e-05,-0.0001535376,8,1
-0.0001109144,-0.0002097743,8,1
-0.0001169109,-0.0003167374,8,1
-8.417367e-05,-0.0004496309,8,1
-4.641245e-05,-0.0005687489,8,1
-3.944364e-05,-0.000643299,8,1
-9.065628e-05,-0.0006612882,8,1
-0.0002097743,-0.0006222305,8,1
-0.0003783222,-0.0005348772,8,1
-0.0005638869,-0.0004178661,8,1
-0.0007236833,-0.0002893484,8,1
-0.0008199501,-0.0001626133,8,1
-0.0008338877,-5.289507e-05,8,1
-0.0007721409,2.846173e-05,8,1
-0.000668257,7.886404e-05,8,1
-0.0005559457,0.0001047945,8,1
-0.0004611376,0.0001161391,8,1
-0.0004083043,0.0001339663,8,1
-0.0004144627,0.0001808031,8,1
-0.0004797751,0.0002654013,8,1
-0.0005993792,0.0003734989,8,1
-0.0007684134,0.0004820827,8,1
-0.0009630537,0.000572029,8,1
-0.001139543,0.0006261588,8,1
-0.001263847,0.0006326414,8,1
-0.001333049,0.0005888838,8,1
-0.001357845,0.000502827,8,1
-0.001342287,0.0004007258,8,1
-0.00128605,0.0003196932,8,1
-0.001187352,0.000282256,8,1
-0.001053,0.0002751252,8,1
-0.0009003344,0.0002641047,8,1
-0.0007437794,0.0002120818,8,1
-0.0005805797,0.0001044704,8,1
-0.0004019837,-4.625038e-05,8,1
-0.000206695,-0.000206533,8,1
-2.168618e-06,-0.0003442885,8,1
0.0002033302,-0.0004339106,8,1
0.000396188,-0.0004658375,8,1
0.0005564707,-0.0004496309,8,1
0.0006657028,-0.000407656,8,1
0.0007112432,-0.000360495,8,1
0.000688392,-0.0003253268,8,1
0.0006024973,-0.000300855,8,1
0.0004743035,-0.0002681178,8,1
0.0003284447,-0.0002034537,8,1
0.0001814514,-9.422172e-05,8,1
3.964424e-05,5.309566e-05,8,1
-0.0001026491,0.0002167816,8,1
-0.0002468872,0.0003671783,8,1
-0.0003911253,0.0004718725,8,1
-0.000524343,0.0005143337,8,1
-0.0006283889,0.0005026649,8,1
-0.0006849497,0.000460528,8,1
-0.000680574,0.0004031568,8,1
-0.0006094273,0.0003389789,8,1
-0.0004826922,0.0002691288,8,1
-0.0003217614,0.0001866375,8,1
-0.0001566169,8.323981e-05,8,1
-2.129233e-05,-4.219875e-05,8,1
4.790957e-05,-0.0001823853,8,1
3.105477e-05,-0.0003193304,8,1
-6.083626e-05,-0.0004322899,8,1
-0.0001827094,-0.0005021401,8,1
-0.0002877277,-0.0005188328,8,1
-0.0003609812,-0.0004865818,8,1
-0.0004149489,-0.0004290486,8,1
-0.000467296,-0.0003784843,8,1
-0.0005258016,-0.0003582261,8,1
-0.0005946793,-0.0003713534,8,1
-0.0006640433,-0.0004039285,8,1
-0.000717849,-0.0004425001,8,1
-0.0007413484,-0.0004783165,8,1
-0.0007230351,-0.0005016539,8,1
-0.0006632329,-0.0005138087,8,1
-0.0005608077,-0.0005162397,8,1
-0.0004162455,-0.0005078124,8,1
-0.0002502906,-0.000489661,8,1
-9.438378e-05,-0.0004689167,8,1
4.531652e-05,-0.0004512515,8,1
0.0001983062,-0.0004403932,8,1
0.0003955397,-0.000432452,8,1
0.0006412309,-0.0004190006,8,1
0.0009075044,-0.0003966356,8,1
0.001156761,-0.0003648708,8,1
0.001365988,-0.0003271096,8,1
0.001537453,-0.0002840002,8,1
0.001679747,-0.0002376495,8,1
0.001790438,-0.0001906506,8,1
0.001851375,-0.0001441378,8,1
0.001848296,-9.973194e-05,8,1
0.00179449,-5.127441e-05,8,1
0.001722857,1.112074e-05,8,1
0.001655113,9.280167e-05,8,1
0.00159207,0.0001887444,8,1
0.001524488,0.0002885766,8,1
0.001451396,0.0003759298,8,1
0.001382194,0.0004365423,8,1
0.001322068,0.0004658761,8,1
0.001268749,0.0004710622,8,1
0.001222236,0.0004639314,8,1
0.001191281,0.0004561522,8,1
0.001189174,0.0004543695,8,1
0.001214943,0.0004590694,8,1
0.001254649,0.0004673347,8,1
0.001293545,0.0004759242,8,1
0.001329847,0.0004799758,8,1
0.001369715,0.0004728449,8,1
0.001412987,0.0004452938,8,1
0.001442645,0.0003910019,8,1
0.001428383,0.0003085106,8,1
0.001336978,0.0002083542,8,1
0.00114882,0.0001083599,8,1
0.0008702294,2.295151e-05,8,1
0.0005295678,-4.171256e-05,8,1
0.0001626518,-8.482193e-05,8,1
-0.0001859507,-0.0001101041,8,1
-0.0004794509,-0.0001342519,8,1
-0.0006943495,-0.00016942,8,1
-0.0008270809,-0.0002109087,8,1
-0.0008930415,-0.0002340841,8,1
-0.000923996,-0.0002102605,8,1
-0.0009526816,-0.0001396,8,1
-0.0009990323,-4.949169e-05,8,1
-0.001068072,2.619281e-05,8,1
-0.001147322,6.168512e-05,8,1
-0.001210365,4.142696e-05,8,1
-0.001240185,-4.009191e-05,8,1
-0.001233055,-0.0001728234,8,1
-0.001200317,-0.0003316474,8,1
-0.001168066,-0.0004912817,8,1
-0.001164987,-0.0006327647,8,1
-0.001207124,-0.0007489655,8,1
-0.001275354,-0.0008329154,8,1
-0.001338883,-0.0008826694,8,1
-0.001383613,-0.0008936898,8,1
-0.00141165,-0.0008609526,8,1
-0.001426723,-0.0007805682,8,1
-0.001430288,-0.000658371,8,1
-0.001420726,-0.0005219121,8,1
-0.001390906,-0.0004112214,8,1
-0.001323649,-0.0003512573,8,1
-0.001200479,-0.000333106,8,1
-0.001015077,-0.0003271096,8,1
-0.0007747339,-0.000301017,8,1
-0.0005102433,-0.0002324634,8,1
-0.0002697385,-0.0001016767,8,1
-0.0001057284,0.0001033359,8,1
-4.138842e-05,0.0003629646,8,1
-5.856735e-05,0.000624214,8,1
-0.0001151281,0.0008366818,8,1
-0.0001699062,0.0009754099,8,1
-0.0001984297,0.001039426,8,1
-0.0001976194,0.001039264,8,1
-0.0001661787,0.0009933992,8,1
-0.0001107524,0.0009245213,8,1
-4.657452e-05,0.0008512677,8,1
1.452411e-05,0.0007888725,8,1
5.115087e-05,0.0007509492,8,1
4.045456e-05,0.0007486803,8,1
-2.339918e-05,0.0007783383,8,1
-0.0001233935,0.0008185305,8,1
-0.0002280877,0.0008541849,8,1
-0.0002974516,0.0008807636,8,1
-0.0002919414,0.0008925945,8,1
-0.0001890299,0.0008885428,8,1
5.448452e-06,0.0008763879,8,1
0.0002590807,0.0008765499,8,1
0.0005193577,0.0009045873,8,1
0.0007204809,0.0009564483,8,1
0.0008081583,0.001004258,8,1
0.0007632662,0.001012523,8,1
0.0006002283,0.0009570965,8,1
0.0003670162,0.000837006,8,1
0.0001274836,0.0006728336,8,1
-5.565017e-05,0.0004968306,8,1
-0.0001447861,0.0003430306,8,1
-0.0001386276,0.0002286124,8,1
-6.456377e-05,0.000150659,8,1
3.251336e-05,9.134307e-05,8,1
0.0001004187,3.105477e-05,8,1
0.0001070634,-4.446767e-05,8,1
5.439218e-05,-0.0001407345,8,1
-1.853722e-05,-0.0002533699,8,1
-5.856735e-05,-0.0003794566,8,1
-1.772689e-05,-0.0004995471,8,1
0.0001192183,-0.0005964621,8,1
0.0003219621,-0.0006629088,8,1
0.0005206542,-0.000710718,8,1
0.0006449584,-0.0007614446,8,1
0.0006700786,-0.0008283774,8,1
0.0006334517,-0.0009027654,8,1
0.0005898562,-0.0009588401,8,1
0.0005691118,-0.0009696984,8,1
0.0005634395,-0.0009192961,8,1
0.0005388056,-0.000812333,8,1
0.0004649037,-0.0006714982,8,1
0.0003375204,-0.0005274223,8,1
0.0001783722,-0.0004029561,8,1
1.436204e-05,-0.0003105789,8,1
-0.0001340898,-0.0002467252,8,1
-0.0002473734,-0.0001981056,8,1
-0.0003087962,-0.0001541859,8,1
-0.0003130099,-0.0001088076,8,1
-0.0002783279,-6.44017e-05,8,1
-0.0002425115,-2.728874e-05,8,1
-0.0002361909,-7.100305e-07,8,1
-0.000271197,2.732727e-05,8,1
-0.0003489884,7.30297e-05,8,1
-0.0004732924,0.0001414213,8,1
-0.0006447575,0.0002231022,8,1
-0.0008324291,0.0002952213,8,1
-0.0009818533,0.0003261758,8,1
-0.001040197,0.0002978143,8,1
-0.0009825015,0.0002174299,8,1
-0.0008277292,0.0001078737,8,1
-0.0006165582,-1.464765e-05,8,1
-0.0003908012,-0.0001452723,8,1
-0.0001728234,-0.0002818933,8,1
3.056858e-05,-0.0004170558,8,1
0.0002231022,-0.0005424943,8,1
0.0003969983,-0.0006520505,8,1
0.0005321609,-0.0007457242,8,1
0.0006104385,-0.0008175191,8,1
0.0006345862,-0.0008667869,8,1
0.0006138419,-0.0008912588,8,1
0.0005350781,-0.0008927174,8,1
0.0003741471,-0.0008765109,8,1
0.0001516314,-0.0008406945,8,1
-6.342931e-05,-0.000782351,8,1
-0.0001919471,-0.0006979149,8,1
-0.0002053985,-0.0005933828,8,1
-0.0001455964,-0.000477182,8,1
-7.914964e-05,-0.0003591985,8,1
-3.409549e-05,-0.0002489941,8,1
1.883015e-06,-0.0001483515,8,1
5.131294e-05,-5.613637e-05,8,1
0.0001273216,2.408596e-05,8,1
0.0002247229,8.680524e-05,8,1
0.0003149933,0.0001354248,8,1
0.0003816021,0.000178048,8,1
0.0004323286,0.0002205092,8,1
0.0004764104,0.0002590807,8,1
0.000530054,0.0002901973,8,1
0.0006135177,0.0003156415,8,1
0.0007384702,0.0003414099,8,1
0.0008843291,0.0003767402,8,1
0.0009935612,0.0004206599,8,1
0.00101933,0.0004692795,8,1
0.0009579068,0.0005219508,8,1
0.000829713,0.0005780254,8,1
0.0006678096,0.0006318311,8,1
0.0005096338,0.0006671614,8,1
0.000373823,0.0006639201,8,1
0.0002595669,0.0006172452,8,1
0.0001688103,0.0005389676,8,1
0.0001122495,0.0004537212,8,1
9.296373e-05,0.0003885709,8,1
0.0001044704,0.0003576164,8,1
0.0001464453,0.0003640991,8,1
0.0002278021,0.0003958639,8,1
0.0003482167,0.0004339493,8,1
0.0004880791,0.0004598797,8,1
0.0006060627,0.000460528,8,1
0.0006580857,0.0004326527,8,1
0.0006225934,0.0003830607,8,1
0.0005072028,0.0003221241,8,1
0.0003247172,0.0002600531,8,1
9.053275e-05,0.0002055991,8,1
-0.0001710407,0.0001608691,8,1
-0.0004355313,0.0001244044,8,1
-0.0006890013,9.798775e-05,8,1
-0.0009359888,8.550872e-05,8,1
-0.001193835,7.270556e-05,8,1
-0.001475666,3.429608e-05,8,1
-0.001752312,-4.284701e-05,8,1
-0.001945008,-0.0001481895,8,1
-0.001967697,-0.0002559629,8,1
-0.001773705,-0.0003418575,8,1
-0.001382317,-0.0003958252,8,1
-0.0008651663,-0.0004136524,8,1
-0.0003271096,-0.0003961493,8,1
0.0001253768,-0.0003525538,8,1
0.0004167703,-0.00030831,8,1
0.0005196818,-0.0002958309,8,1
0.0004521006,-0.0003297026,8,1
0.0002830664,-0.0003920977,8,1
9.944634e-05,-0.0004546549,8,1
-2.728874e-05,-0.0004864197,8,1
-4.673658e-05,-0.0004645409,8,1
6.83298e-05,-0.0003804291,8,1
0.0003154794,-0.000238946,8,1
0.0006537099,-5.791909e-05,8,1
0.001011064,0.0001352628,8,1
0.001302782,0.0003086727,8,1
0.001463227,0.0004486972,8,1
0.001467117,0.0005551741,8,1
0.001328065,0.0006285898,8,1
0.001086263,0.0006626236,8,1
0.0007927621,0.0006567892,8,1
0.0005015305,0.0006276174,8,1
0.0002519498,0.0006054144,8,1
6.362991e-05,0.0006131936,8,1
-5.467778e-05,0.0006509548,8,1
-0.0001075111,0.0006929298,8,1
-0.0001175591,0.0007026537,8,1
-0.000122259,0.0006532237,8,1
-0.0001567789,0.00053994,8,1
-0.0002293842,0.0003833848,8,1
-0.0003254889,0.0002148369,8,1
-0.0004238625,6.071273e-05,8,1
-0.0005108916,-5.953974e-05,8,1
-0.000588845,-0.0001339277,8,1
-0.0006646916,-0.0001601823,8,1
-0.0007355141,-0.0001486757,8,1
-0.0007907783,-0.0001216107,8,1
-0.0008311326,-0.0001008664,8,1
-0.0008784557,-0.0001063766,8,1
-0.0009523575,-0.0001485136,8,1
-0.001055755,-0.0002199844,8,1
-0.001163204,-0.0003011791,8,1
-0.001243427,-0.000372974,8,1
-0.00126725,-0.0004214316,8,1
-0.001213445,-0.0004358554,8,1
-0.001087034,-0.000419973,8,1
-0.0009108688,-0.0003906392,8,1
-0.0007116905,-0.0003687603,8,1
-0.0005027883,-0.0003673017,8,1
-0.0002890242,-0.0003875599,8,1
-7.979791e-05,-0.00042759,8,1
9.766362e-05,-0.0004729683,8,1
0.0002021958,-0.000504409,8,1
0.0002115956,-0.0005031124,8,1
0.0001373696,-0.0004595169,8,1
1.257933e-05,-0.0003775118,8,1
-0.0001068628,-0.0002716832,8,1
-0.0001731475,-0.000159372,8,1
-0.0001720131,-5.500191e-05,8,1
-0.0001293899,3.251336e-05,8,1
-8.725291e-05,0.0001072255,8,1
-6.991193e-05,0.0001822617,8,1
-6.407757e-05,0.0002602152,8,1
-4.625038e-05,0.0003261758,8,1
-5.479652e-07,0.0003543751,8,1
7.254349e-05,0.0003287688,8,1
0.000145635,0.0002517878,8,1
0.0001749688,0.0001479039,8,1
0.0001414213,4.191315e-05,8,1
6.379197e-05,-4.868137e-05,8,1
-9.137427e-06,-0.0001161005,8,1
-2.761287e-05,-0.0001609926,8,1
3.834771e-05,-0.0001940539,8,1
0.0001874478,-0.0002277635,8,1
0.0004044533,-0.0002812451,8,1
0.0006789921,-0.0003697327,8,1
0.0009925888,-0.0004835025,8,1
0.001311372,-0.0005825245,8,1
0.001591583,-0.0006191512,8,1
0.001801459,-0.0005698834,8,1
0.00192317,-0.0004483344,8,1
0.001943752,-0.0002916173,8,1
0.001861261,-0.0001404103,8,1
0.001690119,-2.680255e-05,8,1
0.0014642,4.223728e-05,8,1
0.001229529,7.319176e-05,8,1
0.001025974,7.999851e-05,8,1
0.0008684467,7.513654e-05,8,1
0.000740415,6.622294e-05,8,1
0.0006106006,5.066468e-05,8,1
0.000458097,2.554455e-05,8,1
0.0002812837,-5.247859e-06,8,1
9.733949e-05,-3.717473e-05,8,1
-7.850138e-05,-6.553616e-05,8,1
-0.0002431597,-8.82253e-05,8,1
-0.0004005251,-0.0001060525,8,1
-0.0005629146,-0.0001279313,8,1
-0.0007384312,-0.0001605064,8,1
-0.0009277235,-0.0001979435,8,1
-0.001120095,-0.0002335979,8,1
-0.001287995,-0.0002582318,8,1
-0.001401116,-0.0002648765,8,1
-0.001436446,-0.0002496423,8,1
-0.001386044,-0.000213988,8,1
-0.001264495,-0.0001616409,8,1
-0.001100647,-9.827335e-05,8,1
-0.0009282097,-3.069211e-05,8,1
-0.0007745718,3.543054e-05,8,1
-0.0006544815,8.064677e-05,8,1
-0.0005681007,7.254349e-05,8,1
-0.0005082985,-7.192643e-06,8,1
-0.0004779923,-0.0001425172,8,1
-0.0004713477,-0.0002922655,8,1
-0.0004792889,-0.0004087905,8,1
-0.0005045711,-0.0004658375,8,1
-0.0005480045,-0.0004600031,8,1
-0.0005948414,-0.0004003631,8,1
-0.0006238511,-0.0003073376,8,1
-0.0006116962,-0.0001995642,8,1
-0.0005343911,-9.308726e-05,8,1
-0.0003720016,6.582909e-06,8,1
-0.0001165867,0.0001000946,8,1
0.0002143507,0.000187934,8,1
0.0005707325,0.0002769079,8,1
0.0008932427,0.0003684748,8,1
0.001132614,0.0004550177,8,1
0.00125319,0.0005230852,8,1
0.001239577,0.0005629533,8,1
0.001113166,0.0005754323,8,1
0.0009319764,0.0005702463,8,1
0.0007781762,0.0005639257,8,1
0.0007193465,0.000569598,8,1
0.0007796348,0.000591963,8,1
0.0009327867,0.0006219451,8,1
0.001113328,0.00064901,8,1
0.001241846,0.0006707268,8,1
0.00126178,0.0007008709,8,1
0.001155303,0.000750625,8,1
0.0009433209,0.0008112376,8,1
0.000676237,0.0008611537,8,1
0.0004140152,0.0008731466,8,1
0.0002020337,0.0008292268,8,1
5.455425e-05,0.0007417115,8,1
-2.501983e-05,0.0006472273,8,1
-4.074016e-05,0.0005885597,8,1
-7.516774e-06,0.0005986077,8,1
4.126489e-05,0.0006867713,8,1
7.238143e-05,0.0008305234,8,1
6.719535e-05,0.0009752478,8,1
1.64689e-05,0.001063898,8,1
-8.563225e-05,0.001063087,8,1
-0.0002357047,0.0009728169,8,1
-0.0004198109,0.000812372,8,1
-0.0006146134,0.0006088178,8,1
-0.0007815406,0.0003880847,8,1
-0.0008812108,0.0001772377,8,1
-0.0008863969,-3.789272e-06,8,1
-0.0007961266,-0.0001509446,8,1
-0.0006376266,-0.0002671454,8,1
-0.0004625961,-0.0003590364,8,1
-0.0003241924,-0.0004316416,8,1
-0.0002554767,-0.000484475,8,1
-0.0002749245,-0.000516888,8,1
-0.00039777,-0.0005295291,8,1
-0.0006149375,-0.0005275843,8,1
-0.0008836418,-0.0005191569,8,1
-0.001140353,-0.0005128364,8,1
-0.001332401,-0.0005082985,8,1
-0.001435312,-0.0004987367,8,1
-0.001440822,-0.0004775062,8,1
-0.001357521,-0.000444931,8,1
-0.001204693,-0.0004123559,8,1
-0.001009891,-0.0004045768,8,1
-0.000804716,-0.0004382863,8,1
-0.0006181788,-0.0005039228,8,1
-0.0004643789,-0.0005753936,8,1
-0.0003549848,-0.0006233649,8,1
-0.0002814071,-0.0006337371,8,1
-0.0002078295,-0.0006188271,8,1
-9.146661e-05,-0.0006045654,8,1
7.6271e-05,-0.000608617,8,1
0.0002723701,-0.0006253097,8,1
0.0004686312,-0.0006317923,8,1
0.0006478756,-0.0006097514,8,1
0.0007987585,-0.0005504355,8,1
0.0009178767,-0.0004642168,8,1
0.0009998818,-0.000367788,8,1
0.001036347,-0.0002754107,8,1
0.001026461,-0.0001958367,8,1
0.000975734,-0.0001292278,8,1
0.0008904876,-7.072225e-05,8,1
0.0007822278,-1.99958e-05,8,1
0.0006676476,1.257933e-05,8,1
0.0005627912,1.663096e-05,8,1
0.0004791655,-1.156841e-05,8,1
0.000418553,-6.099833e-05,8,1
0.0003859779,-0.0001102662,8,1
0.0003893813,-0.0001489998,8,1
0.0004307079,-0.0001804405,8,1
0.0004974789,-0.0002172293,8,1
0.0005751082,-0.0002533699,8,1
0.0006457687,-0.0002744383,8,1
0.0006798024,-0.0002749245,8,1
0.0006503066,-0.0002622834,8,1
0.0005435055,-0.000248832,8,1
0.000366368,-0.0002365151,8,1
0.0001448246,-0.0002233878,8,1
-8.271508e-05,-0.0002086398,8,1
-0.0002809209,-0.0001935677,8,1
-0.0004267797,-0.000184168,8,1
-0.0005099192,-0.0001870851,8,1
-0.0005387668,-0.000199078,8,1
-0.0005326084,-0.0002029675,8,1
-0.0005099192,-0.0001789819,8,1
-0.0004784786,-0.0001186936,8,1
-0.0004415277,-3.328516e-05,8,1
-0.0004023079,5.212327e-05,8,1
-0.0003637363,0.000118408,8,1
-0.0003339163,0.0001611932,8,1
-0.0003228959,0.0001900409,8,1
-0.0003309991,0.0002153231,8,1
-0.0003438023,0.0002438466,8,1
-0.0003457471,0.000274801,8,1
-0.0003292164,0.0002983005,8,1
-0.0002974516,0.0003059176,8,1
-0.0002574215,0.0002940868,8,1
-0.0002102605,0.0002644289,8,1
-0.0001609926,0.000222616,8,1
-0.0001238797,0.0001772377,8,1
-0.0001177212,0.0001367214,8,1
-0.0001647201,0.0001056048,8,1
-0.0002776796,8.291568e-05,8,1
-0.0004441207,7.140904e-05,8,1
-0.0006314681,7.270556e-05,8,1
-0.0008027712,8.340187e-05,8,1
-0.0009316131,0.0001005808,8,1
-0.001006487,0.0001248906,8,1
-0.001026907,0.0001626518,8,1
-0.001003894,0.0002085163,8,1
-0.0009426335,0.0002571359,8,1
-0.000834536,0.0003065659,8,1
-0.0006706879,0.0003546993,8,1
-0.0004553032,0.0003871123,8,1
-0.0002392702,0.0003731747,8,1
-9.357346e-05,0.0002916559,8,1
-3.782299e-05,0.0001527658,8,1
-1.983374e-05,-1.027188e-05,8,1
3.964424e-05,-0.0001634236,8,1
0.0001945787,-0.0002872415,8,1
0.0004430249,-0.0003818876,8,1
0.0007493285,-0.0004504412,8,1
0.001077673,-0.000492092,8,1
0.001402615,-0.0004976023,8,1
0.001693199,-0.0004617858,8,1
0.001907612,-0.000395339,8,1
0.002008903,-0.0003185201,8,1
0.00198281,-0.0002507768,8,1
0.001845378,-0.0001987538,8,1
0.001646037,-0.0001556445,8,1
0.001456258,-0.0001005423,8,1
0.001348809,-1.707863e-05,8,1
0.001361288,9.442231e-05,8,1
0.001471493,0.0002167816,8,1
0.001609573,0.0003185587,8,1
0.001700005,0.0003649094,8,1
0.001685744,0.0003401134,8,1
0.00153956,0.0002555152,8,1
0.001278797,0.000140773,8,1
0.0009478587,2.959619e-05,8,1
0.0005890459,-5.565017e-05,8,1
0.0002475741,-0.0001062146,8,1
-3.458168e-05,-0.0001177212,8,1
-0.0002295462,-9.146661e-05,8,1
-0.0003378059,-3.668853e-05,8,1
-0.0003801049,3.429608e-05,8,1
-0.0003861013,0.0001093323,8,1
-0.0003820497,0.0001777239,8,1
-0.0003846427,0.0002376881,8,1
-0.0004040906,0.0002900352,8,1
-0.0004439586,0.0003381686,8,1
-0.000509595,0.0003830607,8,1
-0.000603593,0.0004269804,8,1
-0.0007217386,0.0004697657,8,1
-0.0008551183,0.0005131993,8,1
-0.0009833119,0.0005579292,8,1
-0.00107893,0.0006029835,8,1
-0.001122202,0.0006527375,8,1
-0.001107616,0.0007101087,8,1
-0.001050893,0.0007647247,8,1
-0.0009774775,0.0007961654,8,1
-0.0009084377,0.0007987585,8,1
-0.0008463667,0.0007882243,8,1
-0.0007740856,0.0007844968,8,1
-0.0006697156,0.0007968137,8,1
-0.0005313118,0.0008160995,8,1
-0.0003885323,0.0008117238,8,1
-0.0002852967,0.000760349,8,1
-0.0002579077,0.0006524134,8,1
-0.0003274337,0.0004987754,8,1
-0.0004911196,0.0003258516,8,1
-0.0007207661,0.0001649207,8,1
-0.0009750465,4.061663e-05,8,1
-0.001212148,-3.814712e-05,8,1
-0.001394148,-7.55842e-05,8,1
-0.001492845,-8.644259e-05,8,1
-0.001487335,-8.725291e-05,8,1
-0.001374213,-9.081835e-05,8,1
-0.001167256,-0.0001031353,8,1
-0.0008930415,-0.0001225832,8,1
-0.0005922483,-0.0001407345,8,1
-0.000310741,-0.0001527273,8,1
-8.255302e-05,-0.000159534,8,1
7.90261e-05,-0.0001572651,8,1
0.0001884202,-0.0001412206,8,1
0.0002790148,-0.0001151281,8,1
0.0003796573,-8.984595e-05,8,1
0.000500396,-7.914964e-05,8,1
0.000626645,-9.146661e-05,8,1
0.0007255049,-0.0001282554,8,1
0.0007694247,-0.0001807646,8,1
0.0007537043,-0.0002412149,8,1
0.0007008709,-0.0003050687,8,1
0.0006438239,-0.000367788,8,1
0.000611735,-0.0004251591,8,1
0.0006300483,-0.0004773441,8,1
0.0006987641,-0.0005261258,8,1
0.0007893587,-0.0005668041,8,1
0.0008564538,-0.0005932208,8,1
0.000869257,-0.0006068342,8,1
0.0008240407,-0.0006131548,8,1
0.0007451148,-0.0006249856,8,1
0.0006768853,-0.0006552918,8,1
0.0006665131,-0.0007089354,8,1
0.0007245325,-0.0007789475,8,1
0.0008063756,-0.0008466908,8,1
0.0008464058,-0.0008946622,8,1
0.0007963275,-0.0009129756,8,1
0.0006425274,-0.0009027654,8,1
0.0004068843,-0.0008729455,8,1
0.0001316974,-0.0008316188,8,1
-0.000129714,-0.000785106,8,1
-0.0003262992,-0.0007351899,8,1
-0.0004352071,-0.0006770085,8,1
-0.0004760476,-0.0006115342,8,1
-0.0004930644,-0.0005387668,8,1
-0.0005196431,-0.0004606514,8,1
-0.0005658317,-0.0003784843,8,1
-0.0006107238,-0.0002955068,8,1
-0.0006204477,-0.0002201465,8,1
-0.0005700454,-0.0001566169,8,1
-0.0004530343,-0.0001050801,8,1
-0.0002922655,-6.537409e-05,8,1
-0.0001303623,-3.101625e-05,8,1
-1.25408e-05,6.582909e-06,8,1
2.133085e-05,5.1475e-05,8,1
-5.402952e-05,0.000103498,8,1
-0.0002350565,0.0001576278,8,1
-0.0004941989,0.0002047888,8,1
-0.00077522,0.0002448189,8,1
-0.001027394,0.0002889007,8,1
-0.001229489,0.0003512959,8,1
-0.001383451,0.0004396215,8,1
-0.001483607,0.0005571189,8,1
-0.001499814,0.000696009,8,1
-0.001398037,0.0008336026,8,1
-0.001171794,0.0009355418,8,1
-0.0008500942,0.0009739513,8,1
-0.0004854474,0.0009428347,8,1
-0.0001298761,0.0008502954,8,1
0.0001963614,0.0007115673,8,1
0.0004942376,0.0005480433,8,1
0.000770397,0.0003869503,8,1
0.001021112,0.0002576221,8,1
0.001229042,0.000178048,8,1
0.001374091,0.0001500107,8,1
0.001431138,0.0001568175,8,1
0.001381222,0.0001709172,8,1
0.001236822,0.0001701068,8,1
0.001045098,0.0001511452,8,1
0.0008671501,0.0001375317,8,1
0.0007512733,0.0001548727,8,1
0.0007243705,0.0002124059,8,1
0.0007900069,0.0002955454,8,1
0.0009185249,0.0003775505,8,1
0.001060494,0.0004388112,8,1
0.001175075,0.000468145,8,1
0.001241846,0.0004683071,8,1
0.001259025,0.0004530729,8,1
0.001230987,0.0004371906,8,1
0.001154492,0.0004240633,8,1
0.001013009,0.0003955397,8,1
0.0007940586,0.0003360618,8,1
0.000497803,0.0002402811,8,1
0.0001496866,0.0001161391,8,1
-0.0002045882,-1.707863e-05,8,1
-0.0005180225,-0.0001392759,8,1
-0.0007562584,-0.0002350565,8,1
-0.0009050344,-0.0003013411,8,1
-0.0009768293,-0.0003439643,8,1
-0.0009957909,-0.0003732982,8,1
-0.000983474,-0.0003924218,8,1
-0.0009479817,-0.0004037664,8,1
-0.0008990379,-0.0004112214,8,1
-0.0008606284,-0.0004191627,8,1
-0.00085447,-0.0004261314,8,1
-0.0008784557,-0.00042759,8,1
-0.0009257787,-0.0004193247,8,1
-0.001000005,-0.0003992286,8,1
-0.001090923,-0.0003854531,8,1
-0.001171794,-0.0004061974,8,1
-0.001211662,-0.0004762096,8,1
-0.001193997,-0.0005836589,8,1
-0.001123498,-0.0006953219,8,1
-0.001010215,-0.0007771649,8,1
-0.0008656525,-0.000812171,8,1
-0.0007037492,-0.0007977472,8,1
-0.0005429805,-0.0007410243,8,1
-0.0004063595,-0.0006593434,8,1
-0.000310903,-0.0005724764,8,1
-0.0002570974,-0.0004922541,8,1
-0.0002301945,-0.000430021,8,1
-0.0002075054,-0.0003916115,8,1
-0.000166989,-0.0003741085,8,1
-9.584238e-05,-0.0003697327,8,1
-1.358292e-06,-0.000370543,8,1
0.0001078737,-0.0003710293,8,1
0.0002342847,-0.0003698948,8,1
0.0003801436,-0.0003596847,8,1
0.0005334574,-0.0003329439,8,1
0.0006759129,-0.0002802727,8,1
0.0008003792,-0.0001904885,8,1
0.000923711,-6.0188e-05,8,1
0.001070704,0.0001041462,8,1
0.001250921,0.0002864697,8,1
0.001459824,0.0004765725,8,1
0.001678937,0.0006746164,8,1
0.001866771,0.0008917841,8,1
0.0019726,0.001128886,8,1
0.001948614,0.00137636,8,1
0.001772773,0.001604873,8,1
0.001465658,0.001767263,8,1
0.001087559,0.001819448,8,1
0.0007086502,0.001739549,8,1
0.0003576164,0.001548312,8,1
2.846173e-05,0.001295976,8,1
-0.000286107,0.00103424,8,1
-0.0005682627,0.0007913035,8,1
-0.0007815406,0.0005778633,8,1
-0.0009079515,0.0003939191,8,1
-0.0009577056,0.0002384984,8,1
-0.0009675916,0.0001106288,8,1
-0.0009878498,1.306552e-05,8,1
-0.001043276,-5.953974e-05,8,1
-0.001114585,-0.0001136696,8,1
-0.001154777,-0.000156941,8,1
-0.001120743,-0.0001976194,8,1
-0.0009972495,-0.0002368392,8,1
-0.0007990437,-0.000271197,8,1
-0.0005583767,-0.0002906449,8,1
-0.0003097686,-0.0002827037,8,1
-8.141856e-05,-0.0002431597,8,1
9.977047e-05,-0.0001810887,8,1
0.0001966855,-0.0001151281,8,1
0.0001892305,-6.359137e-05,8,1
0.0001150046,-3.668853e-05,8,1
4.45062e-05,-3.036798e-05,8,1
2.603075e-05,-2.955766e-05,8,1
6.298164e-05,-1.983374e-05,8,1
0.0001138702,-2.492749e-06,8,1
0.0001261871,1.419998e-05,8,1
5.61749e-05,1.841368e-05,8,1
-0.000104918,-1.034161e-06,8,1
-0.0003217614,-4.495386e-05,8,1
-0.0005223983,-0.0001054042,8,1
-0.0006316302,-0.0001762268,8,1
-0.0006047274,-0.0002580697,8,1
-0.0004531963,-0.0003489884,8,1
-0.0002329496,-0.000437314,8,1
3.827799e-06,-0.0005016539,8,1
0.0002347709,-0.0005287188,8,1
0.0004600418,-0.0005204534,8,1
0.0006841783,-0.0004878783,8,1
0.0008870842,-0.0004439586,8,1
0.001034888,-0.0003995528,8,1
0.001094366,-0.0003669776,8,1
0.00104607,-0.000353202,8,1
0.0009131767,-0.000355471,8,1
0.0007551629,-0.0003627639,8,1
0.000634262,-0.00036795,8,1
0.000577215,-0.0003666535,8,1
0.0005590637,-0.000360333,8,1
0.0005316747,-0.0003491504,8,1
0.0004639314,-0.0003327818,8,1
0.0003551855,-0.0003134961,8,1
0.0002326641,-0.000290969,8,1
0.0001188942,-0.0002621213,8,1
1.792748e-05,-0.0002227395,8,1
-7.898758e-05,-0.0001723372,8,1
-0.0001720131,-0.0001125351,8,1
-0.0002543422,-5.030202e-05,8,1
-0.0003170615,2.855407e-06,8,1
-0.0003514194,3.883391e-05,8,1
-0.0003512573,6.168512e-05,8,1
-0.0003219235,8.74535e-05,8,1
-0.0002755728,0.0001393144,8,1
-0.000223874,0.0002219677,8,1
-0.0001784957,0.0003250413,8,1
-0.000149486,0.0004323286,8,1
-0.0001332795,0.0005315126,8,1
-0.000117235,0.0006070351,8,1
-9.227693e-05,0.0006355586,8,1
-5.500191e-05,0.0006080075,8,1
-1.682422e-06,0.0005384815,8,1
6.298164e-05,0.0004627969,8,1
0.0001216493,0.0004195254,8,1
0.0001498487,0.0004326527,8,1
0.0001354248,0.0004969927,8,1
8.307774e-05,0.0005739738,8,1
6.90704e-06,0.0006131936,8,1
-6.780507e-05,0.0005825632,8,1
-0.0001146419,0.0004793275,8,1
-0.0001177212,0.0003253654,8,1
-7.266703e-05,0.0001451488,8,1
1.257933e-05,-4.284701e-05,8,1
0.0001141943,-0.0002229016,8,1
0.0002119197,-0.000375405,8,1
0.0002889007,-0.0004875542,8,1
0.0003302274,-0.0005548113,8,1
0.0003218,-0.0005747453,8,1
0.0002621599,-0.0005504355,8,1
0.0001626518,-0.0004950092,8,1
3.348575e-05,-0.0004353692,8,1
-0.0001156143,-0.0003937184,8,1
-0.0002645523,-0.000372974,8,1
-0.0003971218,-0.0003557951,8,1
-0.0005031124,-0.0003191683,8,1
-0.0005834968,-0.0002473734,8,1
-0.0006452437,-0.0001442999,8,1
-0.0006909461,-3.328516e-05,8,1
-0.00072028,5.115087e-05,8,1
-0.0007300039,8.210535e-05,8,1
-0.0007236833,5.763349e-05,8,1
-0.0006985632,1.002961e-07,8,1
-0.0006468644,-6.002594e-05,8,1
-0.0005648594,-9.762509e-05,8,1
-0.0004661616,-0.0001044318,8,1
-0.0003755671,-8.871149e-05,8,1
-0.0003121996,-6.81292e-05,8,1
-0.00027849,-5.921561e-05,8,1
-0.0002570974,-6.002594e-05,8,1
-0.0002254946,-4.706071e-05,8,1
-0.0001754164,-2.492749e-06,8,1
-0.0001149661,7.189524e-05,8,1
-5.338126e-05,0.0001513072,8,1
3.179537e-06,0.0001976579,8,1
4.385793e-05,0.0001863134,8,1
6.800567e-05,0.0001145184,8,1
8.194328e-05,6.90704e-06,8,1
9.020862e-05,-0.000107349,8,1
9.118101e-05,-0.0002013469,8,1
6.492643e-05,-0.0002596904,8,1
-2.275091e-05,-0.0002733039,8,1
-0.0001780095,-0.0002408908,8,1
-0.0003557951,-0.0001728234,8,1
-0.0004799371,-8.871149e-05,8,1
-0.0004865818,-1.578211e-05,8,1
-0.0003656811,2.894792e-05,8,1
-0.0001652063,4.709924e-05,8,1
4.418206e-05,4.953022e-05,8,1
0.0002047888,4.969229e-05,8,1
0.0002872801,5.115087e-05,8,1
0.0002858215,4.596478e-05,8,1
0.0002044647,2.505836e-05,8,1
6.03886e-05,-1.545797e-05,8,1
-0.0001128592,-7.299116e-05,8,1
-0.0002652006,-0.0001386276,8,1
-0.0003488263,-0.0001997262,8,1
-0.0003285682,-0.0002476975,8,1
-0.0001838438,-0.0002767073,8,1
7.935024e-05,-0.0002849726,8,1
0.0004104497,-0.0002694143,8,1
0.0007362012,-0.0002326255,8,1
0.0009906441,-0.0001823853,8,1
0.001126779,-0.0001251762,8,1
0.001112193,-5.808115e-05,8,1
0.000943645,2.01964e-05,8,1
0.0006631098,9.63671e-05,8,1
0.0003469201,0.0001561692,8,1
6.962632e-05,0.0001880961,8,1
-0.0001201522,0.0001889064,8,1
-0.0002084778,0.0001688103,8,1
-0.0002071812,0.0001430419,8,1
-0.0001408965,0.0001266733,8,1
-4.608832e-05,0.000125863,8,1
4.580272e-05,0.0001414213,8,1
0.0001169494,0.0001696206,8,1
0.000163138,0.0002078681,8,1
0.0001657311,0.0002547049,8,1
0.000111115,0.0003075383,8,1
8.689758e-06,0.000354051,8,1
-0.0001104282,0.0003686369,8,1
-0.000216581,0.0003201794,8,1
-0.0002969654,0.0001838824,8,1
-0.0003486642,-2.356124e-05,8,1
-0.0003700569,-0.0002489941,8,1
-0.0003457471,-0.0004316416,8,1
-0.0002545043,-0.0005436288,8,1
-9.162867e-05,-0.0005851175,8,1
0.0001125736,-0.0005708557,8,1
0.0003008936,-0.0005157535,8,1
0.0004245494,-0.0004356933,8,1
0.0004670106,-0.0003444506,8,1
0.0004454559,-0.0002556388,8,1
0.0004026706,-0.0001780095,8,1
0.0003840331,-0.0001156143,8,1
0.000403643,-6.877746e-05,8,1
0.0004464283,-3.895745e-05,8,1
0.0004934272,-2.728874e-05,8,1
0.0005211404,-2.809907e-05,8,1
0.0004948858,-3.26369e-05,8,1
0.0003866261,-2.583016e-05,8,1
0.0002008992,3.989864e-06,8,1
-1.707863e-05,6.622294e-05,8,1
-0.0002102605,0.0001714034,8,1
-0.0003436402,0.0003313618,8,1
-0.0004168937,0.0005504743,8,1
-0.0004408794,0.0008133444,8,1
-0.000417542,0.001085614,8,1
-0.0003421817,0.001335195,8,1
-0.0002159328,0.00154507,8,1
-5.808115e-05,0.001718157,8,1
0.0001033359,0.001862395,8,1
0.0002521119,0.001974869,8,1
0.0003929467,0.002034671,8,1
0.0005292437,0.002002744,8,1
0.0006493342,0.001846999,8,1
0.0007324737,0.001566625,8,1
0.0007571077,0.001204408,8,1
0.0007193465,0.0008413817,8,1
0.0006400964,0.0005577672,8,1
0.0005563086,0.0003913261,8,1
0.0005094717,0.0003248792,8,1
0.0005178991,0.0003067279,8,1
0.0005708945,0.0002798251,8,1
0.0006472273,0.0002033302,8,1
0.0007080019,6.638502e-05,8,1
0.0007099467,-0.0001151281,8,1
0.0006258347,-0.00030831,8,1
0.000450804,-0.0004849611,8,1
0.000200251,-0.0006298475,8,1
-9.114248e-05,-0.0007400519,8,1
-0.0003786463,-0.0008194639,8,1
-0.0006155858,-0.0008735937,8,1
-0.0007705202,-0.000909086,8,1
-0.0008299981,-0.0009333958,8,1
-0.0008017988,-0.0009502506,8,1
-0.0007141214,-0.000958678,8,1
-0.0006024585,-0.0009554367,8,1
-0.0004924161,-0.0009436059,8,1
-0.0003922598,-0.0009316131,8,1
-0.0003021515,-0.0009244822,8,1
-0.0002191741,-0.0009265891,8,1
-0.0001485136,-0.0009330717,8,1
-9.875954e-05,-0.0009380957,8,1
-7.833932e-05,-0.0009387439,8,1
-8.790117e-05,-0.0009316131,8,1
-0.0001253383,-0.0009136238,8,1
-0.0001854645,-0.0008810487,8,1
-0.000271197,-0.0008351842,8,1
-0.0003875599,-0.000780082,8,1
-0.0005280706,-0.0007183352,8,1
-0.0006749016,-0.0006535091,8,1
-0.0008113607,-0.0005920863,8,1
-0.0009249684,-0.0005377944,8,1
-0.001007136,-0.0004839888,8,1
-0.001047166,-0.0004243487,8,1
-0.001036631,-0.0003566054,8,1
-0.000971157,-0.000285945,8,1
-0.0008533355,-0.0002183637,8,1
-0.0006864083,-0.000159534,8,1
-0.0004869059,-0.0001126972,8,1
-0.0002927517,-7.623246e-05,8,1
-0.0001543479,-4.754691e-05,8,1
-9.438378e-05,-2.226472e-05,8,1
-9.535618e-05,1.883015e-06,8,1
-0.0001078352,2.34377e-05,8,1
-7.995997e-05,4.709924e-05,8,1
9.500085e-06,7.740546e-05,8,1
0.0001420695,0.0001153287,8,1
0.0002869559,0.0001582761,8,1
0.0004169324,0.0002054371,8,1
0.0005154681,0.0002517878,8,1
0.0005691118,0.0002916559,8,1
0.0005655463,0.000319207,8,1
0.0004973168,0.0003287688,8,1
0.0003597233,0.0003221241,8,1
0.000170593,0.000304459,8,1
-1.335113e-05,0.0002809595,8,1
-0.0001248521,0.0002589186,8,1
-0.0001259865,0.0002440086,8,1
-1.967167e-05,0.000235095,8,1
0.000153252,0.0002278021,8,1
0.0003397893,0.0002213195,8,1
0.0004960203,0.0002164575,8,1
0.0006016869,0.0002104611,8,1
0.0006572754,0.0001979821,8,1
0.0006767232,0.0001757791,8,1
0.0006686199,0.000148228,8,1
0.0006127074,0.0001211631,8,1
0.000478031,9.831188e-05,8,1
0.0002670219,7.918817e-05,8,1
2.035846e-05,6.233338e-05,8,1
-0.0002102605,4.483033e-05,8,1
-0.0003945287,2.684107e-05,8,1
-0.0005274223,6.582909e-06,8,1
-0.0006069963,-9.785688e-06,8,1
-0.000618503,-1.416145e-05,8,1
-0.000546708,-4.275467e-06,8,1
-0.0003916115,1.160693e-05,8,1
-0.000171851,2.197911e-05,8,1
7.027458e-05,2.068259e-05,8,1
0.0002759355,9.338019e-06,8,1
0.0003927847,-9.299493e-06,8,1
0.000388895,-3.522994e-05,8,1
0.0002725321,-6.650855e-05,8,1
9.280167e-05,-9.713889e-05,8,1
-8.190475e-05,-0.0001211246,8,1
-0.0001959987,-0.0001344139,8,1
-0.0002311669,-0.0001373311,8,1
-0.0001984297,-0.0001319829,8,1
-0.000122259,-0.0001274451,8,1
-3.571614e-05,-0.0001255003,8,1
1.582063e-05,-0.0001250141,8,1
-6.176923e-08,-0.000127121,8,1
-8.093236e-05,-0.0001358725,8,1
-0.0001987538,-0.0001512687,8,1
-0.0003066893,-0.0001676373,8,1
-0.0003543365,-0.0001806025,8,1
-0.0003126857,-0.0001903264,8,1
-0.0001885437,-0.0002006986,8,1
-2.372331e-05,-0.0002159328,8,1
0.0001261871,-0.0002378116,8,1
0.0002192126,-0.000261311,8,1
0.0002462775,-0.0002791382,8,1
0.0002279642,-0.0002814071,8,1
0.0001970097,-0.0002653627,8,1
0.0001678379,-0.0002285739,8,1
0.0001467694,-0.0001716889,8,1
0.0001299146,-9.29252e-05,8,1
0.0001117633,2.035846e-05,8,1
0.0001030118,0.0001840444,8,1
0.0001253768,0.0004104497,8,1
0.0001782101,0.0006922815,8,1
0.0002273159,0.0009961543,8,1
0.0002376881,0.00126729,8,1
0.0002015475,0.001447507,8,1
0.000145635,0.001508282,8,1
0.0001101427,0.001459824,8,1
0.0001195424,0.00133163,8,1
0.0001598967,0.001154006,8,1
0.0002038164,0.000948507,8,1
0.0002344468,0.0007272876,8,1
0.0002470879,0.0004987754,8,1
0.0002496809,0.0002741528,8,1
0.000254867,7.30297e-05,8,1
0.000267184,-8.741498e-05,8,1
0.0002801492,-0.0001974573,8,1
0.0002856594,-0.0002629317,8,1
0.0002710735,-0.0002937241,8,1
0.0002239125,-0.0003016653,8,1
0.0001399627,-0.0002925897,8,1
3.024445e-05,-0.0002700626,8,1
-7.363943e-05,-0.0002431597,8,1
-0.0001378173,-0.0002211189,8,1
-0.0001564548,-0.000201509,8,1
-0.0001546721,-0.0001914609,8,1
-0.000166827,-0.0002118811,8,1
-0.0002096122,-0.0002882139,8,1
-0.0002836761,-0.000424997,8,1
-0.000382698,-0.0005979206,8,1
-0.0004954954,-0.0007583653,8,1
-0.0006031067,-0.0008667869,8,1
-0.000688029,-0.0009063309,8,1
-0.0007415105,-0.0008778074,8,1
-0.0007583653,-0.0007930472,8,1
-0.0007264384,-0.0006690673,8,1
-0.0006316302,-0.0005215878,8,1
-0.0004711856,-0.0003669776,8,1
-0.0002621213,-0.0002225774,8,1
-3.782299e-05,-0.0001036215,8,1
0.0001611932,-1.383732e-05,8,1
0.0003021901,5.163707e-05,8,1
0.0003709058,0.0001041462,8,1
0.0003819262,0.0001566554,8,1
0.0003636129,0.0002195368,8,1
0.0003274723,0.000299435,8,1
0.0002618358,0.0003978086,8,1
0.0001540623,0.0005178991,8,1
7.555301e-06,0.0006580857,8,1
-0.0001525652,0.0008076721,8,1
-0.0002921034,0.0009502898,8,1
-0.0003818876,0.00107508,8,1
-0.0004180282,0.001179612,8,1
-0.0004181903,0.001269559,8,1
-0.0004120317,0.001354481,8,1
-0.000430021,0.001424818,8,1
-0.0004904714,0.001446697,8,1
-0.0005833348,0.001373767,8,1
-0.0006791154,0.001171833,8,1
-0.0007423208,0.000842192,8,1
-0.0007500999,0.0004276287,8,1
-0.0006958081,-4.761664e-06,8,1
-0.0005852795,-0.0003779981,8,1
-0.0004326141,-0.0006361681,8,1
-0.000261149,-0.0007641996,8,1
-8.498399e-05,-0.0007804062,8,1
9.037068e-05,-0.0007240074,8,1
0.0002624841,-0.0006389232,8,1
0.0004287631,-0.0005603215,8,1
0.0005896941,-0.0004985746,8,1
0.0007353909,-0.0004510895,8,1
0.0008530504,-0.0004087905,8,1
0.0009342453,-0.0003634122,8,1
0.0009820546,-0.0003130099,8,1
0.001009444,-0.0002726556,8,1
0.001035536,-0.0002627696,8,1
0.00108059,-0.0002964792,8,1
0.001150116,-0.0003700569,8,1
0.001213646,-0.0004681064,8,1
0.001218346,-0.0005708557,8,1
0.001125645,-0.0006606399,8,1
0.0009447795,-0.0007259523,8,1
0.0007340944,-0.0007616066,8,1
0.0005564707,-0.0007684134,8,1
0.0004461041,-0.0007475069,8,1
0.00040105,-0.0007008321,8,1
0.0004002396,-0.0006415162,8,1
0.0004269804,-0.0005896553,8,1
0.0004765725,-0.0005574043,8,1
0.0005517708,-0.0005397392,8,1
0.0006426895,-0.0005206155,8,1
0.0007245325,-0.000477182,8,1
0.0007718556,-0.0003979321,8,1
0.0007746107,-0.0002904828,8,1
0.0007407391,-0.0001723372,8,1
0.0006755888,-6.456377e-05,8,1
0.0005862907,1.371378e-05,8,1
0.0004884033,4.855783e-05,8,1
0.0003992672,4.483033e-05,8,1
0.0003206656,1.808955e-05,8,1
0.0002378501,-1.448558e-05,8,1
0.0001286181,-3.944364e-05,8,1
-3.296103e-05,-5.257093e-05,8,1
-0.0002499665,-5.240886e-05,8,1
-0.0004964678,-4.090223e-05,8,1
-0.0007332452,-3.020592e-05,8,1
-0.0009322613,-3.782299e-05,8,1
-0.001081523,-7.023606e-05,8,1
-0.001169849,-0.0001075111,8,1
-0.001188,-0.0001128592,8,1
-0.001147808,-5.791909e-05,8,1
-0.0010718,5.860588e-05,8,1
-0.0009740742,0.0002159713,8,1
-0.000864518,0.0003874365,8,1
-0.0007606342,0.0005490156,8,1
-0.0006898117,0.0006796404,8,1
-0.0006729569,0.0007640765,8,1
-0.0007008321,0.0007989206,8,1
-0.0007390795,0.0007890346,8,1
-0.0007562584,0.0007438183,8,1
-0.0007355141,0.0006731578,8,1
-0.0006718224,0.000582077,8,1
-0.0005702075,0.0004791655,8,1
-0.0004517378,0.0003710679,8,1
-0.0003450988,0.0002686426,8,1
-0.0002771934,0.0001783722,8,1
-0.0002559629,9.717743e-05,8,1
-0.0002673075,2.181705e-05,8,1
-0.0002768693,-4.38194e-05,8,1
-0.0002459149,-8.903562e-05,8,1
-0.0001530514,-9.973194e-05,8,1
-7.840905e-06,-7.039812e-05,8,1
0.0001624898,-2.015787e-05,8,1
0.0003371962,2.100672e-05,8,1
0.0005110924,3.170304e-05,8,1
0.0006804507,6.744974e-06,8,1
0.0008383025,-4.219875e-05,8,1
0.0009750858,-0.0001000561,8,1
0.00106487,-0.0001517549,8,1
0.001076053,-0.0001859507,8,1
0.0009906441,-0.0002028055,8,1
0.0008136685,-0.0002167431,8,1
0.0005665187,-0.0002426735,8,1
0.0002803113,-0.0002846485,8,1
-1.237873e-05,-0.0003350507,8,1
-0.0002801106,-0.0003865875,8,1
-0.0005053814,-0.0004298589,8,1
-0.0006800878,-0.0004600031,8,1
-0.0007974231,-0.0004706994,8,1
-0.0008575493,-0.0004546549,8,1
-0.0008635456,-0.0004141386,8,1
-0.0008244879,-0.0003559572,8,1
-0.0007688995,-0.0002890242,8,1
-0.0007277349,-0.0002222533,8,1
-0.000707963,-0.0001629374,8,1
-0.000693053,-0.0001131834,8,1
-0.0006627468,-7.072225e-05,8,1
-0.0006042412,-3.928157e-05,8,1
-0.000514295,-2.210265e-05,8,1
-0.0003933943,-1.480971e-05,8,1
-0.0002605007,-1.464765e-05,8,1
-0.0001640719,-2.404744e-05,8,1
-0.0001483515,-4.641245e-05,8,1
-0.0002259808,-8.806324e-05,8,1
-0.0003635742,-0.0001673132,8,1
-0.0004959816,-0.0002987481,8,1
-0.0005632387,-0.0004676201,8,1
-0.0005446012,-0.0006275786,8,1
-0.0004656754,-0.0007360002,8,1
-0.0003726499,-0.0007684134,8,1
-0.0003078238,-0.0007267626,8,1
-0.0002789762,-0.0006274165,8,1
-0.0002582318,-0.000494523,8,1
-0.0002018331,-0.0003567675,8,1
-7.752899e-05,-0.0002292221,8,1
0.0001107909,-0.0001141558,8,1
0.0003232586,-6.382317e-06,8,1
0.0005088235,9.896015e-05,8,1
0.0006313449,0.0002020337,8,1
0.0006694303,0.000297004,8,1
0.0006174073,0.0003804677,8,1
0.0004764104,0.0004545315,8,1
0.0002754493,0.0005261644,8,1
5.763349e-05,0.0006036317,8,1
-0.0001274451,0.0006990883,8,1
-0.0002332737,0.0008251752,8,1
-0.0002410529,0.0009885372,8,1
-0.0001752544,0.001187392,8,1
-8.141856e-05,0.001409097,8,1
3.503668e-06,0.001628696,8,1
5.471631e-05,0.001822851,8,1
7.20573e-05,0.001979083,8,1
7.967438e-05,0.002099822,8,1
0.0001088461,0.002191875,8,1
0.0001897167,0.002247302,8,1
0.0003371962,0.002236768,8,1
0.000539778,0.002121863,8,1
0.0007490044,0.001871147,8,1
0.0009062079,0.001493534,8,1
0.0009747617,0.001044612,8,1
0.0009548276,0.0006080075,8,1
0.0008728224,0.000259729,8,1
0.0007661834,3.462021e-05,8,1
0.0006700786,-7.574627e-05,8,1
0.0006106006,-0.0001063766,8,1
0.0005939078,-0.0001062146,8,1
0.0006104385,-0.0001126972,8,1
0.0006491721,-0.0001408965,8,1
0.0006998986,-0.000184168,8,1
0.0007590525,-0.0002271153,8,1
0.0008326302,-0.0002606628,8,1
0.0009266282,-0.0002840002,8,1
0.001041371,-0.0002992343,8,1
0.001164378,-0.0003113892,8,1
0.001275717,-0.000330675,8,1
0.001346378,-0.0003698948,8,1
0.001345081,-0.0004311555,8,1
0.001261456,-0.0005131605,8,1
0.001113814,-0.0006053757,8,1
0.0009321384,-0.0007026148,8,1
0.000740577,-0.0007962886,8,1
0.000547395,-0.000879104,8,1
0.0003488649,-0.0009478196,8,1
0.0001326697,-0.001000329,8,1
-0.0001036215,-0.001039224,8,1
-0.0003499608,-0.001065641,8,1
-0.0005891691,-0.001084927,8,1
-0.0007885094,-0.001101295,8,1
-0.0009100584,-0.001119447,8,1
-0.0009406887,-0.001142298,8,1
-0.000911517,-0.001170173,8,1
-0.0008773212,-0.001196752,8,1
-0.0008851003,-0.001212472,8,1
-0.0009418232,-0.001210365,8,1
-0.001024152,-0.001182976,8,1
-0.001096109,-0.001128684,8,1
-0.001126091,-0.001047976,8,1
-0.001098378,-0.0009455507,8,1
-0.001012646,-0.0008251361,8,1
-0.0008943381,-0.0006920806,8,1
-0.0007795958,-0.0005530285,8,1
-0.0006990494,-0.000405063,8,1
-0.0006630709,-0.0002353806,8,1
-0.000658371,-3.150244e-05,8,1
-0.0006603158,0.0001971717,8,1
-0.0006488092,0.0004130428,8,1
-0.0006227166,0.000572029,8,1
-0.000578797,0.0006491721,8,1
-0.0005152673,0.0006494962,8,1
-0.0004684305,0.0005976353,8,1
-0.0005134846,0.0005177371,8,1
-0.000688191,0.0004240633,8,1
-0.0009525195,0.0003271482,8,1
-0.001213607,0.0002354192,8,1
-0.00138653,0.0001598967,8,1
-0.001433043,0.0001106288,8,1
-0.001353145,8.534666e-05,8,1
-0.001161746,7.740546e-05,8,1
-0.0008705144,7.789165e-05,8,1
-0.0005084606,7.999851e-05,8,1
-0.0001219349,8.113296e-05,8,1
0.0002436845,8.275361e-05,8,1
0.0005627912,8.242948e-05,8,1
0.0008355473,8.032264e-05,8,1
0.001072487,7.870197e-05,8,1
0.001270369,8.259155e-05,8,1
0.001413473,9.960841e-05,8,1
0.001487537,0.000133318,8,1
0.001485106,0.0001757791,8,1
0.00140926,0.0002138645,8,1
0.001265669,0.000239957,8,1
0.00106406,0.0002496809,8,1
0.0008177201,0.0002461155,8,1
0.0005475571,0.0002362295,8,1
0.0002872801,0.0002255332,8,1
6.119892e-05,0.0002148369,8,1
-0.0001295519,0.000200413,8,1
-0.0003029619,0.0001832341,8,1
-0.0004791268,0.0001652449,8,1
-0.000680736,0.0001464453,8,1
-0.0009320992,0.0001237561,8,1
-0.001236782,9.377406e-05,8,1
-0.001543734,6.022653e-05,8,1
-0.001753608,3.073064e-05,8,1
-0.001774839,1.290346e-05,8,1
-0.001572905,1.720949e-06,8,1
-0.001187514,-1.448558e-05,8,1
-0.0007063423,-4.495386e-05,8,1
-0.0002287359,-8.806324e-05,8,1
0.0001714034,-0.0001314967,8,1
0.0004611762,-0.000159372,8,1
0.000654034,-0.0001671511,8,1
0.0007879001,-0.0001606685,8,1
0.0009028045,-0.0001475412,8,1
0.001025488,-0.0001349001,8,1
0.001154979,-0.0001290658,8,1
0.001264049,-0.0001327933,8,1
0.001318665,-0.0001430034,8,1
0.001307482,-0.000149486,8,1
0.001245087,-0.0001399241,8,1
0.001169078,-0.0001115627,8,1
0.001116569,-7.18567e-05,8,1
0.001106845,-2.664048e-05,8,1
0.001131479,2.246531e-05,8,1
0.001153682,7.254349e-05,8,1
0.00113861,0.0001156529,8,1
0.001073784,0.0001420695,8,1
0.0009626067,0.000145797,8,1
0.0008201511,0.0001286181,8,1
0.0006875816,9.652917e-05,8,1
0.0006230795,5.682316e-05,8,1
0.0006652166,1.371378e-05,8,1
0.0007994067,-3.393342e-05,8,1
0.0009613102,-8.579432e-05,8,1
0.00107978,-0.0001352242,8,1
0.00111349,-0.0001720131,8,1
0.001057415,-0.000191623,8,1
0.0009308419,-0.0002002124,8,1
0.0007632662,-0.000201509,8,1
0.0005780254,-0.0001984297,8,1
0.000386302,-0.0001865989,8,1
0.0001863134,-0.0001590478,8,1
-2.307504e-05,-0.0001128592,8,1
-0.0002378116,-5.500191e-05,8,1
-0.0004386105,3.665733e-06,8,1
-0.0005956517,5.893001e-05,8,1
-0.000680736,0.0001047945,8,1
-0.0006909461,0.0001367214,8,1
-0.0006536711,0.0001493625,8,1
-0.0006128307,0.0001425557,8,1
-0.0005933828,0.0001250527,8,1
-0.0005980827,0.0001020394,8,1
-0.0006206098,6.638502e-05,8,1
-0.0006551297,-2.654814e-06,8,1
-0.0006927288,-0.0001167488,8,1
-0.0007223868,-0.0002643903,8,1
-0.0007351899,-0.0004154351,8,1
-0.0007285453,-0.0005332566,8,1
-0.0007118525,-0.0005916001,8,1
-0.0007094215,-0.0005833348,8,1
-0.0007458862,-0.0005165638,8,1
-0.0008327533,-0.0004087905,8,1
-0.0009627296,-0.0002801106,8,1
-0.001109075,-0.000147055,8,1
-0.001238565,-2.372331e-05,8,1
-0.001320894,7.351589e-05,8,1
-0.001342125,0.0001368834,8,1
-0.001301446,0.0001728619,8,1
-0.001200966,0.0001913374,8,1
-0.001048462,0.0002038164,8,1
-0.0008624112,0.0002216436,8,1
-0.0006643674,0.0002564877,8,1
-0.0004681064,0.0003153174,8,1
-0.0002788141,0.0003992672,8,1
-0.00010978,0.0005093097,8,1
1.54965e-05,0.0006469032,8,1
8.680524e-05,0.0008144788,8,1
0.000113546,0.001007499,8,1
0.000115977,0.00120765,8,1
0.0001069013,0.001391756,8,1
9.069481e-05,0.001547339,8,1
6.589881e-05,0.001682664,8,1
2.878586e-05,0.001813613,8,1
-2.113026e-05,0.001941159,8,1
-7.736692e-05,0.002029809,8,1
-0.0001368449,0.002016358,8,1
-0.0001998883,0.001838572,8,1
-0.0002639041,0.001480082,8,1
-0.0003185201,0.0009867544,8,1
-0.0003527159,0.0004519385,8,1
-0.000365357,-2.485776e-05,8,1
-0.0003674638,-0.0003775118,8,1
-0.0003715154,-0.0005909518,8,1
-0.0003830221,-0.0006888393,8,1
-0.0004019837,-0.0007125008,8,1
-0.0004303451,-0.0006969426,8,1
-0.0004800992,-0.0006611261,8,1
-0.0005729626,-0.000613803,8,1
-0.0007066664,-0.0005723144,8,1
-0.0008513908,-0.0005601594,8,1
-0.0009615952,-0.0005948414,8,1
-0.001009891,-0.0006789533,8,1
-0.001007136,-0.0007936955,8,1
-0.0009828256,-0.0009051964,8,1
-0.0009628917,-0.0009800706,8,1
-0.0009460369,-0.001002436,8,1
-0.000913948,-0.0009790981,8,1
-0.000851877,-0.0009342061,8,1
-0.0007507482,-0.0008870451,8,1
-0.0006056998,-0.0008385876,8,1
-0.0004031182,-0.0007831613,8,1
-0.000134738,-0.0007248178,8,1
0.0001846927,-0.0006740913,8,1
0.0005263265,-0.0006394094,8,1
0.0008520781,-0.0006157478,8,1
0.001132289,-0.0005928966,8,1
0.001353833,-0.0005671282,8,1
0.001521247,-0.0005439529,8,1
0.001659003,-0.0005298533,8,1
0.001798703,-0.0005232086,8,1
0.001958176,-0.0005113778,8,1
0.002122349,-0.0004804233,8,1
0.002253947,-0.000424997,8,1
0.002318773,-0.0003489884,8,1
0.00231618,-0.0002614731,8,1
0.00227145,-0.0001771992,8,1
0.002202085,-0.0001109144,8,1
0.002120404,-6.667062e-05,8,1
0.002041478,-3.360929e-05,8,1
0.001970493,1.720949e-06,8,1
0.001899995,4.466826e-05,8,1
0.001824634,8.502253e-05,8,1
0.001732743,0.0001033359,8,1
0.001604873,9.847395e-05,8,1
0.00142417,9.426025e-05,8,1
0.00118253,0.0001182459,8,1
0.000893891,0.0001798307,8,1
0.0005819149,0.0002663737,8,1
0.0002691288,0.0003577785,8,1
-2.745081e-05,0.0004337872,8,1
-0.0002956689,0.000487755,8,1
-0.0005227224,0.0005217887,8,1
-0.0007000218,0.0005366987,8,1
-0.0008278913,0.0005245438,8,1
-0.0009155686,0.0004822447,8,1
-0.0009573814,0.000428439,8,1
-0.000943768,0.0003903536,8,1
-0.0008748902,0.0003866261,8,1
-0.0007614446,0.0004115842,8,1
-0.000603755,0.0004444835,8,1
-0.000392746,0.0004689553,8,1
-0.0001305243,0.000480462,8,1
0.0001446626,0.000478031,8,1
0.0003736609,0.0004538833,8,1
0.0005136854,0.0003987811,8,1
0.0005435055,0.0003213138,8,1
0.0004640934,0.0002568118,8,1
0.0003002453,0.0002389846,8,1
9.782569e-05,0.0002660495,8,1
-0.000102325,0.0003141829,8,1
-0.0002758969,0.0003548613,8,1
-0.0004178661,0.0003640991,8,1
-0.0005332566,0.0003339549,8,1
-0.000628551,0.0002691288,8,1
-0.0007034251,0.0001832341,8,1
-0.000757555,8.550872e-05,8,1
-0.0007959644,-1.724069e-05,8,1
-0.0008282154,-0.0001199901,8,1
-0.0008564148,-0.0002149604,8,1
-0.000876835,-0.000285945,8,1
-0.0008808867,-0.0003374817,8,1
-0.0008588458,-0.0004036044,8,1
-0.0008008264,-0.0005262878,8,1
-0.0007120146,-0.0007108802,8,1
-0.000613641,-0.0009186479,8,1
-0.0005339049,-0.00110324,8,1
-0.0004909576,-0.001245372,8,1
-0.0004794509,-0.001347148,8,1
-0.0004841508,-0.001406464,8,1
-0.0004906334,-0.001413109,8,1
-0.0004958195,-0.001360438,8,1
-0.0004976023,-0.001259147,8,1
-0.0004990608,-0.001131602,8,1
-0.0004987367,-0.001003408,8,1
-0.0004919299,-0.0008915829,8,1
-0.0004716718,-0.0007987196,8,1
-0.0004382863,-0.0007142835,8,1
-0.0004023079,-0.0006217443,8,1
-0.0003752429,-0.0005027883,8,1
-0.000367788,-0.0003465574,8,1
-0.0003818876,-0.0001559686,8,1
-0.0004058733,4.320967e-05,8,1
-0.00042759,0.0002242366,8,1
-0.0004379622,0.0003731747,8,1
-0.0004381243,0.0004971547,8,1
-0.0004215936,0.0006112488,8,1
-0.0003776739,0.0007347427,8,1
-0.0002972895,0.0008895152,8,1
-0.0001862748,0.00108837,8,1
-7.882551e-05,0.001316882,8,1
-1.3027e-05,0.001534374,8,1
-9.461558e-06,0.001693037,8,1
-6.099833e-05,0.001756242,8,1
-0.000137169,0.001712646,8,1
-0.000196647,0.001573594,8,1
-0.0002104225,0.001364367,8,1
-0.0001723372,0.001119486,8,1
-9.762509e-05,0.0008757396,8,1
-2.307504e-05,0.000661327,8,1
1.257933e-05,0.0004896998,8,1
-1.545797e-05,0.000361506,8,1
-0.0001052422,0.0002704253,8,1
-0.0002381357,0.000210137,8,1
-0.0003895047,0.000170593,8,1
-0.0005319601,0.0001425557,8,1
-0.0006324406,0.0001187321,8,1
-0.0006582089,9.701536e-05,8,1
-0.0005959758,7.610894e-05,8,1
-0.00046211,6.233338e-05,8,1
-0.0002912931,6.735741e-05,8,1
-0.0001050801,9.490851e-05,8,1
8.405014e-05,0.0001380179,8,1
0.000264753,0.0001777239,8,1
0.0004200116,0.0001937684,8,1
0.0005386435,0.0001773998,8,1
0.0006237278,0.0001331559,8,1
0.0006841783,7.270556e-05,8,1
0.000725667,8.203562e-06,8,1
0.0007421977,-5.629844e-05,8,1
0.0007311772,-0.0001217728,8,1
0.0007029778,-0.0001831956,8,1
0.0006738061,-0.0002300324,8,1
0.0006600305,-0.0002468872,8,1
0.0006575995,-0.0002337599,8,1
0.0006426895,-0.0002049123,8,1
0.000591963,-0.0001804405,8,1
0.0004914824,-0.0001720131,8,1
0.0003472443,-0.0001833576,8,1
0.0001851789,-0.0002029675,8,1
4.061663e-05,-0.0002177155,8,1
-6.035007e-05,-0.000224036,8,1
-0.0001075111,-0.0002266291,8,1
-0.0001045939,-0.0002337599,8,1
-6.310517e-05,-0.0002467252,8,1
6.90704e-06,-0.0002664971,8,1
0.0001005808,-0.0002901587,8,1
0.0002098128,-0.0003152788,8,1
0.0003284447,-0.0003389403,8,1
0.0004558281,-0.0003579019,8,1
0.0005999042,-0.0003731361,8,1
0.0007788245,-0.0003932322,8,1
0.001000854,-0.0004253211,8,1
0.001242332,-0.0004728062,8,1
0.001445886,-0.0005228845,8,1
0.001539884,-0.000559187,8,1
0.001470682,-0.0005655076,8,1
0.001232284,-0.0005352014,8,1
0.0008724983,-0.000464703,8,1
0.0004674968,-0.0003626019,8,1
9.182927e-05,-0.0002379736,8,1
-0.0002068571,-9.227693e-05,8,1
-0.0004165696,7.724339e-05,8,1
-0.0005504355,0.0002666978,8,1
-0.0006228787,0.0004524247,8,1
-0.0006415162,0.0005950422,8,1
-0.0006178547,0.0006587339,8,1
-0.0005716661,0.0006368551,8,1
-0.0005251534,0.0005529052,8,1
-0.0005005194,0.0004397836,8,1
-0.0004988988,0.0003234207,8,1
-0.0005082985,0.0002172679,8,1
-0.0005175362,0.000130887,8,1
-0.0005457356,6.573675e-05,8,1
-0.0006413542,1.22552e-05,8,1
-0.0008162226,-5.840528e-05,8,1
-0.00101848,-0.0001598582,8,1
-0.001162718,-0.000285945,8,1
-0.00119189,-0.0004105732,8,1
-0.001109561,-0.0005018159,8,1
-0.0009568953,-0.0005394151,8,1
-0.0007975851,-0.0005266119,8,1
-0.0006893255,-0.0004794509,8,1
-0.0006522125,-0.0004178661,8,1
-0.0006729569,-0.0003582261,8,1
-0.0007214144,-0.0003024756,8,1
-0.0007729512,-0.0002480217,8,1
-0.0008139537,-0.0001976194,8,1
-0.0008238396,-0.0001541859,8,1
-0.0007690616,-0.0001240417,8,1
-0.0006298475,-0.0001071869,8,1
-0.0004152731,-9.924574e-05,8,1
-0.0001577513,-0.0001005423,8,1
0.0001125736,-0.0001135075,8,1
0.0003751195,-0.000134738,8,1
0.000631669,-0.0001486757,8,1
0.0008747673,-0.0001293899,8,1
0.001077187,-5.127441e-05,8,1
0.001215105,9.231547e-05,8,1
0.0012916,0.0002756114,8,1
0.001342164,0.0004600418,8,1
0.001420118,0.0006188659,8,1
0.001557063,0.000745601,8,1
0.001733391,0.0008470541,8,1
0.001889136,0.0009235489,8,1
0.001962876,0.0009626067,8,1
0.001925439,0.0009444554,8,1
0.001776176,0.0008582365,8,1
0.001542153,0.00071335,8,1
0.001280255,0.0005362125,8,1
0.001054498,0.0003597233,8,1
0.0008961599,0.000210137,8,1
0.0008118858,0.0001002567,8,1
0.0008182063,2.554455e-05,8,1
0.0009391072,-2.501983e-05,8,1
0.001163406,-5.69467e-05,8,1
0.001430166,-6.618442e-05,8,1
0.001650413,-4.868137e-05,8,1
0.001745708,-3.303076e-06,8,1
0.001673913,6.735741e-05,8,1
0.001427411,0.000150659,8,1
0.001036833,0.0002198609,8,1
0.0005477191,0.0002566497,8,1
7.717366e-06,0.0002605393,8,1
-0.0005261258,0.0002490327,8,1
-0.0009923875,0.0002412535,8,1
-0.001333049,0.00024255,8,1
-0.001512131,0.0002410915,8,1
-0.001536603,0.0002149989,8,1
-0.001447629,0.0001492004,8,1
-0.001298853,3.883391e-05,8,1
-0.00114246,-0.0001008664,8,1
-0.001011673,-0.0002483458,8,1
-0.0009123273,-0.0003825359,8,1
-0.0008342119,-0.0004893369,8,1
-0.0007682513,-0.0005656697,8,1
-0.00071558,-0.0006154237,8,1
-0.0006959701,-0.0006473506,8,1
-0.0007368106,-0.0006674466,8,1
-0.0008481495,-0.0006763602,8,1
-0.001010215,-0.0006737672,8,1
-0.001185083,-0.0006601537,8,1
-0.0013371,-0.0006390853,8,1
-0.001456705,-0.0006078067,8,1
-0.001563344,-0.0005595111,8,1
-0.001672738,-0.000492092,8,1
-0.001780997,-0.0004121938,8,1
-0.00186122,-0.0003290543,8,1
-0.001873699,-0.000246401,8,1
-0.001790559,-0.0001626133,8,1
-0.00162428,-8.093236e-05,8,1
-0.001413271,-4.761664e-06,8,1
-0.001201776,6.200925e-05,8,1
-0.001013132,0.0001172735,8,1
-0.0008486357,0.0001594105,8,1
-0.0006891634,0.0001869616,8,1
-0.0005183466,0.0002041406,8,1
-0.0003288923,0.0002140265,8,1
-0.0001250141,0.0002088404,8,1
7.724339e-05,0.0001790204,8,1
0.0002585945,0.0001197045,8,1
0.0003976466,3.786152e-05,8,1
0.0004932652,-4.787104e-05,8,1
0.000567167,-0.0001156143,8,1
0.0006402585,-0.0001541859,8,1
0.0007023296,-0.000166827,8,1
0.0007221015,-0.0001660166,8,1
0.000676237,-0.0001656925,8,1
0.0005678153,-0.0001752544,8,1
0.0004320045,-0.00019924,8,1
0.0003109416,-0.0002399184,8,1
0.0002289366,-0.0002908069,8,1
0.0001924718,-0.0003391024,8,1
0.0002007372,-0.0003694086,8,1
0.0002355812,-0.0003736223,8,1
0.000257298,-0.0003548227,8,1
0.0002269918,-0.0003217614,8,1
0.0001312112,-0.00027849,8,1
-4.923729e-06,-0.0002258187,8,1
-0.0001293899,-0.0001616409,8,1
-0.0001903264,-8.741498e-05,8,1
-0.0001710407,-9.623623e-06,8,1
-0.0001105903,6.184718e-05,8,1
-6.974985e-05,0.0001143563,8,1
-9.422172e-05,0.0001410971,8,1
-0.0001977815,0.0001401247,8,1
-0.0003815635,0.0001219734,8,1
-0.0006384369,0.0001013911,8,1
-0.0009257787,8.891209e-05,8,1
-0.001170659,8.79397e-05,8,1
-0.001301608,0.0001002567,8,1
-0.001276002,0.0001320215,8,1
-0.001096758,0.0001783722,8,1
-0.0008063366,0.000227478,8,1
-0.0004604893,0.0002694529,8,1
-0.0001015147,0.0003017039,8,1
0.0002527602,0.000324231,8,1
0.0005971491,0.0003405996,8,1
0.0009305178,0.000353889,8,1
0.001236011,0.0003662059,8,1
0.001486403,0.0003762539,8,1
0.001655113,0.0003817642,8,1
0.001738091,0.0003871123,8,1
0.00175608,0.0003971604,8,1
0.001737605,0.0004122325,8,1
0.001727232,0.0004318424,8,1
0.001764345,0.0004550177,8,1
0.001857371,0.0004783552,8,1
0.001987348,0.0004942376,8,1
0.002121052,0.0004971547,8,1
0.002239523,0.0004822447,8,1
0.002349566,0.0004485351,8,1
0.002442267,0.0003976466,8,1
0.002482622,0.0003380065,8,1
0.002437405,0.0002730183,8,1
0.00229187,0.0001820997,8,1
0.002040344,3.98063e-05,8,1
0.00169093,-0.0001596961,8,1
0.001266804,-0.0003891806,8,1
0.00080751,-0.0006026206,8,1
0.0003657197,-0.0007593377,8,1
-8.651231e-06,-0.0008434496,8,1
-0.0002875656,-0.0008603043,8,1
-0.00047702,-0.0008261086,8,1
-0.0006050515,-0.0007617687,8,1
-0.0007100698,-0.0006786292,8,1
-0.0008280533,-0.0005830107,8,1
-0.0009768293,-0.0004826922,8,1
-0.001145215,-0.000382698,8,1
-0.001295612,-0.0002867553,8,1
-0.00139042,-0.0002042641,8,1
-0.001419754,-0.0001400862,8,1
-0.001413595,-9.681477e-05,8,1
-0.001415216,-7.380149e-05,8,1
-0.001453139,-7.007399e-05,8,1
-0.001525907,-8.125649e-05,8,1
-0.001609694,-9.276313e-05,8,1
-0.001677438,-7.801519e-05,8,1
-0.001711147,-1.124428e-05,8,1
-0.001705151,0.0001080358,8,1
-0.001654587,0.0002657254,8,1
-0.001551189,0.0004435111,8,1
-0.001387989,0.0006308587,8,1
-0.001168715,0.0008175581,8,1
-0.000916541,0.0009870786,8,1
-0.0006731189,0.001113166,8,1
-0.0004893369,0.001171833,8,1
-0.0003993907,0.00115271,8,1
-0.0003943667,0.001064546,8,1
-0.0004209454,0.0009284109,8,1
-0.0004049009,0.0007712074,8,1
-0.0003019894,0.0006225934,8,1
-0.0001269589,0.0005078511,8,1
7.497447e-05,0.0004394595,8,1
0.0002579462,0.000413529,8,1
0.0003833848,0.000410936,8,1
0.0004240633,0.0004059119,8,1
0.0003730126,0.0003803056,8,1
0.0002480603,0.0003266619,8,1
8.405014e-05,0.0002464396,8,1
-8.790117e-05,0.0001420695,8,1
-0.0002473734,2.149292e-05,8,1
-0.0003771877,-0.0001115627,8,1
-0.0004557894,-0.0002467252,8,1
-0.0004591928,-0.0003741085,8,1
-0.0003752429,-0.0004825302,8,1
-0.0002224154,-0.0005634008,8,1
-5.030202e-05,-0.0006113721,8,1
7.935024e-05,-0.0006280648,8,1
0.000128294,-0.000623527,8,1
9.896015e-05,-0.0006120203,8,1
3.705119e-05,-0.0006022964,8,1
4.962256e-06,-0.0005906277,8,1
5.131294e-05,-0.0005684248,8,1
0.0001900409,-0.0005339049,8,1
0.0004007258,-0.0004912817,8,1
0.0006379896,-0.0004478482,8,1
0.0008413817,-0.0004112214,8,1
0.0009660101,-0.0003848048,8,1
0.0009940475,-0.0003626019,8,1
0.0009352177,-0.0003348887,8,1
0.0008190167,-0.0002899966,8,1
0.0006791542,-0.0002219292,8,1
0.0005357263,-0.0001214487,8,1
0.0003880847,1.808955e-05,8,1
0.0002218057,0.0001911753,8,1
3.445814e-05,0.0003749574,8,1
-0.0001614788,0.0005433434,8,1
-0.0003470436,0.0006802886,8,1
-0.0005099192,0.0007833623,8,1
-0.0006629088,0.0008520781,8,1
-0.0008308084,0.0008908117,8,1
-0.001019777,0.0009058838,8,1
-0.001198859,0.0009037769,8,1
-0.001322191,0.0008744431,8,1
-0.0013512,0.0007853071,8,1
-0.001267899,0.0006123833,8,1
-0.001087358,0.0003640991,8,1
-0.0008439358,7.319176e-05,8,1
-0.0005702075,-0.0002173914,8,1
-0.0003005308,-0.0004635685,8,1
-8.07703e-05,-0.0006389232,8,1
5.714729e-05,-0.0007432932,8,1
0.0001292664,-0.0008000161,8,1
0.000173024,-0.0008418289,8,1
0.0002068957,-0.0008851003,8,1
0.0002232643,-0.0009322613,8,1
0.0002190506,-0.0009778016,8,1
0.0002098128,-0.001011997,8,1
0.0002273159,-0.001035335,8,1
0.0002997591,-0.001064993,8,1
0.0004311941,-0.001120581,8,1
0.0005987698,-0.001204693,8,1
0.0007640765,-0.001300474,8,1
0.0008921082,-0.001384424,8,1
0.000973141,-0.001438715,8,1
0.001013495,-0.001448763,8,1
0.001019005,-0.001396741,8,1
0.0009961543,-0.001265954,8,1
0.0009455899,-0.001050245,8,1
0.0008583986,-0.0007614446,8,1
0.0007229118,-0.0004254832,8,1
0.0005344298,-6.764301e-05,8,1
0.0003226103,0.0002927903,8,1
0.0001292664,0.0006394482,8,1
-1.237873e-05,0.0009538552,8,1
-7.736692e-05,0.00120846,8,1
-5.759496e-05,0.001379439,8,1
5.212327e-05,0.001460634,8,1
0.0002532463,0.001459986,8,1
0.0005209784,0.001389649,8,1
0.0007908173,0.001270531,8,1
0.0009911302,0.001135207,8,1
0.001081563,0.001018033,8,1
0.00106568,0.0009376486,8,1
0.0009711962,0.0008895152,8,1
0.0008358715,0.0008596951,8,1
0.0006966573,0.0008428403,8,1
0.0005793219,0.0008350612,8,1
0.000507527,0.000829551,8,1
0.0004992616,0.0008101031,8,1
0.0005642498,0.0007532181,8,1
0.0006951987,0.0006373413,8,1
0.0008583986,0.0004576108,8,1
0.0009958302,0.0002368777,8,1
0.00106017,1.906194e-05,8,1
0.001034726,-0.0001533756,8,1
0.0009373245,-0.0002593663,8,1
0.0008079963,-0.0002966413,8,1
0.0006789921,-0.0002780038,8,1
0.0005632775,-0.0002261429,8,1
0.0004525868,-0.0001627754,8,1
0.0003276344,-0.0001075111,8,1
0.0001838824,-7.072225e-05,8,1
2.959619e-05,-5.305713e-05,8,1
-0.0001310105,-4.527799e-05,8,1
-0.0002993964,-4.268495e-05,8,1
-0.0004734545,-4.236082e-05,8,1
-0.0006426507,-4.446767e-05,8,1
-0.0007880232,-4.819517e-05,8,1
-0.0008838038,-5.305713e-05,8,1
-0.0009181616,-5.629844e-05,8,1
-0.0009047102,-5.176061e-05,8,1
-0.0008739179,-3.652646e-05,8,1
-0.0008499322,-2.161646e-05,8,1
-0.0008499322,-2.566809e-05,8,1
-0.0008821832,-7.18567e-05,8,1
-0.000943768,-0.0001648822,8,1
-0.001018318,-0.0002840002,8,1
-0.001087196,-0.0003925839,8,1
-0.00114165,-0.0004564377,8,1
-0.001177952,-0.0004617858,8,1
-0.001199507,-0.0004149489,8,1
-0.001212958,-0.0003318095,8,1
-0.001218955,-0.0002321393,8,1
-0.001213607,-0.0001331174,8,1
-0.001193187,-4.38194e-05,8,1
-0.001163529,3.672706e-05,8,1
-0.001130791,0.000108522,8,1
-0.001089465,0.0001692965,8,1
-0.001040521,0.0002171058,8,1
-0.001009729,0.0002571359,8,1
-0.001030149,0.0002986247,8,1
-0.001106319,0.0003389789,8,1
-0.001200155,0.0003535648,8,1
-0.001254933,0.0003057555,8,1
-0.001225113,0.0001777239,8,1
-0.001099837,-1.869928e-05,8,1
-0.0008982276,-0.000241377,8,1
-0.0006476747,-0.0004439586,8,1
-0.0003752429,-0.0005940311,8,1
-0.0001078352,-0.0006823567,8,1
0.0001329939,-0.0007235213,8,1
0.0003333067,-0.0007348658,8,1
0.0004880791,-0.0007257902,8,1
0.0005960147,-0.0007027769,8,1
0.0006660269,-0.0006747396,8,1
0.0007139983,-0.000653185,8,1
0.0007520836,-0.0006478368,8,1
0.0007856312,-0.0006637191,8,1
0.00081221,-0.0007063423,8,1
0.0008105893,-0.000780082,8,1
0.0007540284,-0.000876835,8,1
0.0006326414,-0.0009732639,8,1
0.0004785172,-0.001041007,8,1
0.0003542131,-0.001051217,8,1
0.000316938,-0.000986067,8,1
0.0003926226,-0.0008411807,8,1
0.0005601982,-0.0006209339,8,1
0.0007684522,-0.0003360231,8,1
0.0009609861,1.234753e-06,8,1
0.001092259,0.0003725265,8,1
0.001145903,0.0007522457,8,1
0.001128076,0.001114786,8,1
0.001050122,0.001452045,8,1
0.0009248455,0.001765642,8,1
0.0007673178,0.002044881,8,1
0.0005875872,0.00225346,8,1
0.0003893813,0.002347783,8,1
0.0001767515,0.002303052,8,1
-3.652646e-05,0.00212397,8,1
-0.0002310048,0.001826417,8,1
-0.0003982562,0.00144621,8,1
-0.0005640491,0.00103894,8,1
-0.0007648479,0.0006731578,8,1
-0.0009922255,0.0004005638,8,1
-0.001179573,0.0002422259,8,1
-0.001245858,0.0001809652,8,1
-0.001144405,0.0001772377,8,1
-0.000891745,0.0001957132,8,1
-0.0005510838,0.0002162954,8,1
-0.0001880575,0.000230071,8,1
0.0001539003,0.0002337985,8,1
0.0004525868,0.00022764,8,1
0.000708326,0.0002140265,8,1
0.0009272764,0.000195227,8,1
0.001099876,0.0001743205,8,1
0.001201653,0.0001524417,8,1
0.00121316,0.000128294,8,1
0.001140555,0.0001026876,8,1
0.001017385,7.789165e-05,8,1
0.0008943772,5.439218e-05,8,1
0.0008159374,3.364782e-05,8,1
0.0008088066,1.403791e-05,8,1
0.0008721742,-7.030578e-06,8,1
0.0009784892,-3.328516e-05,8,1
0.00108529,-6.359137e-05,8,1
0.001152223,-9.827335e-05,8,1
0.001138286,-0.000137169,8,1
0.00101155,-0.0001771992,8,1
0.0007608352,-0.0002152845,8,1
0.0004062361,-0.0002558008,8,1
3.017472e-06,-0.0002987481,8,1
-0.0003776739,-0.0003449367,8,1
-0.0006766844,-0.000395339,8,1
-0.0008671111,-0.0004439586,8,1
-0.0009518713,-0.0004835025,8,1
-0.0009466851,-0.0005078124,8,1
-0.0008706765,-0.0005128364,8,1
-0.0007509103,-0.0005003574,8,1
-0.0006100755,-0.0004731304,8,1
-0.0004606514,-0.000437314,8,1
-0.0003073376,-0.0004031182,8,1
-0.0001630995,-0.0003784843,8,1
-4.219875e-05,-0.0003660052,8,1
3.624086e-05,-0.0003663294,8,1
6.006447e-05,-0.0003792946,8,1
2.667901e-05,-0.0004029561,8,1
-5.2733e-05,-0.0004331002,8,1
-0.0001606685,-0.0004650271,8,1
-0.0002788141,-0.0004971161,8,1
-0.0003935563,-0.0005277464,8,1
-0.0004937127,-0.0005525423,8,1
-0.0005690731,-0.0005685869,8,1
-0.000613803,-0.0005676145,8,1
-0.0006337371,-0.0005473563,8,1
-0.0006402197,-0.0005121881,8,1
-0.000643299,-0.0004807475,8,1
-0.0006478368,-0.0004731304,8,1
-0.0006541573,-0.0004997091,8,1
-0.0006515643,-0.0005522182,8,1
-0.0006322784,-0.0006116962,8,1
-0.0006003517,-0.0006585331,8,1
-0.0005791211,-0.0006823567,8,1
-0.0005883588,-0.0006815463,8,1
-0.0006324406,-0.0006635571,8,1
-0.0007099077,-0.0006390853,8,1
-0.0008086055,-0.0006172064,8,1
-0.0009022792,-0.0005993792,8,1
-0.0009572194,-0.0005734488,8,1
-0.0009494403,-0.0005272602,8,1
-0.0008698662,-0.00046211,8,1
-0.0007301659,-0.0003875599,8,1
-0.0005551354,-0.0003146305,8,1
-0.0003763774,-0.0002476975,8,1
-0.0002207947,-0.0001794681,8,1
-0.0001000561,-0.0001008664,8,1
-9.137427e-06,-7.840905e-06,8,1
6.055066e-05,9.053275e-05,8,1
0.0001153287,0.0001770756,8,1
0.0001602208,0.0002337985,8,1
0.0001994406,0.0002537325,8,1
0.0002334744,0.0002444948,8,1
0.0002560015,0.000225209,8,1
0.0002658874,0.0002187264,8,1
0.0002616738,0.0002409294,8,1
0.0002302331,0.0002927903,8,1
0.0001590864,0.0003587509,8,1
5.94162e-05,0.0004219564,8,1
-2.161646e-05,0.0004726828,8,1
-2.258885e-05,0.0005122268,8,1
9.409818e-05,0.0005485295,8,1
0.0003083486,0.0005875872,8,1
0.0005627912,0.0006284277,8,1
0.0008050791,0.0006657028,8,1
0.001013333,0.0006948746,8,1
0.001183664,0.0007052467,8,1
0.00131591,0.0006911471,8,1
0.001402291,0.0006519272,8,1
0.00143519,0.0006008766,8,1
0.001418659,0.0005459364,8,1
0.001359991,0.0004931031,8,1
0.001259835,0.0004488593,8,1
0.001113652,0.0004170944,8,1
0.0009319764,0.0003984569,8,1
0.0007409012,0.0003827366,8,1
0.0005587396,0.0003487029,8,1
0.0003858158,0.0002825802,8,1
0.0001979821,0.0001850168,8,1
-3.231277e-05,6.638502e-05,8,1
-0.0003112272,-6.44017e-05,8,1
-0.0006006758,-0.0001971332,8,1
-0.0008423151,-0.0003128478,8,1
-0.0009993564,-0.0003861013,8,1
-0.001074231,-0.0004008493,8,1
-0.001079255,-0.0003634122,8,1
-0.001022046,-0.0002908069,8,1
-0.0009121653,-0.0001981056,8,1
-0.0007562584,-9.746302e-05,8,1
-0.0005656697,6.90704e-06,8,1
-0.0003638984,0.0001086841,8,1
-0.0001828714,0.0002008992,8,1
-5.22468e-05,0.0002726942,8,1
1.792748e-05,0.0003179104,8,1
2.246531e-05,0.000324231,8,1
-2.113026e-05,0.0002709115,8,1
-6.06742e-05,0.0001453108,8,1
-3.944364e-05,-3.539201e-05,8,1
7.772959e-05,-0.0002276015,8,1
0.0002879283,-0.0003771877,8,1
0.0005542018,-0.000452224,8,1
0.0008326302,-0.0004518998,8,1
0.001096959,-0.0003946908,8,1
0.001337951,-0.0003037722,8,1
0.00154815,-0.0001955125,8,1
0.001714267,-7.428769e-05,8,1
0.001834358,6.314371e-05,8,1
0.001914094,0.000220185,8,1
0.001939539,0.0003897054,8,1
0.001880385,0.0005425331,8,1
0.001712971,0.0006446343,8,1
0.001436162,0.0006856368,8,1
0.001068598,0.0006846645,8,1
0.0006405826,0.000673644,8,1
0.0001827479,0.0006801266,8,1
-0.0002848105,0.0007193465,8,1
-0.0007437794,0.0007913035,8,1
-0.001172118,0.0008794671,8,1
-0.001546489,0.0009525587,8,1
-0.001839827,0.0009744375,8,1
-0.002027661,0.0009274385,8,1
-0.002085519,0.0008279303,8,1
-0.002008051,0.000718212,8,1
-0.001812114,0.0006319932,8,1
-0.001528824,0.000572191,8,1
-0.00120129,0.000512713,8,1
-0.0008760247,0.00041596,8,1
-0.0005933828,0.0002551911,8,1
-0.0003857772,3.024445e-05,8,1
-0.0002752487,-0.0002271153,8,1
-0.0002689281,-0.0004655133,8,1
-0.0003423437,-0.0006332509,8,1
-0.000439907,-0.0006987253,8,1
-0.0005039228,-0.0006637191,8,1
-0.0004998712,-0.0005533527,8,1
-0.0004296969,-0.0003974459,8,1
-0.0003219235,-0.0002219292,8,1
-0.0002113949,-4.495386e-05,8,1
-0.0001235555,0.0001167873,8,1
-6.407757e-05,0.0002430362,8,1
-2.064406e-05,0.0003198552,8,1
2.732727e-05,0.000344165,8,1
0.000103498,0.0003185587,8,1
0.000217754,0.0002480603,8,1
0.0003603715,0.0001427178,8,1
0.0005021787,1.857574e-05,8,1
0.0005982835,-0.0001062146,8,1
0.0006140039,-0.000216581,8,1
0.0005435055,-0.0002971275,8,1
0.0003997535,-0.0003428299,8,1
0.0002070577,-0.0003572537,8,1
-1.010982e-05,-0.0003468815,8,1
-0.0002305186,-0.0003217614,8,1
-0.0004356933,-0.0002987481,8,1
-0.000618503,-0.0002950206,8,1
-0.0007771649,-0.0003136581,8,1
-0.0009136238,-0.0003426678,8,1
-0.001024639,-0.0003685983,8,1
-0.001092544,-0.0003867496,8,1
-0.00109384,-0.0004036044,8,1
-0.001018642,-0.0004245108,8,1
-0.0008859106,-0.0004506033,8,1
-0.0007351899,-0.0004749131,8,1
-0.0006014861,-0.0004867439,8,1
-0.0005113778,-0.0004847991,8,1
-0.000474589,-0.0004765338,8,1
-0.0004710235,-0.0004710235,8,1
-0.0004595169,-0.0004755614,8,1
-0.0004071698,-0.0004901472,8,1
-0.0003044204,-0.0005074882,8,1
-0.0001629374,-0.0005196431,8,1
-7.100305e-07,-0.0005233706,8,1
0.0001657311,-0.0005186707,8,1
0.0003214759,-0.0005082985,8,1
0.0004495075,-0.0004950092,8,1
0.0005334574,-0.0004791268,8,1
0.000572029,-0.0004585445,8,1
0.0005838597,-0.0004337485,8,1
0.0006109247,-0.0004058733,8,1
0.000693578,-0.0003786463,8,1
0.0008331164,-0.0003596847,8,1
0.0009912923,-0.0003515814,8,1
0.00111819,-0.0003486642,8,1
0.001192254,-0.0003402368,8,1
0.001232932,-0.0003177098,8,1
0.001281552,-0.0002822175,8,1
0.001374902,-0.0002394322,8,1
0.001526271,-0.0001977815,8,1
0.001710702,-0.0001600202,8,1
0.001870499,-0.0001269589,8,1
0.00194359,-0.0001031353,8,1
0.001891891,-8.854943e-05,8,1
0.00171216,-7.65566e-05,8,1
0.001434704,-5.305713e-05,8,1
0.001086425,-8.651231e-06,8,1
0.0006798024,4.839576e-05,8,1
0.0002373639,9.280167e-05,8,1
-0.0002032917,0.0001088461,8,1
-0.0006029447,0.0001052807,8,1
-0.0009256167,9.960841e-05,8,1
-0.001137112,8.307774e-05,8,1
-0.001210527,2.278944e-05,8,1
-0.001141326,-9.843541e-05,8,1
-0.0009632158,-0.0002621213,8,1
-0.0007517206,-0.0004254832,8,1
-0.0005875485,-0.0005533527,8,1
-0.0005261258,-0.0006338991,8,1
-0.0005886829,-0.000665826,8,1
-0.0007569068,-0.0006492953,8,1
-0.0009849326,-0.0005907898,8,1
-0.001208745,-0.0005066779,8,1
-0.001372269,-0.0004186764,8,1
-0.001443091,-0.0003428299,8,1
-0.001414243,-0.0002814071,8,1
-0.001304849,-0.000221605,8,1
-0.001150725,-0.0001455964,8,1
-0.000981043,-4.511593e-05,8,1
-0.0008218948,7.789165e-05,8,1
-0.0006979149,0.0002146748,8,1
-0.0006351956,0.0003644232,8,1
-0.0006381128,0.0005294057,8,1
-0.0006770085,0.0007177258,8,1
-0.0006877048,0.0009340832,8,1
-0.000608617,0.001179937,8,1
-0.000400039,0.001445562,8,1
-7.55842e-05,0.001706812,8,1
0.000277232,0.001935325,8,1
0.0005237334,0.002107115,8,1
0.000562143,0.002212458,8,1
0.0004008879,0.002246329,8,1
0.000165569,0.002205975,8,1
3.13789e-05,0.002089126,8,1
0.0001153287,0.001899022,8,1
0.000425846,0.0016415,8,1
0.0008934048,0.001318016,8,1
0.001418983,0.0009394314,8,1
0.001919443,0.0005371849,8,1
0.002332873,0.0001597346,8,1
0.002613409,-0.0001451102,8,1
0.002735769,-0.0003512573,8,1
0.002712756,-0.000459841,8,1
0.002580185,-0.0004919299,8,1
0.002383599,-0.0004752372,8,1
0.002165134,-0.0004353692,8,1
0.001949101,-0.0003904771,8,1
0.001737118,-0.0003470436,8,1
0.00151914,-0.0003055549,8,1
0.001294517,-0.0002645523,8,1
0.001072649,-0.000224036,8,1
0.0008629364,-0.0001940539,8,1
0.0006595443,-0.000189192,8,1
0.0004493454,-0.0002122053,8,1
0.0002308813,-0.000248832,8,1
5.286387e-06,-0.0002778417,8,1
-0.0002379736,-0.0002896725,8,1
-0.000514295,-0.000288538,8,1
-0.0008212466,-0.0002843243,8,1
-0.001132412,-0.0002891863,8,1
-0.001408895,-0.0003074997,8,1
-0.001611315,-0.0003361852,8,1
-0.001721033,-0.0003690845,8,1
-0.001752474,-0.0004024699,8,1
-0.001738374,-0.0004420138,8,1
-0.001716171,-0.0004953333,8,1
-0.001710823,-0.0005616181,8,1
-0.001724923,-0.0006290372,8,1
-0.00173805,-0.0006868945,8,1
-0.001721033,-0.0007246558,8,1
-0.001652804,-0.0007368106,8,1
-0.001529472,-0.0007230351,8,1
-0.001361248,-0.0006868945,8,1
-0.001171632,-0.0006338991,8,1
-0.000986067,-0.0005737729,8,1
-0.0008325911,-0.0005139708,8,1
-0.0007240074,-0.0004588687,8,1
-0.0006492953,-0.0004061974,8,1
-0.000593869,-0.0003572537,8,1
-0.000544115,-0.0003156029,8,1
-0.000487068,-0.0002820554,8,1
-0.0004159214,-0.0002543422,8,1
-0.0003262992,-0.0002287359,8,1
-0.0002191741,-0.0002002124,8,1
-9.762509e-05,-0.0001681235,8,1
3.380988e-05,-0.0001285796,8,1
0.0001786963,-8.206682e-05,8,1
0.0003404375,-2.907146e-05,8,1
0.0005153061,2.424803e-05,8,1
0.0006955228,6.930219e-05,8,1
0.0008579124,0.0001018773,8,1
0.0009726548,0.0001232699,8,1
0.001013171,0.000140773,8,1
0.0009739513,0.0001592484,8,1
0.0008658536,0.0001777239,8,1
0.0007033019,0.0001987924,8,1
0.0004948858,0.0002235884,8,1
0.000252436,0.0002564877,8,1
-7.354709e-06,0.000302028,8,1
-0.0002583939,0.0003579406,8,1
-0.0004753993,0.0004172565,8,1
-0.00064103,0.0004728449,8,1
-0.0007444277,0.0005229231,8,1
-0.0007813785,0.0005655463,8,1
-0.0007518827,0.0005966629,8,1
-0.0006650157,0.0006161107,8,1
-0.0005405495,0.0006261588,8,1
-0.000405225,0.0006324793,8,1
-0.0002874036,0.0006318311,8,1
-0.0002044261,0.0006175694,8,1
-0.0001562927,0.0005896941,8,1
-0.0001311726,0.0005543638,8,1
-0.0001195039,0.0005166026,8,1
-0.0001206384,0.0004687933,8,1
-0.0001355484,0.0003973225,8,1
-0.0001624512,0.0002903593,8,1
-0.0001943781,0.0001466074,8,1
-0.0002287359,-2.761287e-05,8,1
-0.0002674695,-0.0002199844,8,1
-0.0003089583,-0.0004120317,8,1
-0.0003536883,-0.0005817142,8,1
-0.000417542,-0.0007061802,8,1
-0.0005274223,-0.0007735994,8,1
-0.0006927288,-0.0007797579,8,1
-0.0008859106,-0.0007342176,8,1
-0.001047004,-0.0006561021,8,1
-0.001118474,-0.0005729626,8,1
-0.001075689,-0.0005042469,8,1
-0.0009484679,-0.0004536825,8,1
-0.0007932093,-0.0004141386,8,1
-0.0006405439,-0.000375405,8,1
-0.0004794509,-0.0003326198,8,1
-0.0002765452,-0.0002898345,8,1
6.420843e-06,-0.0002548284,8,1
0.0003794953,-0.0002277635,8,1
0.0008084825,-0.0002147983,8,1
0.001231798,-0.0002355427,8,1
0.001586073,-0.0002964792,8,1
0.001821555,-0.0003809152,8,1
0.001917498,-0.0004614617,8,1
0.001900157,-0.0005115399,8,1
0.001835492,-0.0005154294,8,1
0.001786224,-0.0004651892,8,1
0.001772773,-0.0003595226,8,1
0.001770342,-0.0002113949,8,1
0.001732905,-4.884343e-05,8,1
0.001612976,9.442231e-05,8,1
0.001379926,0.0001838824,8,1
0.001041046,0.000210299,8,1
0.0006319932,0.0001973338,8,1
0.0002044647,0.0001803169,8,1
-0.0001835197,0.0001843686,8,1
-0.0004916058,0.0002196988,8,1
-0.0007183352,0.0002811216,8,1
-0.0008910968,0.0003597233,8,1
-0.001035173,0.0004435111,8,1
-0.001157208,0.0005263265,8,1
-0.001244237,0.0006086557,8,1
-0.001277298,0.0006971435,8,1
-0.00126093,0.0007921138,8,1
-0.001206314,0.0008831946,8,1
-0.001111506,0.0009721686,8,1
-0.0009628917,0.001080428,8,1
-0.0007510723,0.00123277,8,1
-0.0004719959,0.001422225,8,1
-0.0001339277,0.0016039,8,1
0.0002393087,0.001719615,8,1
0.000611735,0.001723019,8,1
0.000938459,0.001587856,8,1
0.001172968,0.001322068,8,1
0.001285927,0.0009697376,8,1
0.001277338,0.0006005525,8,1
0.001175237,0.0002816078,8,1
0.001031323,5.747142e-05,8,1
0.0009049114,-5.775702e-05,8,1
0.0008183684,-8.871149e-05,8,1
0.0007470596,-0.0001054042,8,1
0.0006550064,-0.0001762268,8,1
0.0005368608,-0.0003319715,8,1
0.0004294114,-0.0005574043,8,1
0.0004002396,-0.0008094159,8,1
0.0005109303,-0.001042142,8,1
0.0007755831,-0.001225924,8,1
0.001158706,-0.001349741,8,1
0.001584128,-0.001415216,8,1
0.001969359,-0.001424778,8,1
0.00225265,-0.001382803,8,1
0.002393323,-0.001296098,8,1
0.002377279,-0.001184273,8,1
0.002213754,-0.001069044,8,1
0.001927222,-0.0009552746,8,1
0.001543936,-0.0008233535,8,1
0.001089342,-0.0006512401,8,1
0.0005922872,-0.0004410415,8,1
8.972242e-05,-0.0002319772,8,1
-0.0003689224,-7.088431e-05,8,1
-0.0007321107,1.9224e-05,8,1
-0.0009752086,4.207521e-05,8,1
-0.00110243,1.64689e-05,8,1
-0.001150077,-4.38194e-05,8,1
-0.001164501,-0.0001292278,8,1
-0.001182652,-0.0002310048,8,1
-0.001219279,-0.0003399127,8,1
-0.001261416,-0.0004395829,8,1
-0.001281836,-0.0005011677,8,1
-0.001266602,-0.000496954,8,1
-0.001224627,-0.0004190006,8,1
-0.001177142,-0.0002890242,8,1
-0.001139543,-0.0001394379,8,1
-0.00110324,2.855407e-06,8,1
-0.001057376,0.000130887,8,1
-0.001000977,0.0002589186,8,1
-0.0009491161,0.0004193634,8,1
-0.0009309648,0.0006446343,8,1
-0.0009690502,0.0009489932,8,1
-0.00106321,0.001300675,8,1
-0.001195942,0.001624159,8,1
-0.001350552,0.00183533,8,1
-0.001518614,0.001882491,8,1
-0.00168311,0.001757539,8,1
-0.001796232,0.001494992,8,1
-0.0018032,0.001147037,8,1
-0.001676627,0.0007601869,8,1
-0.001425912,0.0003783608,8,1
-0.001100161,3.867184e-05,8,1
-0.0007727891,-0.0002433218,8,1
-0.0005057055,-0.0004719959,8,1
-0.0003391024,-0.000648323,8,1
-0.0002854588,-0.0007692237,8,1
-0.0003206269,-0.0008411807,8,1
-0.0003867496,-0.0008758627,8,1
-0.0004079801,-0.0008752144,8,1
-0.00033813,-0.0008377773,8,1
-0.0001690959,-0.0007841337,8,1
7.870197e-05,-0.0007471828,8,1
0.0003602095,-0.000742969,8,1
0.0006285898,-0.0007603101,8,1
0.0008391128,-0.0007841337,8,1
0.0009559621,-0.0008037436,8,1
0.0009655239,-0.0008139537,8,1
0.0008901635,-0.0008110365,8,1
0.0007943827,-0.0007891576,8,1
0.0007592146,-0.0007479931,8,1
0.0008442989,-0.0006883531,8,1
0.001050932,-0.000616234,8,1
0.001329037,-0.0005405495,8,1
0.001599363,-0.0004719959,8,1
0.001797893,-0.0004104111,8,1
0.001893674,-0.0003494746,8,1
0.001879574,-0.0002830278,8,1
0.00176078,-0.0002010227,8,1
0.00155285,-9.308726e-05,8,1
0.00127831,4.369587e-05,8,1
0.0009629308,0.0001987924,8,1
0.0006324793,0.00035162,8,1
0.0003102934,0.000490348,8,1
1.954813e-05,0.000621783,8,1
-0.0002151224,0.0007574318,8,1
-0.0003758912,0.0009031286,8,1
-0.0004609755,0.001062601,8,1
-0.0004907955,0.00124217,8,1
-0.0004963057,0.0014313,8,1
-0.0005125122,0.00159758,8,1
-0.0005643732,0.001698871,8,1
-0.0006569124,0.00170195,8,1
-0.0007735994,0.001595311,8,1
-0.0008868831,0.001394187,8,1
-0.0009701846,0.001138448,8,1
-0.001011835,0.0008765499,8,1
-0.001023018,0.000646417,8,1
-0.001027232,0.0004644175,8,1
-0.001037442,0.000339303,8,1
-0.001041817,0.000272208,8,1
-0.001016697,0.0002493568,8,1
-0.0009521954,0.000237526,8,1
-0.0008640318,0.0002062474,8,1
-0.000772627,0.0001415833,8,1
-0.0006925668,4.936815e-05,8,1
-0.0006256338,-5.143648e-05,8,1
-0.0005703696,-0.0001436516,8,1
-0.0005207775,-0.0002162569,8,1
-0.0004650271,-0.0002692523,8,1
-0.0003870737,-0.0003113892,8,1
-0.0002734659,-0.0003510952,8,1
-0.0001331174,-0.0003861013,8,1
1.079661e-05,-0.0004089525,8,1
0.0001363972,-0.0004206212,8,1
0.0002380122,-0.0004245108,8,1
0.0003214759,-0.0004311555,8,1
0.0003934329,-0.0004476861,8,1
0.0004511282,-0.0004726442,8,1
0.0004874308,-0.000489499,8,1
0.000490348,-0.0004828543,8,1
0.0004516144,-0.0004527101,8,1
0.000383709,-0.0004138145,8,1
0.0003112658,-0.0003916115,8,1
0.0002521119,-0.0004091146,8,1
0.000210299,-0.000474589,8,1
0.0001798307,-0.0005760419,8,1
0.0001425557,-0.000685436,8,1
6.83298e-05,-0.0007768407,8,1
-6.278104e-05,-0.000834536,8,1
-0.0002340841,-0.0008591699,8,1
-0.0004087905,-0.0008638698,8,1
-0.0005462218,-0.0008688938,8,1
-0.0006254718,-0.0008878555,8,1
-0.0006643674,-0.0009212409,8,1
-0.0007045596,-0.0009627296,8,1
-0.000772627,-0.001000005,8,1
-0.000859494,-0.001018804,8,1
-0.0009256167,-0.001006325,8,1
-0.0009252926,-0.0009518713,8,1
-0.0008484736,-0.0008565768,8,1
-0.0007095836,-0.0007338934,8,1
-0.0005321222,-0.0006045654,8,1
-0.0003408851,-0.0004980884,8,1
-0.0001512687,-0.0004327761,8,1
3.526847e-05,-0.0004055492,8,1
0.0002234263,-0.0003942046,8,1
0.0003981328,-0.0003763774,8,1
0.0005281092,-0.0003423437,8,1
0.0005979594,-0.0002903207,8,1
0.0006279415,-0.0002217671,8,1
0.0006689441,-0.0001387897,8,1
0.0007713694,-5.095028e-05,8,1
0.0009601758,2.311357e-05,8,1
0.001214133,6.849186e-05,8,1
0.001482675,8.777764e-05,8,1
0.00172075,0.000101067,8,1
0.001904857,0.0001289422,8,1
0.002027216,0.0001782101,8,1
