EMG1,EMG2,class,user
4.564065e-05,-0.0002415391,3,1
2.100672e-05,-0.0002454286,3,1
3.494434e-05,-0.0002353806,3,1
9.134307e-05,-0.0002180396,3,1
0.0001692965,-0.0002053985,3,1
0.0002376881,-0.0002021572,3,1
0.0002769079,-0.0002047502,3,1
0.0002889007,-0.0002096122,3,1
0.0002843629,-0.0002147983,3,1
0.0002743149,-0.000221605,3,1
0.0002564877,-0.0002246843,3,1
0.000225047,-0.0002162569,3,1
0.0001880961,-0.0001981056,3,1
0.0001689724,-0.000176713,3,1
0.0001966855,-0.0001574272,3,1
0.0002795009,-0.0001449482,3,1
0.0003950536,-0.0001396,3,1
0.0004943996,-0.0001376552,3,1
0.0005337815,-0.0001365208,3,1
0.0005025029,-0.0001353863,3,1
0.0004235771,-0.0001387897,3,1
0.0003320101,-0.0001517549,3,1
0.0002493568,-0.0001789819,3,1
0.0001856651,-0.0002156086,3,1
0.000143204,-0.0002532078,3,1
0.0001177597,-0.0002802727,3,1
0.0001056048,-0.0002878898,3,1
0.0001002567,-0.0002789762,3,1
9.523264e-05,-0.0002614731,3,1
8.777764e-05,-0.0002426735,3,1
8.291568e-05,-0.000226467,3,1
9.004655e-05,-0.0002130156,3,1
0.0001072255,-0.0002029675,3,1
0.0001253768,-0.0001925954,3,1
0.0001373696,-0.0001775233,3,1
0.0001414213,-0.0001535376,3,1
0.0001360731,-0.0001170729,3,1
0.0001193804,-6.359137e-05,3,1
8.875003e-05,3.827799e-06,3,1
4.304761e-05,8.064677e-05,3,1
-1.010982e-05,0.0001623277,3,1
-6.245691e-05,0.0002440086,3,1
-0.0001055663,0.0003232586,3,1
-0.0001282554,0.0003968363,3,1
-0.0001267968,0.0004527488,3,1
-0.0001054042,0.0004759242,3,1
-7.736692e-05,0.0004593935,3,1
-6.132246e-05,0.0004096394,3,1
-7.088431e-05,0.0003376824,3,1
-0.0001045939,0.0002592428,3,1
-0.0001413827,0.0001880961,3,1
-0.0001661787,0.0001289422,3,1
-0.000176713,7.999851e-05,3,1
-0.0001797922,4.013043e-05,3,1
-0.0001799543,1.031041e-05,3,1
-0.0001773612,-1.092015e-05,3,1
-0.00016942,-2.145439e-05,3,1
-0.0001502963,-2.291298e-05,3,1
-0.0001211246,-2.129233e-05,3,1
-9.470791e-05,-2.664048e-05,3,1
-8.287715e-05,-4.349527e-05,3,1
-9.179074e-05,-7.120844e-05,3,1
-0.0001186936,-0.0001032974,3,1
-0.0001527273,-0.0001313347,3,1
-0.0001823853,-0.000149486,3,1
-0.0002037779,-0.00015451,3,1
-0.0002193361,-0.0001511067,3,1
-0.0002337599,-0.000144462,3,1
-0.0002442942,-0.0001430034,3,1
-0.0002410529,-0.0001454344,3,1
-0.000211557,-0.0001418689,3,1
-0.0001517549,-0.0001279313,3,1
-7.526008e-05,-0.0001060525,3,1
-6.058186e-06,-8.514606e-05,3,1
3.769945e-05,-6.845333e-05,3,1
4.839576e-05,-6.002594e-05,3,1
3.235129e-05,-5.889148e-05,3,1
5.448452e-06,-6.278104e-05,3,1
-1.724069e-05,-6.731888e-05,3,1
-2.826114e-05,-6.893953e-05,3,1
-3.020592e-05,-6.310517e-05,3,1
-2.988179e-05,-4.949169e-05,3,1
-3.68506e-05,-3.26369e-05,3,1
-4.932962e-05,-1.724069e-05,3,1
-6.213279e-05,-5.89612e-06,3,1
-6.974985e-05,2.693341e-06,3,1
-6.81292e-05,1.112074e-05,3,1
-5.22468e-05,2.003433e-05,3,1
-1.886135e-05,2.829966e-05,3,1
2.457216e-05,3.526847e-05,3,1
6.46023e-05,4.385793e-05,3,1
9.231547e-05,5.747142e-05,3,1
0.0001138702,7.562274e-05,3,1
0.0001441764,9.53947e-05,3,1
0.0001908512,0.0001119254,3,1
0.0002478982,0.0001242423,3,1
0.000297004,0.0001318594,3,1
0.000319207,0.0001313732,3,1
0.0003102934,0.0001274836,3,1
0.0002786906,0.0001263492,3,1
0.0002336365,0.000128456,3,1
0.0001885823,0.0001328318,3,1
0.0001521176,0.0001378558,3,1
0.0001286181,0.000143204,3,1
0.0001138702,0.0001500107,3,1
0.0001101427,0.0001574657,3,1
0.0001192183,0.0001610312,3,1
0.000130887,0.0001566554,3,1
0.0001323456,0.000145635,3,1
0.0001206769,0.0001318594,3,1
9.798775e-05,0.0001167873,3,1
6.557468e-05,0.0001030118,3,1
3.218923e-05,9.588091e-05,3,1
1.338965e-05,9.474644e-05,3,1
2.165498e-05,9.53947e-05,3,1
5.439218e-05,9.474644e-05,3,1
9.928428e-05,9.150514e-05,3,1
0.0001433661,8.599492e-05,3,1
0.000170431,8.178122e-05,3,1
0.0001709172,8.307774e-05,3,1
0.0001453108,8.891209e-05,3,1
0.0001020394,9.669123e-05,3,1
5.601284e-05,0.0001043083,3,1
1.630683e-05,0.0001104668,3,1
-1.480971e-05,0.0001151667,3,1
-3.863332e-05,0.0001164632,3,1
-5.581224e-05,0.0001140322,3,1
-6.553616e-05,0.0001077117,3,1
-6.715681e-05,9.63671e-05,3,1
-6.81292e-05,8.064677e-05,3,1
-7.266703e-05,6.184718e-05,3,1
-7.914964e-05,4.239934e-05,3,1
-8.903562e-05,2.635488e-05,3,1
-0.0001067007,1.355172e-05,3,1
-0.000127283,2.207145e-06,3,1
-0.0001477033,-1.173047e-05,3,1
-0.0001708786,-2.971972e-05,3,1
-0.0002039399,-5.338126e-05,3,1
-0.0002499665,-8.547019e-05,3,1
-0.000301017,-0.0001269589,3,1
-0.0003425058,-0.0001720131,3,1
-0.0003609812,-0.0002162569,3,1
-0.0003491504,-0.0002592042,3,1
-0.0003062031,-0.0002987481,3,1
-0.0002404046,-0.0003337542,3,1
-0.0001770371,-0.0003616295,3,1
-0.0001405724,-0.0003779981,3,1
-0.0001379794,-0.0003814014,3,1
-0.0001571031,-0.000375405,3,1
-0.0001833576,-0.0003668155,3,1
-0.0002042641,-0.000362926,3,1
-0.0002109087,-0.0003690845,3,1
-0.0001968091,-0.0003771877,3,1
-0.0001588858,-0.0003723258,3,1
-0.0001070249,-0.0003485022,3,1
-5.64605e-05,-0.0003143064,3,1
-2.210265e-05,-0.0002797865,3,1
-6.058186e-06,-0.000246239,3,1
-2.492749e-06,-0.000209126,3,1
-1.682422e-06,-0.0001605064,3,1
3.179537e-06,-9.973194e-05,3,1
1.355172e-05,-2.388537e-05,3,1
2.635488e-05,7.659513e-05,3,1
4.142696e-05,0.0002114335,3,1
5.974033e-05,0.0003683128,3,1
8.016057e-05,0.0005161164,3,1
0.0001031738,0.000624052,3,1
0.0001331559,0.0006725095,3,1
0.000170593,0.000661165,3,1
0.0002096508,0.0006078454,3,1
0.0002417397,0.0005313505,3,1
0.0002688046,0.00044578,3,1
0.0002910076,0.0003593992,3,1
0.0003028383,0.0002762596,3,1
0.0003000832,0.0002049509,3,1
0.0002842008,0.0001539003,3,1
0.0002590807,0.0001287802,3,1
0.0002307193,0.0001278078,3,1
0.0002073819,0.000138342,3,1
0.0001906891,0.0001462832,3,1
0.0001767515,0.0001449867,3,1
0.0001626518,0.0001320215,3,1
0.0001508211,0.0001101427,3,1
0.0001470936,8.42122e-05,3,1
0.0001634622,5.876794e-05,3,1
0.0002094887,3.543054e-05,3,1
0.0002798251,1.193106e-05,3,1
0.0003506476,-1.383732e-05,3,1
0.0003910019,-4.05781e-05,3,1
0.0003832228,-6.294311e-05,3,1
0.0003363859,-7.542214e-05,3,1
0.0002728562,-7.169464e-05,3,1
0.0002115956,-5.257093e-05,3,1
0.0001561692,-2.339918e-05,3,1
0.0001043083,1.1769e-05,3,1
5.828175e-05,4.466826e-05,3,1
2.538249e-05,7.20573e-05,3,1
1.306552e-05,0.0001012291,3,1
1.355172e-05,0.0001409351,3,1
1.144487e-05,0.0001949028,3,1
-4.113403e-06,0.0002590807,3,1
-3.992984e-05,0.0003218,3,1
-8.838737e-05,0.0003645853,3,1
-0.000134738,0.0003734989,3,1
-0.0001674752,0.000341572,3,1
-0.0001820611,0.0002757735,3,1
-0.0001796301,0.0001937684,3,1
-0.0001684476,0.0001192183,3,1
-0.0001549962,6.962632e-05,3,1
-0.0001439758,4.855783e-05,3,1
-0.0001355484,4.790957e-05,3,1
-0.0001302002,5.439218e-05,3,1
-0.0001263107,5.487838e-05,3,1
-0.0001214487,4.35338e-05,3,1
-0.0001162626,2.116879e-05,3,1
-0.0001110765,-8.651231e-06,3,1
-0.000112211,-4.171256e-05,3,1
-0.0001258245,-7.428769e-05,3,1
-0.0001530514,-0.0001062146,3,1
-0.000189192,-0.0001365208,3,1
-0.0002198223,-0.0001613168,3,1
-0.0002298704,-0.0001760647,3,1
-0.0002122053,-0.0001827094,3,1
-0.0001747682,-0.0001853024,3,1
-0.0001318209,-0.0001878955,3,1
-9.535618e-05,-0.0001940539,3,1
-7.412562e-05,-0.0002050744,3,1
-7.347736e-05,-0.0002206326,3,1
-8.968389e-05,-0.0002407288,3,1
-0.0001144799,-0.0002652006,3,1
-0.0001361966,-0.0002906449,3,1
-0.0001433275,-0.0003102548,3,1
-0.0001293899,-0.0003240303,3,1
-0.0001010285,-0.0003368335,3,1
-7.104638e-05,-0.0003507711,3,1
-5.143648e-05,-0.0003661673,3,1
-4.317115e-05,-0.0003805911,3,1
-4.106429e-05,-0.0003914495,3,1
-3.425755e-05,-0.0003993907,3,1
-2.080613e-05,-0.0004060354,3,1
-6.706447e-06,-0.0004160834,3,1
1.072688e-06,-0.0004284004,3,1
5.124321e-06,-0.0004382863,3,1
4.962256e-06,-0.0004365036,3,1
-3.14101e-06,-0.0004164075,3,1
-2.129233e-05,-0.0003732982,3,1
-3.976777e-05,-0.0003057169,3,1
-4.835724e-05,-0.0002191741,3,1
-3.474375e-05,-0.0001161005,3,1
3.665733e-06,-5.085794e-06,3,1
6.670914e-05,0.0001056048,3,1
0.0001427178,0.0002166196,3,1
0.0002156472,0.0003324963,3,1
0.0002692908,0.0004495075,3,1
0.0002971661,0.0005542018,3,1
0.0002947351,0.0006294001,3,1
0.0002616738,0.0006553305,3,1
0.0002080301,0.0006261588,3,1
0.0001526038,0.0005543638,3,1
0.0001122495,0.0004647417,3,1
9.004655e-05,0.0003769022,3,1
8.405014e-05,0.0003012177,3,1
8.372601e-05,0.0002334744,3,1
7.870197e-05,0.0001671896,3,1
6.946425e-05,0.0001031738,3,1
6.654708e-05,4.369587e-05,3,1
7.432621e-05,-6.544382e-06,3,1
8.696731e-05,-4.05781e-05,3,1
9.863601e-05,-5.2733e-05,3,1
0.0001122495,-4.219875e-05,3,1
0.0001347766,-1.335113e-05,3,1
0.0001668655,2.34377e-05,3,1
0.0001976579,5.779555e-05,3,1
0.0002185644,8.275361e-05,3,1
0.0002278021,9.68533e-05,3,1
0.0002258573,0.0001033359,3,1
0.0002112714,0.0001070634,3,1
0.0001851789,0.0001103047,3,1
0.0001527658,0.000113546,3,1
0.0001193804,0.0001150046,3,1
9.16672e-05,0.0001106288,3,1
7.497447e-05,0.0001002567,3,1
7.108491e-05,8.599492e-05,3,1
7.20573e-05,7.140904e-05,3,1
6.703327e-05,5.925414e-05,3,1
4.645098e-05,5.034055e-05,3,1
6.096713e-06,4.77475e-05,3,1
-4.85193e-05,4.839576e-05,3,1
-9.956988e-05,5.179914e-05,3,1
-0.0001277692,5.390598e-05,3,1
-0.0001245279,5.131294e-05,3,1
-9.681477e-05,4.35338e-05,3,1
-5.905355e-05,3.299956e-05,3,1
-2.42095e-05,2.165498e-05,3,1
-1.358292e-06,1.257933e-05,3,1
5.124321e-06,9.106227e-07,3,1
-6.058186e-06,-1.010982e-05,3,1
-3.036798e-05,-1.221667e-05,3,1
-6.229485e-05,-3.465141e-06,3,1
-0.0001032974,1.517237e-05,3,1
-0.0001528894,3.283749e-05,3,1
-0.0001995642,3.915804e-05,3,1
-0.0002366771,3.235129e-05,3,1
-0.0002734659,1.436204e-05,3,1
-0.0003228959,-1.25408e-05,3,1
-0.0003810773,-4.219875e-05,3,1
-0.0004345588,-7.201877e-05,3,1
-0.0004677822,-9.989401e-05,3,1
-0.0004694029,-0.0001209625,3,1
-0.0004379622,-0.0001311726,3,1
-0.0003823738,-0.0001327933,3,1
-0.0003165753,-0.0001316588,3,1
-0.000251263,-0.0001329553,3,1
-0.0001909747,-0.000134576,3,1
-0.0001396,-0.0001361966,3,1
-9.859748e-05,-0.0001378173,3,1
-7.266703e-05,-0.0001355484,3,1
-6.407757e-05,-0.0001290658,3,1
-7.072225e-05,-0.0001180453,3,1
-8.611845e-05,-0.0001041077,3,1
-0.0001034594,-9.000802e-05,3,1
-0.0001063766,-7.574627e-05,3,1
-7.639453e-05,-6.245691e-05,3,1
-5.57199e-06,-4.965376e-05,3,1
0.0001013911,-3.911951e-05,3,1
0.0002219677,-2.728874e-05,3,1
0.0003198552,-1.562004e-05,3,1
0.0003647473,-4.599598e-06,3,1
0.0003545372,7.23117e-06,3,1
0.0003114278,1.987227e-05,3,1
0.0002590807,3.121684e-05,3,1
0.0002143507,3.883391e-05,3,1
0.0001783722,4.142696e-05,3,1
0.0001488763,3.899597e-05,3,1
0.0001261871,3.154097e-05,3,1
0.0001193804,2.035846e-05,3,1
0.000125863,9.66215e-06,3,1
0.0001344524,4.151929e-06,3,1
0.0001404489,8.041497e-06,3,1
0.0001461212,2.133085e-05,3,1
0.0001610312,4.094075e-05,3,1
0.0001885823,6.03886e-05,3,1
0.0002218057,7.57848e-05,3,1
0.0002470879,8.680524e-05,3,1
0.0002519498,9.733949e-05,3,1
0.0002359054,0.0001154908,3,1
0.0002067336,0.0001436902,3,1
0.0001725378,0.0001770756,3,1
0.0001362352,0.0002081922,3,1
9.928428e-05,0.0002308813,3,1
6.525056e-05,0.0002417397,3,1
4.126489e-05,0.0002409294,3,1
3.283749e-05,0.0002307193,3,1
3.850978e-05,0.0002141886,3,1
5.811968e-05,0.0001961994,3,1
8.712937e-05,0.0001803169,3,1
0.0001150046,0.0001668655,3,1
0.0001231079,0.0001563313,3,1
0.0001052807,0.0001470936,3,1
6.914012e-05,0.0001370455,3,1
3.154097e-05,0.0001190562,3,1
2.693341e-06,9.118101e-05,3,1
-1.788895e-05,5.52025e-05,3,1
-3.134038e-05,1.241726e-05,3,1
-3.101625e-05,-3.701266e-05,3,1
-1.805102e-05,-8.919769e-05,3,1
-3.627206e-06,-0.0001373311,3,1
-7.678839e-06,-0.0001729855,3,1
-4.365734e-05,-0.0001927574,3,1
-0.000107349,-0.0001982676,3,1
-0.0001823853,-0.0001968091,3,1
-0.0002525595,-0.0001969711,3,1
-0.0003015032,-0.0001985918,3,1
-0.0003143064,-0.0001924333,3,1
-0.0002789762,-0.0001671511,3,1
-0.0002034537,-0.0001206384,3,1
-0.0001151281,-5.872941e-05,3,1
-4.252288e-05,1.1769e-05,3,1
-1.520357e-06,8.74535e-05,3,1
9.175954e-06,0.0001642725,3,1
-2.978945e-06,0.0002363916,3,1
-3.198864e-05,0.0002976523,3,1
-6.81292e-05,0.0003428685,3,1
-9.843541e-05,0.0003725265,3,1
-0.0001070249,0.0003918123,3,1
-8.854943e-05,0.0004049396,3,1
-5.32192e-05,0.0004104497,3,1
-1.772689e-05,0.0004028327,3,1
5.934648e-06,0.0003726885,3,1
1.468618e-05,0.0003162898,3,1
9.338019e-06,0.0002373639,3,1
-3.951337e-06,0.0001454729,3,1
-1.902341e-05,5.341979e-05,3,1
-3.085418e-05,-2.761287e-05,3,1
-3.814712e-05,-8.919769e-05,3,1
-4.090223e-05,-0.0001280934,3,1
-3.782299e-05,-0.0001498101,3,1
-3.101625e-05,-0.0001677994,3,1
-2.031993e-05,-0.0001914609,3,1
-8.327101e-06,-0.0002219292,3,1
2.855407e-06,-0.0002540181,3,1
1.193106e-05,-0.0002844864,3,1
2.149292e-05,-0.0003126857,3,1
2.846173e-05,-0.0003366714,3,1
3.299956e-05,-0.0003497987,3,1
3.899597e-05,-0.0003478539,3,1
4.77475e-05,-0.0003335922,3,1
5.828175e-05,-0.0003130099,3,1
7.189524e-05,-0.0002930758,3,1
8.972242e-05,-0.0002780038,3,1
0.000110953,-0.0002668213,3,1
0.0001334801,-0.0002558008,3,1
0.0001511452,-0.0002405667,3,1
0.0001613553,-0.000221443,3,1
0.0001637863,-0.0001963229,3,1
0.0001586002,-0.0001640719,3,1
0.0001420695,-0.0001216107,3,1
0.0001175977,-6.974985e-05,3,1
9.199134e-05,-9.947754e-06,3,1
7.481241e-05,5.649903e-05,3,1
7.935024e-05,0.0001260251,3,1
0.0001114392,0.0001971717,3,1
0.0001639484,0.0002663737,3,1
0.0002190506,0.0003333067,3,1
0.0002639427,0.0003929467,3,1
0.0002963557,0.0004349216,3,1
0.0003185587,0.0004488593,3,1
0.0003261758,0.0004281149,3,1
0.0003067279,0.0003751195,3,1
0.0002569738,0.0003059176,3,1
0.0001861513,0.0002381743,3,1
0.0001086841,0.0001863134,3,1
4.564065e-05,0.000160545,3,1
1.663096e-05,0.0001577899,3,1
2.81376e-05,0.0001623277,3,1
7.20573e-05,0.0001573037,3,1
0.0001305629,0.0001372076,3,1
0.0001871237,0.0001049566,3,1
0.0002234263,7.20573e-05,3,1
0.0002290986,4.677511e-05,3,1
0.0001981441,3.316162e-05,3,1
0.000135749,2.959619e-05,3,1
5.94162e-05,3.251336e-05,3,1
-1.724069e-05,4.158902e-05,3,1
-8.44978e-05,5.504044e-05,3,1
-0.0001374932,6.768154e-05,3,1
-0.0001724993,7.708133e-05,3,1
-0.000189192,8.097089e-05,3,1
-0.0001951884,7.52986e-05,3,1
-0.0001976194,5.811968e-05,3,1
-0.0002023193,3.316162e-05,3,1
-0.0002102605,2.531276e-06,3,1
-0.0002209568,-3.620233e-05,3,1
-0.0002311669,-8.141856e-05,3,1
-0.0002382978,-0.0001276072,3,1
-0.0002423494,-0.0001682856,3,1
-0.0002475355,-0.0002002124,3,1
-0.0002540181,-0.0002237119,3,1
-0.0002619593,-0.0002454286,3,1
-0.0002674695,-0.0002692523,3,1
-0.0002713591,-0.0002914552,3,1
-0.0002804347,-0.0003039342,3,1
-0.0003036101,-0.000303448,3,1
-0.0003387782,-0.0002925897,3,1
-0.0003660052,-0.0002770314,3,1
-0.0003664914,-0.0002617972,3,1
-0.0003334301,-0.000251263,3,1
-0.000276059,-0.0002441321,3,1
-0.0002105846,-0.0002348944,3,1
-0.0001467309,-0.0002188499,3,1
-9.697683e-05,-0.0001878955,3,1
-7.104638e-05,-0.0001421931,3,1
-7.201877e-05,-8.352541e-05,3,1
-9.049421e-05,-1.659243e-05,3,1
-0.0001068628,5.504044e-05,3,1
-0.0001031353,0.0001265113,3,1
-7.153257e-05,0.0001916615,3,1
-1.562004e-05,0.0002391467,3,1
4.807163e-05,0.0002581083,3,1
9.68533e-05,0.0002428742,3,1
0.0001137081,0.0001947408,3,1
0.0001020394,0.0001221355,3,1
7.708133e-05,3.867184e-05,3,1
5.487838e-05,-3.749886e-05,3,1
4.402e-05,-8.952183e-05,3,1
4.758544e-05,-0.0001128592,3,1
6.346784e-05,-0.0001117248,3,1
7.870197e-05,-9.746302e-05,3,1
7.724339e-05,-7.817725e-05,3,1
4.936815e-05,-5.565017e-05,3,1
-6.058186e-06,-3.425755e-05,3,1
-8.044617e-05,-1.25408e-05,3,1
-0.0001548341,8.041497e-06,3,1
-0.0002036158,2.197911e-05,3,1
-0.000201671,2.441009e-05,3,1
-0.0001402483,1.744129e-05,3,1
-3.620233e-05,5.934648e-06,3,1
7.57848e-05,-7.840905e-06,3,1
0.0001689724,-2.388537e-05,3,1
0.0002278021,-3.895745e-05,3,1
0.0002480603,-4.90055e-05,3,1
0.0002329882,-5.208474e-05,3,1
0.0001934442,-4.932962e-05,3,1
0.0001547106,-4.544006e-05,3,1
0.0001488763,-3.911951e-05,3,1
0.0001914995,-2.939559e-05,3,1
0.0002652392,-1.513384e-05,3,1
0.0003279585,2.855407e-06,3,1
0.0003449753,1.954813e-05,3,1
0.0003104554,2.684107e-05,3,1
0.0002521119,2.359977e-05,3,1
0.0002085163,1.452411e-05,3,1
0.0001955511,4.962256e-06,3,1
0.0002086784,-1.682422e-06,3,1
0.0002305572,-2.330684e-06,3,1
0.000239957,6.90704e-06,3,1
0.0002218057,2.505836e-05,3,1
0.0001803169,4.904402e-05,3,1
0.0001304008,7.562274e-05,3,1
8.453633e-05,0.0001017153,3,1
4.547859e-05,0.0001219734,3,1
9.500085e-06,0.0001347766,3,1
-2.09682e-05,0.0001423936,3,1
-3.992984e-05,0.0001517934,3,1
-4.689865e-05,0.0001717275,3,1
-4.236082e-05,0.0002046267,3,1
-2.939559e-05,0.0002444948,3,1
-1.270286e-05,0.0002843629,3,1
-1.196227e-06,0.0003221241,3,1
5.86492e-07,0.000356482,3,1
-1.140634e-05,0.0003879227,3,1
-3.344723e-05,0.0004198496,3,1
-5.532604e-05,0.0004529109,3,1
-6.423963e-05,0.0004801379,3,1
-5.32192e-05,0.0004882411,3,1
-2.712668e-05,0.0004660382,3,1
-3.858999e-07,0.0004127187,3,1
1.322759e-05,0.0003358997,3,1
8.041497e-06,0.0002478982,3,1
-1.432352e-05,0.0001608691,3,1
-5.143648e-05,8.210535e-05,3,1
-9.778715e-05,1.54965e-05,3,1
-0.000142031,-3.279896e-05,3,1
-0.0001708786,-6.261898e-05,3,1
-0.0001762268,-7.914964e-05,3,1
-0.0001583996,-8.935975e-05,3,1
-0.0001255003,-9.956988e-05,3,1
-8.709085e-05,-0.0001083214,3,1
-5.305713e-05,-0.0001151281,3,1
-2.939559e-05,-0.0001227452,3,1
-1.529591e-05,-0.0001342519,3,1
-1.075808e-05,-0.0001472171,3,1
-1.237873e-05,-0.000159534,3,1
-1.691656e-05,-0.0001763888,3,1
-2.339918e-05,-0.0002019951,3,1
-3.296103e-05,-0.0002318152,3,1
-4.268495e-05,-0.0002575835,3,1
-4.981582e-05,-0.0002739521,3,1
-5.32192e-05,-0.0002822175,3,1
-5.257093e-05,-0.0002856209,3,1
-4.641245e-05,-0.0002869174,3,1
-2.988179e-05,-0.0002895104,3,1
-3.627206e-06,-0.0002946965,3,1
2.619281e-05,-0.0003019894,3,1
5.374392e-05,-0.0003084721,3,1
8.04847e-05,-0.0003121996,3,1
0.0001070634,-0.0003104168,3,1
0.0001323456,-0.0003002067,3,1
0.0001539003,-0.0002815692,3,1
0.0001692965,-0.0002528836,3,1
0.0001819376,-0.0002144742,3,1
0.0001924718,-0.0001689338,3,1
0.0001991165,-0.0001201522,3,1
0.0001986303,-7.428769e-05,3,1
0.0001880961,-3.441962e-05,3,1
0.0001647587,4.151929e-06,3,1
0.0001273216,4.742337e-05,3,1
7.918817e-05,0.0001025256,3,1
2.878586e-05,0.0001725378,3,1
-6.058186e-06,0.0002538946,3,1
-5.247859e-06,0.0003300653,3,1
3.948217e-05,0.000378685,3,1
0.0001088461,0.0003872744,3,1
0.0001764274,0.000359075,3,1
0.0002218057,0.0003106175,3,1
0.0002373639,0.0002613496,3,1
0.0002284504,0.0002266676,3,1
0.0002060853,0.000210137,3,1
0.000185341,0.0002081922,3,1
0.000180479,0.0002114335,3,1
0.0001911753,0.0002124059,3,1
0.0002036544,0.0002112714,3,1
0.0002012234,0.0002073819,3,1
0.0001765894,0.0001999268,3,1
0.0001355869,0.0001880961,3,1
8.988449e-05,0.0001746447,3,1
5.050261e-05,0.0001628139,3,1
2.327564e-05,0.0001503349,3,1
7.23117e-06,0.0001375317,3,1
-6.382317e-06,0.0001266733,3,1
-2.0482e-05,0.0001201907,3,1
-3.328516e-05,0.0001197045,3,1
-4.641245e-05,0.0001218114,3,1
-6.261898e-05,0.0001221355,3,1
-8.174268e-05,0.0001197045,3,1
-0.0001005423,0.0001153287,3,1
-0.000117235,0.0001083599,3,1
-0.0001336036,9.993253e-05,3,1
-0.0001515928,9.004655e-05,3,1
-0.0001702304,7.870197e-05,3,1
-0.0001878955,6.476436e-05,3,1
-0.000208964,5.001642e-05,3,1
-0.0002348944,3.705119e-05,3,1
-0.0002575835,2.441009e-05,3,1
-0.0002676316,9.66215e-06,3,1
-0.0002664971,-8.975362e-06,3,1
-0.0002598524,-2.971972e-05,3,1
-0.0002525595,-5.030202e-05,3,1
-0.0002459149,-6.829127e-05,3,1
-0.0002301945,-8.773911e-05,3,1
-0.0002005366,-0.0001112386,3,1
-0.000164396,-0.0001339277,3,1
-0.0001425172,-0.0001489998,3,1
-0.0001554824,-0.0001559686,3,1
-0.0002032917,-0.0001579134,3,1
-0.0002703867,-0.0001592099,3,1
-0.0003288923,-0.0001682856,3,1
-0.0003520676,-0.0001828714,3,1
-0.0003240303,-0.0002006986,3,1
-0.0002478596,-0.0002162569,3,1
-0.0001421931,-0.0002267911,3,1
-4.106429e-05,-0.0002326255,3,1
2.570662e-05,-0.0002358668,3,1
5.082674e-05,-0.0002408908,3,1
4.82337e-05,-0.0002483458,3,1
3.899597e-05,-0.0002522354,3,1
4.142696e-05,-0.0002525595,3,1
6.200925e-05,-0.000248832,3,1
9.020862e-05,-0.0002392702,3,1
0.0001128978,-0.0002206326,3,1
0.0001214872,-0.0001901644,3,1
0.0001122495,-0.0001480274,3,1
9.020862e-05,-9.389759e-05,3,1
6.395404e-05,-3.004385e-05,3,1
4.45062e-05,3.640293e-05,3,1
3.850978e-05,9.63671e-05,3,1
4.677511e-05,0.0001414213,3,1
6.816773e-05,0.0001597346,3,1
9.701536e-05,0.0001399627,3,1
0.0001229458,8.178122e-05,3,1
0.000145797,4.151929e-06,3,1
0.0001701068,-6.39155e-05,3,1
0.0001994406,-9.649064e-05,3,1
0.0002308813,-8.82253e-05,3,1
0.0002569738,-5.257093e-05,3,1
0.0002683184,-2.168618e-06,3,1
0.0002542187,5.066468e-05,3,1
0.0002088404,9.879808e-05,3,1
0.0001370455,0.0001373696,3,1
5.406805e-05,0.000165569,3,1
-1.610624e-05,0.0001867996,3,1
-4.916756e-05,0.0002025199,3,1
-3.344723e-05,0.0002154851,3,1
2.116879e-05,0.0002287745,3,1
8.923623e-05,0.0002490327,3,1
0.0001427178,0.0002866318,3,1
0.0001702689,0.0003397893,3,1
0.0001772377,0.0003944053,3,1
0.0001752929,0.0004318424,3,1
0.0001725378,0.0004354078,3,1
0.0001762653,0.0003982949,3,1
0.0001893926,0.0003305515,3,1
0.000207706,0.0002525981,3,1
0.0002245608,0.0001840444,3,1
0.0002321778,0.0001344524,3,1
0.0002222919,0.0001031738,3,1
0.0001924718,8.79397e-05,3,1
0.0001487142,8.680524e-05,3,1
0.0001031738,9.733949e-05,3,1
6.330578e-05,0.0001175977,3,1
2.992031e-05,0.0001415833,3,1
-8.720959e-07,0.0001616794,3,1
-3.620233e-05,0.0001736723,3,1
-8.060823e-05,0.0001728619,3,1
-0.0001326312,0.0001579519,3,1
-0.0001883817,0.0001266733,3,1
-0.0002332737,8.923623e-05,3,1
-0.0002486699,5.649903e-05,3,1
-0.0002298704,3.413401e-05,3,1
-0.0001806025,2.359977e-05,3,1
-0.0001099421,2.165498e-05,3,1
-3.020592e-05,2.165498e-05,3,1
4.223728e-05,1.54965e-05,3,1
9.118101e-05,-3.303076e-06,3,1
0.0001052807,-3.506788e-05,3,1
8.810177e-05,-7.444975e-05,3,1
5.423012e-05,-0.0001199901,3,1
1.306552e-05,-0.0001705545,3,1
-3.360929e-05,-0.000223874,3,1
-8.692878e-05,-0.0002702246,3,1
-0.0001454344,-0.0003024756,3,1
-0.0002052365,-0.0003173856,3,1
-0.0002595283,-0.0003151167,3,1
-0.000300855,-0.0002977757,3,1
-0.0003238683,-0.0002733039,3,1
-0.0003292164,-0.0002501286,3,1
-0.0003204649,-0.0002319772,3,1
-0.0003019894,-0.0002212809,3,1
-0.0002780038,-0.0002170672,3,1
-0.0002515871,-0.000216581,3,1
-0.0002196603,-0.0002186879,3,1
-0.000179306,-0.0002204706,3,1
-0.0001292278,-0.0002207947,3,1
-7.931171e-05,-0.0002172293,3,1
-4.074016e-05,-0.0002084778,3,1
-1.67545e-05,-0.0001963229,3,1
-9.785688e-06,-0.0001870851,3,1
-1.99958e-05,-0.0001840059,3,1
-3.928157e-05,-0.0001883817,3,1
-5.59743e-05,-0.0001959987,3,1
-5.678463e-05,-0.0002013469,3,1
-3.441962e-05,-0.0002005366,3,1
3.827799e-06,-0.0001908126,3,1
4.337174e-05,-0.0001715269,3,1
6.897806e-05,-0.0001473791,3,1
7.870197e-05,-0.0001280934,3,1
8.372601e-05,-0.0001214487,3,1
9.004655e-05,-0.0001302002,3,1
0.000103498,-0.0001493239,3,1
0.0001222976,-0.0001687718,3,1
0.0001409351,-0.000184168,3,1
0.0001542244,-0.0001914609,3,1
0.0001594105,-0.0001877334,3,1
0.0001537382,-0.000174282,3,1
0.0001365593,-0.0001575893,3,1
0.0001151667,-0.0001413827,3,1
9.814982e-05,-0.0001263107,3,1
8.79397e-05,-0.0001067007,3,1
8.42122e-05,-7.639453e-05,3,1
9.069481e-05,-3.166451e-05,3,1
0.0001062531,2.473423e-05,3,1
0.0001247285,8.194328e-05,3,1
0.0001420695,0.000130725,3,1
0.0001624898,0.0001709172,3,1
0.0001864754,0.0002094887,3,1
0.000207706,0.0002566497,3,1
0.0002211574,0.000319207,3,1
0.0002286124,0.0003906778,3,1
0.0002355812,0.0004569625,3,1
0.0002401191,0.0004982892,3,1
0.000232502,0.0005018546,3,1
0.0002059233,0.000470576,3,1
0.0001637863,0.0004175806,3,1
0.0001138702,0.0003619922,3,1
6.638502e-05,0.0003198552,3,1
2.862379e-05,0.0002978143,3,1
4.313994e-06,0.0002931144,3,1
-2.654814e-06,0.0002966799,3,1
9.986281e-06,0.0002986247,3,1
4.320967e-05,0.0002937627,3,1
9.085688e-05,0.0002819319,3,1
0.0001404489,0.0002649151,3,1
0.0001735102,0.0002433604,3,1
0.0001765894,0.0002172679,3,1
0.0001514693,0.000185341,3,1
0.0001137081,0.0001521176,3,1
8.226741e-05,0.0001245665,3,1
6.233338e-05,0.0001046324,3,1
4.742337e-05,9.069481e-05,3,1
2.846173e-05,7.935024e-05,3,1
7.069105e-06,6.914012e-05,3,1
-6.220252e-06,5.795762e-05,3,1
-8.002969e-06,4.45062e-05,3,1
-4.599598e-06,3.18651e-05,3,1
-6.544382e-06,2.554455e-05,3,1
-2.064406e-05,2.797553e-05,3,1
-4.544006e-05,3.98063e-05,3,1
-7.056019e-05,6.055066e-05,3,1
-8.790117e-05,8.631905e-05,3,1
-9.924574e-05,0.0001088461,3,1
-0.0001118868,0.0001192183,3,1
-0.0001329553,0.0001166253,3,1
-0.0001650443,0.0001022015,3,1
-0.0002024813,7.789165e-05,3,1
-0.0002342462,4.661304e-05,3,1
-0.0002506147,1.1769e-05,3,1
-0.0002519113,-1.967167e-05,3,1
-0.0002457528,-4.592625e-05,3,1
-0.0002418632,-6.699475e-05,3,1
-0.0002468872,-8.44978e-05,3,1
-0.0002626076,-9.794922e-05,3,1
-0.0002856209,-0.0001068628,3,1
-0.0003031239,-0.0001136696,3,1
-0.0002985861,-0.0001229073,3,1
-0.0002630937,-0.0001334415,3,1
-0.0002070192,-0.0001439758,3,1
-0.0001486757,-0.0001486757,3,1
-0.0001000561,-0.0001472171,3,1
-6.002594e-05,-0.0001462447,3,1
-2.356124e-05,-0.0001551583,3,1
1.063454e-05,-0.0001759026,3,1
3.899597e-05,-0.0002032917,3,1
5.601284e-05,-0.0002290601,3,1
5.974033e-05,-0.000246401,3,1
5.19612e-05,-0.0002551526,3,1
3.60788e-05,-0.0002553146,3,1
1.808955e-05,-0.0002507768,3,1
8.851824e-06,-0.0002441321,3,1
2.635488e-05,-0.0002376495,3,1
7.999851e-05,-0.0002323013,3,1
0.0001611932,-0.0002298704,3,1
0.0002440086,-0.0002271153,3,1
0.0003028383,-0.000221605,3,1
0.0003237448,-0.0002144742,3,1
0.0003088348,-0.0002037779,3,1
0.0002757735,-0.0001848162,3,1
0.0002404432,-0.0001511067,3,1
0.0002080301,-0.0001037836,3,1
0.0001777239,-4.997789e-05,3,1
0.000150659,1.072688e-06,3,1
0.0001289422,4.628891e-05,3,1
0.0001177597,8.696731e-05,3,1
0.0001240803,0.0001315353,3,1
0.0001448246,0.0001885823,3,1
0.000168,0.0002615117,3,1
0.0001806411,0.0003414099,3,1
0.0001765894,0.0004122325,3,1
0.0001566554,0.0004566384,3,1
0.0001229458,0.0004642555,3,1
7.853991e-05,0.000435732,3,1
2.700314e-05,0.0003853296,3,1
-2.809907e-05,0.0003297412,3,1
-7.218083e-05,0.0002850112,3,1
-8.790117e-05,0.0002555152,3,1
-6.342931e-05,0.0002441707,3,1
-4.113403e-06,0.000247412,3,1
6.735741e-05,0.000252436,3,1
0.000135749,0.0002490327,3,1
0.0001893926,0.000232502,3,1
0.0002180782,0.0002047888,3,1
0.0002148369,0.0001739964,3,1
0.0001723757,0.00015309,3,1
9.652917e-05,0.0001467694,3,1
6.582909e-06,0.0001496866,3,1
-7.412562e-05,0.000155683,3,1
-0.0001250141,0.0001587623,3,1
-0.0001353863,0.0001526038,3,1
-0.0001096179,0.0001323456,3,1
-6.423963e-05,9.717743e-05,3,1
-2.339918e-05,5.487838e-05,3,1
-4.923729e-06,1.419998e-05,3,1
-1.529591e-05,-1.545797e-05,3,1
-4.527799e-05,-3.555408e-05,3,1
-8.303922e-05,-5.192267e-05,3,1
-0.0001135075,-7.072225e-05,3,1
-0.0001287416,-8.82253e-05,3,1
-0.0001300382,-9.762509e-05,3,1
-0.0001240417,-9.859748e-05,3,1
-0.0001159385,-9.762509e-05,3,1
-0.0001088076,-9.859748e-05,3,1
-0.0001070249,-0.0001018388,3,1
-0.0001178833,-0.0001054042,3,1
-0.0001475412,-0.0001092938,3,1
-0.0001887058,-0.0001149661,3,1
-0.0002263049,-0.0001225832,3,1
-0.0002467252,-0.0001352242,3,1
-0.0002459149,-0.0001504584,3,1
-0.0002254946,-0.0001637477,3,1
-0.0001904885,-0.0001702304,3,1
-0.0001485136,-0.0001697442,3,1
-0.0001058904,-0.0001671511,3,1
-7.201877e-05,-0.0001642339,3,1
-5.159854e-05,-0.0001600202,3,1
-4.835724e-05,-0.0001536997,3,1
-5.662256e-05,-0.0001423551,3,1
-7.347736e-05,-0.0001289037,3,1
-9.940781e-05,-0.0001190177,3,1
-0.0001298761,-0.0001165867,3,1
-0.0001561307,-0.0001204763,3,1
-0.0001635857,-0.0001269589,3,1
-0.0001415448,-0.0001339277,3,1
-9.470791e-05,-0.0001449482,3,1
-4.446767e-05,-0.0001622891,3,1
-1.432352e-05,-0.0001854645,3,1
-1.3027e-05,-0.0002104225,3,1
-2.761287e-05,-0.0002319772,3,1
-3.587821e-05,-0.000246239,3,1
-1.140634e-05,-0.0002507768,3,1
5.974033e-05,-0.0002502906,3,1
0.0001620036,-0.0002553146,3,1
0.0002569738,-0.0002664971,3,1
0.0003111037,-0.0002814071,3,1
0.0003088348,-0.0002971275,3,1
0.0002611876,-0.0003096065,3,1
0.0001924718,-0.0003170615,3,1
0.000128294,-0.0003201407,3,1
8.599492e-05,-0.0003175477,3,1
7.513654e-05,-0.0002989102,3,1
9.733949e-05,-0.0002475355,3,1
0.0001466074,-0.0001548341,3,1
0.0002080301,-3.117831e-05,3,1
0.0002619979,0.0001028497,3,1
0.0002939248,0.0002273159,3,1
0.0003002453,0.0003315239,3,1
0.000287118,0.0004094774,3,1
0.0002652392,0.0004642555,3,1
0.0002417397,0.0004995857,3,1
0.0002196988,0.0005214646,3,1
0.0001949028,0.000542209,3,1
0.000163138,0.0005676532,3,1
0.0001273216,0.0005939078,3,1
9.247754e-05,0.0006110868,3,1
6.525056e-05,0.0006107626,3,1
4.596478e-05,0.0005885597,3,1
2.894792e-05,0.0005438296,3,1
1.031041e-05,0.0004856481,3,1
-7.678839e-06,0.00043087,3,1
-1.416145e-05,0.0003931088,3,1
4.244267e-07,0.0003816021,3,1
3.753739e-05,0.0003999155,3,1
8.016057e-05,0.0004331389,3,1
0.0001041462,0.0004611762,3,1
9.442231e-05,0.0004709002,3,1
5.293359e-05,0.0004615004,3,1
-4.923729e-06,0.0004430249,3,1
-6.618442e-05,0.0004266563,3,1
-0.0001199901,0.0004227667,3,1
-0.0001558065,0.0004323286,3,1
-0.0001650443,0.0004452938,3,1
-0.0001504584,0.0004425387,3,1
-0.0001175591,0.0004080188,3,1
-7.769106e-05,0.0003388169,3,1
-4.398147e-05,0.0002433604,3,1
-3.020592e-05,0.0001328318,3,1
-4.268495e-05,1.825161e-05,3,1
-7.931171e-05,-8.935975e-05,3,1
-0.0001248521,-0.0001791439,3,1
-0.0001577513,-0.0002457528,3,1
-0.0001652063,-0.0002904828,3,1
-0.0001541859,-0.0003178718,3,1
-0.0001379794,-0.0003329439,3,1
-0.0001290658,-0.0003433161,3,1
-0.0001293899,-0.0003544986,3,1
-0.0001391138,-0.0003660052,3,1
-0.0001533756,-0.0003742705,3,1
-0.00016942,-0.0003749188,3,1
-0.0001815749,-0.0003687603,3,1
-0.0001833576,-0.0003624398,3,1
-0.0001658546,-0.0003595226,3,1
-0.000127283,-0.0003619536,3,1
-6.650855e-05,-0.0003692465,3,1
1.22552e-05,-0.0003771877,3,1
9.733949e-05,-0.00038286,3,1
0.0001626518,-0.0003854531,3,1
0.0001846927,-0.0003864254,3,1
0.0001564933,-0.0003841565,3,1
9.231547e-05,-0.0003786463,3,1
1.857574e-05,-0.0003690845,3,1
-3.604027e-05,-0.0003577399,3,1
-5.32192e-05,-0.0003450988,3,1
-3.360929e-05,-0.0003308371,3,1
8.041497e-06,-0.0003131719,3,1
5.082674e-05,-0.0002945344,3,1
7.416415e-05,-0.0002765452,3,1
6.703327e-05,-0.0002588801,3,1
3.948217e-05,-0.0002417012,3,1
1.014835e-05,-0.000223874,3,1
-6.220252e-06,-0.0002026434,3,1
-9.785688e-06,-0.0001791439,3,1
-6.382317e-06,-0.0001536997,3,1
1.002961e-07,-0.0001300382,3,1
1.306552e-05,-0.0001094559,3,1
3.397195e-05,-9.114248e-05,3,1
6.265751e-05,-7.363943e-05,3,1
9.652917e-05,-5.516398e-05,3,1
0.0001304008,-3.522994e-05,3,1
0.000155683,-1.545797e-05,3,1
0.0001624898,1.720949e-06,3,1
0.0001487142,1.744129e-05,3,1
0.0001185701,3.202716e-05,3,1
6.897806e-05,4.628891e-05,3,1
-7.678839e-06,5.909208e-05,3,1
-9.892161e-05,7.20573e-05,3,1
-0.0001788198,8.891209e-05,3,1
-0.0002203085,0.0001078737,3,1
-0.0002146363,0.0001252147,3,1
-0.0001713648,0.0001385041,3,1
-0.0001058904,0.0001477418,3,1
-3.944364e-05,0.000155683,3,1
8.365628e-06,0.0001662173,3,1
2.910999e-05,0.0001814514,3,1
2.927205e-05,0.0001999268,3,1
2.116879e-05,0.000217754,3,1
8.365628e-06,0.0002303951,3,1
-8.489166e-06,0.0002367157,3,1
-2.437157e-05,0.0002381743,3,1
-2.89094e-05,0.0002401191,3,1
-1.043395e-05,0.0002417397,3,1
3.656499e-05,0.0002404432,3,1
0.0001046324,0.0002357433,3,1
0.0001757791,0.0002279642,3,1
0.0002245608,0.0002182402,3,1
0.0002320158,0.0002070577,3,1
0.0002017096,0.0001957132,3,1
0.0001550348,0.0001817755,3,1
0.0001166253,0.0001645966,3,1
0.0001052807,0.0001503349,3,1
0.0001200286,0.0001428799,3,1
0.0001422316,0.0001436902,3,1
0.0001427178,0.0001469315,3,1
0.0001043083,0.0001441764,3,1
3.510641e-05,0.0001316974,3,1
-3.766092e-05,0.0001099806,3,1
-8.709085e-05,7.999851e-05,3,1
-0.0001037836,4.418206e-05,3,1
-9.260107e-05,1.095867e-05,3,1
-6.553616e-05,-1.578211e-05,3,1
-3.360929e-05,-3.895745e-05,3,1
-8.813297e-06,-6.504996e-05,3,1
1.234753e-06,-9.778715e-05,3,1
-8.327101e-06,-0.0001327933,3,1
-3.490581e-05,-0.0001639098,3,1
-7.039812e-05,-0.0001840059,3,1
-0.0001031353,-0.0001938919,3,1
-0.0001259865,-0.0001984297,3,1
-0.0001358725,-0.0002031296,3,1
-0.0001426792,-0.0002071812,3,1
-0.0001535376,-0.0002053985,3,1
-0.0001663408,-0.0001929195,3,1
-0.0001729855,-0.0001689338,3,1
-0.0001700683,-0.0001361966,3,1
-0.0001546721,-9.649064e-05,3,1
-0.0001300382,-5.305713e-05,3,1
-9.908367e-05,-5.734056e-06,3,1
-7.104638e-05,4.499239e-05,3,1
-4.90055e-05,0.0001007429,3,1
-3.231277e-05,0.000160707,3,1
-1.756482e-05,0.0002206712,3,1
-4.275467e-06,0.0002718839,3,1
4.47606e-06,0.0003039728,3,1
8.041497e-06,0.0003080245,3,1
1.160693e-05,0.0002840388,3,1
1.889987e-05,0.0002346088,3,1
2.894792e-05,0.000168162,3,1
4.126489e-05,0.0001000946,3,1
5.163707e-05,4.288554e-05,3,1
6.217132e-05,3.179537e-06,3,1
7.805372e-05,-1.934754e-05,3,1
0.00010366,-2.84232e-05,3,1
0.000138342,-2.874733e-05,3,1
0.0001741585,-2.485776e-05,3,1
0.0002018716,-2.031993e-05,3,1
0.0002166196,-1.950961e-05,3,1
0.0002206712,-2.356124e-05,3,1
0.0002188885,-3.312309e-05,3,1
0.0002128921,-4.398147e-05,3,1
0.0002007372,-5.095028e-05,3,1
0.0001801549,-5.062615e-05,3,1
0.0001537382,-4.187462e-05,3,1
0.0001253768,-2.46957e-05,3,1
0.0001025256,-2.81688e-06,3,1
8.972242e-05,1.59827e-05,3,1
9.053275e-05,2.781346e-05,3,1
0.0001017153,3.802358e-05,3,1
0.0001153287,4.904402e-05,3,1
0.0001305629,5.974033e-05,3,1
0.0001441764,6.670914e-05,3,1
0.0001535762,6.622294e-05,3,1
0.0001573037,6.119892e-05,3,1
0.0001584381,5.714729e-05,3,1
0.0001610312,5.860588e-05,3,1
0.0001641104,6.654708e-05,3,1
0.0001586002,8.129502e-05,3,1
0.0001376938,0.0001028497,3,1
0.0001002567,0.0001313732,3,1
5.844381e-05,0.0001668655,3,1
2.716521e-05,0.000202844,3,1
1.322759e-05,0.0002299089,3,1
1.452411e-05,0.0002383363,3,1
1.679302e-05,0.0002265056,3,1
5.448452e-06,0.0001981441,3,1
-2.501983e-05,0.0001569795,3,1
-6.472583e-05,0.0001044704,3,1
-9.762509e-05,4.709924e-05,3,1
-0.000114804,-6.868513e-06,3,1
-0.000117235,-5.062615e-05,3,1
-0.0001141558,-7.866345e-05,3,1
-0.000119666,-9.308726e-05,3,1
-0.0001454344,-9.924574e-05,3,1
-0.0001893541,-0.000102325,3,1
-0.0002402425,-0.0001067007,3,1
-0.0002814071,-0.0001141558,3,1
-0.0003018274,-0.0001269589,3,1
-0.0002998826,-0.0001462447,3,1
-0.0002746004,-0.0001697442,3,1
-0.0002232257,-0.000189192,3,1
-0.0001530514,-0.0001977815,3,1
-8.384954e-05,-0.0001930815,3,1
-4.041603e-05,-0.0001749302,3,1
-3.604027e-05,-0.0001465688,3,1
-6.472583e-05,-0.0001135075,3,1
-0.0001071869,-8.190475e-05,3,1
-0.0001434896,-5.062615e-05,3,1
-0.0001655305,-1.3027e-05,3,1
-0.000166989,3.640293e-05,3,1
-0.0001436516,8.988449e-05,3,1
-9.535618e-05,0.0001378558,3,1
-3.474375e-05,0.0001668655,3,1
1.97102e-05,0.0001675138,3,1
5.212327e-05,0.0001347766,3,1
5.844381e-05,7.513654e-05,3,1
4.564065e-05,6.582909e-06,3,1
2.408596e-05,-4.819517e-05,3,1
-3.858999e-07,-7.509801e-05,3,1
-2.583016e-05,-7.817725e-05,3,1
-5.419158e-05,-6.764301e-05,3,1
-7.914964e-05,-5.176061e-05,3,1
-9.29252e-05,-3.409549e-05,3,1
-8.628052e-05,-1.562004e-05,3,1
-6.0188e-05,2.623614e-07,3,1
-2.712668e-05,7.717366e-06,3,1
-1.034161e-06,1.1769e-05,3,1
8.365628e-06,1.760335e-05,3,1
4.47606e-06,2.538249e-05,3,1
-8.002969e-06,3.056858e-05,3,1
-2.566809e-05,2.846173e-05,3,1
-4.560212e-05,1.64689e-05,3,1
-6.278104e-05,-4.599598e-06,3,1
-7.120844e-05,-2.939559e-05,3,1
-6.456377e-05,-5.451572e-05,3,1
-4.041603e-05,-7.736692e-05,3,1
-3.14101e-06,-9.713889e-05,3,1
4.158902e-05,-0.0001092938,3,1
9.328786e-05,-0.0001089697,3,1
0.0001535762,-9.649064e-05,3,1
0.0002166196,-7.801519e-05,3,1
0.000272208,-6.099833e-05,3,1
0.000309321,-4.949169e-05,3,1
0.0003229345,-4.090223e-05,3,1
0.0003159656,-3.26369e-05,3,1
0.0002944109,-2.0482e-05,3,1
0.0002642668,-3.303076e-06,3,1
0.000234933,1.582063e-05,3,1
0.0002138645,3.299956e-05,3,1
0.0002012234,4.920609e-05,3,1
0.0001882582,6.233338e-05,3,1
0.0001701068,7.562274e-05,3,1
0.0001454729,9.037068e-05,3,1
0.0001138702,0.0001069013,3,1
8.388807e-05,0.0001213252,3,1
6.298164e-05,0.000130887,3,1
5.455425e-05,0.0001344524,3,1
5.666109e-05,0.0001328318,3,1
6.751948e-05,0.000128456,3,1
8.972242e-05,0.0001226217,3,1
0.0001206769,0.0001150046,3,1
0.0001517934,0.0001069013,3,1
0.000180479,9.766362e-05,3,1
0.0002075439,9.101894e-05,3,1
0.0002303951,8.486046e-05,3,1
0.0002406053,7.513654e-05,3,1
0.00022764,5.811968e-05,3,1
0.0001848548,3.769945e-05,3,1
0.0001148425,1.64689e-05,3,1
3.105477e-05,-7.354709e-06,3,1
-5.2733e-05,-3.652646e-05,3,1
-0.0001251762,-6.699475e-05,3,1
-0.0001830335,-9.114248e-05,3,1
-0.000223874,-0.0001086455,3,1
-0.000246239,-0.0001188556,3,1
-0.0002483458,-0.000122259,3,1
-0.0002308428,-0.0001186936,3,1
-0.0002010227,-0.0001067007,3,1
-0.000164396,-9.130454e-05,3,1
-0.0001267968,-7.688073e-05,3,1
-9.389759e-05,-6.180866e-05,3,1
-7.056019e-05,-4.138842e-05,3,1
-5.986387e-05,-1.578211e-05,3,1
-5.986387e-05,8.527692e-06,3,1
-6.586029e-05,1.987227e-05,3,1
-7.509801e-05,9.824215e-06,3,1
-8.40116e-05,-2.291298e-05,3,1
-9.422172e-05,-6.472583e-05,3,1
-0.0001063766,-9.940781e-05,3,1
-0.0001229073,-0.0001175591,3,1
-0.0001465688,-0.0001154523,3,1
-0.0001750923,-9.033215e-05,3,1
-0.0002019951,-4.884343e-05,3,1
-0.0002135018,1.234753e-06,3,1
-0.0002036158,4.790957e-05,3,1
-0.0001754164,8.032264e-05,3,1
-0.0001334415,9.101894e-05,3,1
-7.947377e-05,8.567078e-05,3,1
-1.983374e-05,7.67572e-05,3,1
3.60788e-05,8.04847e-05,3,1
7.837785e-05,0.0001030118,3,1
9.296373e-05,0.0001472556,3,1
6.83298e-05,0.0002068957,3,1
5.610517e-06,0.0002681563,3,1
-7.33153e-05,0.0003196932,3,1
-0.0001379794,0.0003548613,3,1
-0.0001653684,0.0003760919,3,1
-0.0001530514,0.0003932708,3,1
-0.0001157764,0.000418391,3,1
-6.893953e-05,0.0004598797,3,1
-2.518189e-05,0.000509958,3,1
4.47606e-06,0.0005457744,3,1
1.193106e-05,0.0005425331,3,1
9.106227e-07,0.000487755,3,1
-1.124428e-05,0.0003867882,3,1
-3.858999e-07,0.0002577842,3,1
5.034055e-05,0.0001260251,3,1
0.0001294284,1.112074e-05,3,1
0.0002018716,-7.623246e-05,3,1
0.0002370398,-0.0001363587,3,1
0.0002237505,-0.0001731475,3,1
0.0001741585,-0.0001895161,3,1
0.0001125736,-0.0001857886,3,1
6.622294e-05,-0.0001634236,3,1
5.212327e-05,-0.0001287416,3,1
6.638502e-05,-9.454585e-05,3,1
9.555677e-05,-7.218083e-05,3,1
0.0001250527,-6.683268e-05,3,1
0.0001483901,-7.979791e-05,3,1
0.0001639484,-0.0001070249,3,1
0.0001720516,-0.0001408965,3,1
0.0001658931,-0.000169258,3,1
0.0001420695,-0.0001857886,3,1
0.0001009049,-0.0001922712,3,1
4.871989e-05,-0.0001974573,3,1
-7.100305e-07,-0.0002070192,3,1
-3.020592e-05,-0.0002204706,3,1
-2.874733e-05,-0.0002344082,3,1
1.014835e-05,-0.0002467252,3,1
8.372601e-05,-0.0002540181,3,1
0.0001699448,-0.0002570974,3,1
0.0002454672,-0.0002583939,3,1
0.0002963557,-0.0002545043,3,1
0.0003102934,-0.0002373254,3,1
0.0002833905,-0.0002026434,3,1
0.0002231022,-0.0001527273,3,1
0.0001425557,-9.892161e-05,3,1
5.455425e-05,-4.608832e-05,3,1
-2.453363e-05,5.286387e-06,3,1
-8.547019e-05,6.298164e-05,3,1
-0.00012469,0.000133318,3,1
-0.0001439758,0.0002080301,3,1
-0.0001457585,0.0002741528,3,1
-0.0001374932,0.0003180725,3,1
-0.0001290658,0.0003362238,3,1
-0.0001256624,0.0003294171,3,1
-0.0001214487,0.0003004074,3,1
-0.0001063766,0.0002592428,3,1
-8.303922e-05,0.0002218057,3,1
-6.197072e-05,0.0002015475,3,1
-5.176061e-05,0.000195227,3,1
-4.770897e-05,0.000190365,3,1
-4.349527e-05,0.0001741585,3,1
-3.830919e-05,0.0001401247,3,1
-3.490581e-05,8.875003e-05,3,1
-3.441962e-05,3.18651e-05,3,1
-3.717473e-05,-2.307504e-05,3,1
-4.365734e-05,-7.266703e-05,3,1
-5.062615e-05,-0.0001128592,3,1
-5.59743e-05,-0.0001431655,3,1
-6.342931e-05,-0.0001616409,3,1
-7.688073e-05,-0.0001739578,3,1
-9.308726e-05,-0.0001814128,3,1
-0.0001099421,-0.0001848162,3,1
-0.0001274451,-0.0001887058,3,1
-0.0001460826,-0.0001984297,3,1
-0.000166989,-0.0002133397,3,1
-0.0001846542,-0.0002308428,3,1
-0.0001882196,-0.0002457528,3,1
-0.0001660166,-0.0002535319,3,1
-0.0001214487,-0.0002556388,3,1
-6.229485e-05,-0.0002582318,3,1
1.234753e-06,-0.0002677937,3,1
5.698522e-05,-0.000288538,3,1
9.53947e-05,-0.0003211132,3,1
0.0001124116,-0.000360495,3,1
0.000106091,-0.0004014975,3,1
8.178122e-05,-0.0004395829,3,1
4.661304e-05,-0.0004734545,3,1
1.112074e-05,-0.0004959816,3,1
-1.416145e-05,-0.0005008436,3,1
-2.501983e-05,-0.000492092,3,1
-2.42095e-05,-0.0004728062,3,1
-1.950961e-05,-0.0004455793,3,1
-1.934754e-05,-0.0004066836,3,1
-1.950961e-05,-0.0003566054,3,1
-1.237873e-05,-0.0002993964,3,1
1.112074e-05,-0.0002360289,3,1
4.936815e-05,-0.0001639098,3,1
9.63671e-05,-8.271508e-05,3,1
0.0001428799,6.420843e-06,3,1
0.0001820997,0.0001070634,3,1
0.0002075439,0.0002273159,3,1
0.0002132162,0.0003754436,3,1
0.0002044647,0.0005467468,3,1
0.0001892305,0.0007233981,3,1
0.0001738343,0.0008831946,3,1
0.0001579519,0.001003285,3,1
0.0001380179,0.001068111,3,1
0.0001094944,0.001072163,3,1
7.465034e-05,0.00101544,3,1
4.304761e-05,0.0009057217,3,1
2.052053e-05,0.0007574318,3,1
6.744974e-06,0.0005913147,3,1
1.234753e-06,0.0004311941,3,1
1.883015e-06,0.0002991108,3,1
1.720949e-06,0.0002093267,3,1
-3.14101e-06,0.0001633001,3,1
-8.327101e-06,0.0001500107,3,1
-5.57199e-06,0.0001514693,3,1
1.063454e-05,0.000153252,3,1
4.094075e-05,0.00015309,3,1
8.129502e-05,0.0001501728,3,1
0.0001252147,0.0001445005,3,1
0.000163138,0.000135749,3,1
0.0001905271,0.0001244044,3,1
0.0002111094,0.0001099806,3,1
0.0002242366,8.84259e-05,3,1
0.0002234263,5.99024e-05,3,1
0.0001981441,2.667901e-05,3,1
0.0001423936,-3.789272e-06,3,1
6.703327e-05,-2.437157e-05,3,1
-1.20546e-05,-3.701266e-05,3,1
-8.206682e-05,-4.80331e-05,3,1
-0.0001306864,-6.197072e-05,3,1
-0.0001455964,-7.574627e-05,3,1
-0.0001243659,-8.611845e-05,3,1
-8.222889e-05,-9.681477e-05,3,1
-4.155049e-05,-0.0001110765,3,1
-2.194059e-05,-0.0001305243,3,1
-2.777494e-05,-0.0001543479,3,1
-5.176061e-05,-0.0001771992,3,1
-8.417367e-05,-0.0001919471,3,1
-0.000119666,-0.0001977815,3,1
-0.000151917,-0.0001929195,3,1
-0.000176713,-0.0001831956,3,1
-0.0001989159,-0.0001726613,3,1
-0.0002233878,-0.000166827,3,1
-0.0002472114,-0.0001684476,3,1
-0.0002600145,-0.0001757406,3,1
-0.0002494803,-0.0001797922,3,1
-0.0002133397,-0.000174282,3,1
-0.0001592099,-0.0001621271,3,1
-0.0001042698,-0.0001464067,3,1
-6.229485e-05,-0.0001387897,3,1
-3.928157e-05,-0.0001447861,3,1
-3.604027e-05,-0.0001634236,3,1
-4.657452e-05,-0.0001854645,3,1
-5.759496e-05,-0.0002050744,3,1
-5.629844e-05,-0.0002191741,3,1
-4.219875e-05,-0.0002224154,3,1
-2.631635e-05,-0.0002109087,3,1
-1.513384e-05,-0.0001851404,3,1
-9.623623e-06,-0.0001483515,3,1
-9.623623e-06,-0.0001068628,3,1
-1.399939e-05,-6.553616e-05,3,1
-1.659243e-05,-2.599222e-05,3,1
-1.399939e-05,1.468618e-05,3,1
-1.196227e-06,6.217132e-05,3,1
1.59827e-05,0.0001127357,3,1
3.218923e-05,0.0001561692,3,1
4.369587e-05,0.0001833962,3,1
5.19612e-05,0.0001906891,3,1
5.94162e-05,0.0001759412,3,1
6.816773e-05,0.0001425557,3,1
8.080883e-05,0.0001005808,3,1
9.571884e-05,6.055066e-05,3,1
0.0001140322,3.105477e-05,3,1
0.0001409351,1.760335e-05,3,1
0.0001777239,2.068259e-05,3,1
0.0002138645,3.624086e-05,3,1
0.0002316917,5.828175e-05,3,1
0.0002227781,7.708133e-05,3,1
0.0001984683,8.712937e-05,3,1
0.0001783722,9.069481e-05,3,1
0.0001816135,9.652917e-05,3,1
0.0002096508,0.000106091,3,1
0.0002490327,0.0001148425,3,1
0.0002806354,0.0001175977,3,1
0.0002979764,0.0001093323,3,1
0.0003062417,8.972242e-05,3,1
0.0003132105,6.541262e-05,3,1
0.0003183966,3.883391e-05,3,1
0.0003166139,6.582909e-06,3,1
0.0003000832,-3.522994e-05,3,1
0.0002666978,-8.919769e-05,3,1
0.0002219677,-0.0001554824,3,1
0.0001714034,-0.0002266291,3,1
0.0001156529,-0.0002917793,3,1
5.56887e-05,-0.0003397507,3,1
-3.14101e-06,-0.0003635742,3,1
-4.85193e-05,-0.0003642225,3,1
-7.412562e-05,-0.0003489884,3,1
-7.898758e-05,-0.0003254889,3,1
-6.569822e-05,-0.000301017,3,1
-4.365734e-05,-0.0002797865,3,1
-2.84232e-05,-0.0002523975,3,1
-3.231277e-05,-0.0002042641,3,1
-5.727083e-05,-0.0001285796,3,1
-8.919769e-05,-2.712668e-05,3,1
-0.0001136696,9.085688e-05,3,1
-0.0001274451,0.0002078681,3,1
-0.0001376552,0.000304459,3,1
-0.0001491618,0.0003718782,3,1
-0.0001627754,0.0004198496,3,1
-0.0001784957,0.0004807861,3,1
-0.0001995642,0.0005828873,3,1
-0.0002267911,0.0007368495,3,1
-0.000256287,0.0009274385,3,1
-0.0002755728,0.001116893,3,1
-0.0002768693,0.001256107,3,1
-0.0002569353,0.001300675,3,1
-0.0002188499,0.001230339,3,1
-0.0001715269,0.001054984,3,1
-0.0001250141,0.0008102651,3,1
-8.352541e-05,0.0005454503,3,1
-5.581224e-05,0.0003091589,3,1
-4.527799e-05,0.0001313732,3,1
-4.981582e-05,2.100672e-05,3,1
-6.634648e-05,-3.020592e-05,3,1
-9.179074e-05,-4.268495e-05,3,1
-0.0001240417,-3.652646e-05,3,1
-0.0001566169,-3.004385e-05,3,1
-0.0001815749,-3.587821e-05,3,1
-0.0001950263,-6.06742e-05,3,1
-0.0001985918,-0.000104756,3,1
-0.000189192,-0.0001596961,3,1
-0.0001663408,-0.0002182017,3,1
-0.0001303623,-0.0002694143,3,1
-8.595638e-05,-0.0003049066,3,1
-4.236082e-05,-0.0003220855,3,1
-1.189254e-05,-0.0003248407,3,1
-7.516774e-06,-0.0003206269,3,1
-3.490581e-05,-0.000310741,3,1
-8.514606e-05,-0.0002977757,3,1
-0.0001396,-0.0002849726,3,1
-0.0001784957,-0.0002773555,3,1
-0.0001890299,-0.0002773555,3,1
-0.0001750923,-0.0002874036,3,1
-0.0001472171,-0.000303448,3,1
-0.0001169109,-0.0003186821,3,1
-9.033215e-05,-0.0003309991,3,1
-6.423963e-05,-0.0003369955,3,1
-3.26369e-05,-0.0003379679,3,1
8.851824e-06,-0.0003361852,3,1
6.006447e-05,-0.0003309991,3,1
0.0001188942,-0.0003164132,3,1
0.0001872858,-0.0002880518,3,1
0.0002611876,-0.0002502906,3,1
0.0003308757,-0.0002113949,3,1
0.0003817642,-0.0001806025,3,1
0.0003982949,-0.0001626133,3,1
0.000371392,-0.0001574272,3,1
0.0003138588,-0.0001609926,3,1
0.0002542187,-0.0001689338,3,1
0.0002145127,-0.000174444,3,1
0.0002015475,-0.0001715269,3,1
0.0002017096,-0.000159372,3,1
0.0002034923,-0.0001455964,3,1
0.0001976579,-0.0001358725,3,1
0.0001830721,-0.0001306864,3,1
0.0001616794,-0.0001264727,3,1
0.0001320215,-0.0001261486,3,1
9.53947e-05,-0.0001285796,3,1
6.800567e-05,-0.0001282554,3,1
7.027458e-05,-0.0001230693,3,1
0.000113384,-0.0001109144,3,1
0.000187934,-9.227693e-05,3,1
0.0002660495,-6.829127e-05,3,1
0.0003140208,-4.38194e-05,3,1
0.0003149933,-2.728874e-05,3,1
0.000269777,-2.031993e-05,3,1
0.000192958,-2.031993e-05,3,1
0.0001043083,-2.42095e-05,3,1
2.116879e-05,-3.085418e-05,3,1
-4.673658e-05,-3.555408e-05,3,1
-9.535618e-05,-3.134038e-05,3,1
-0.0001253383,-1.108221e-05,3,1
-0.0001363587,2.34377e-05,3,1
-0.0001293899,6.41161e-05,3,1
-0.0001060525,0.0001025256,3,1
-7.120844e-05,0.0001388282,3,1
-2.777494e-05,0.0001835583,3,1
1.112074e-05,0.0002444948,3,1
3.299956e-05,0.0003151553,3,1
3.413401e-05,0.0003744712,3,1
1.906194e-05,0.0004025085,3,1
-6.868513e-06,0.0003879227,3,1
-4.155049e-05,0.0003303894,3,1
-8.563225e-05,0.0002430362,3,1
-0.0001365208,0.0001461212,3,1
-0.0001851404,6.152305e-05,3,1
-0.0002233878,3.665733e-06,3,1
-0.0002483458,-2.388537e-05,3,1
-0.0002669833,-2.777494e-05,3,1
-0.0002870794,-1.691656e-05,3,1
-0.0003121996,4.80019e-06,3,1
-0.0003347266,2.619281e-05,3,1
-0.0003365093,4.077869e-05,3,1
-0.0003018274,4.402e-05,3,1
-0.0002334358,3.073064e-05,3,1
-0.0001465688,2.623614e-07,3,1
-7.250496e-05,-4.187462e-05,3,1
-3.652646e-05,-8.482193e-05,3,1
-3.328516e-05,-0.000114804,3,1
-3.506788e-05,-0.0001282554,3,1
-1.62683e-05,-0.0001303623,3,1
2.878586e-05,-0.0001274451,3,1
8.550872e-05,-0.000122097,3,1
0.0001344524,-0.0001206384,3,1
0.0001623277,-0.000127121,3,1
0.0001628139,-0.0001374932,3,1
0.000140773,-0.0001376552,3,1
0.0001080358,-0.0001199901,3,1
8.064677e-05,-8.757704e-05,3,1
6.427817e-05,-5.240886e-05,3,1
5.714729e-05,-2.437157e-05,3,1
4.888196e-05,-7.192643e-06,3,1
3.024445e-05,-7.516774e-06,3,1
-3.465141e-06,-2.566809e-05,3,1
-4.592625e-05,-5.565017e-05,3,1
-8.692878e-05,-8.158062e-05,3,1
-0.0001135075,-8.82253e-05,3,1
-0.0001094559,-7.299116e-05,3,1
-6.715681e-05,-4.38194e-05,3,1
5.934648e-06,-1.351319e-05,3,1
9.393612e-05,7.879432e-06,3,1
0.000180479,1.59827e-05,3,1
0.0002454672,1.257933e-05,3,1
0.0002668598,2.04508e-06,3,1
0.0002344468,-4.275467e-06,3,1
0.000168162,-5.479652e-07,3,1
0.0001075496,1.744129e-05,3,1
8.939829e-05,4.677511e-05,3,1
0.0001269974,7.951231e-05,3,1
0.000205275,0.0001052807,3,1
0.0002901973,0.0001195424,3,1
0.0003480546,0.000121001,3,1
0.0003579406,0.0001150046,3,1
0.0003198552,0.000101067,3,1
0.0002490327,7.918817e-05,3,1
0.0001621656,5.341979e-05,3,1
7.772959e-05,3.348575e-05,3,1
1.338965e-05,2.554455e-05,3,1
-1.756482e-05,2.846173e-05,3,1
-1.788895e-05,3.478228e-05,3,1
-4.113403e-06,4.142696e-05,3,1
4.962256e-06,5.001642e-05,3,1
-7.100305e-07,6.233338e-05,3,1
-2.258885e-05,7.659513e-05,3,1
-5.581224e-05,8.875003e-05,3,1
-8.854943e-05,9.490851e-05,3,1
-0.0001126972,9.604298e-05,3,1
-0.0001253383,9.977047e-05,3,1
-0.0001279313,0.0001172735,3,1
-0.0001276072,0.0001564933,3,1
-0.0001233935,0.0002140265,3,1
-0.0001002181,0.0002840388,3,1
-4.219875e-05,0.0003637749,3,1
4.483033e-05,0.0004537212,3,1
0.000130887,0.0005485295,3,1
0.0001814514,0.0006391241,3,1
0.0001843686,0.0007180499,3,1
0.0001461212,0.0007746107,3,1
8.259155e-05,0.0007929241,3,1
1.12828e-05,0.0007571077,3,1
-5.22468e-05,0.0006658648,3,1
-0.0001028112,0.0005383193,3,1
-0.0001415448,0.0003979707,3,1
-0.0001703924,0.0002675081,3,1
-0.000191785,0.0001577899,3,1
-0.0002031296,6.589881e-05,3,1
-0.0001972953,-1.270286e-05,3,1
-0.0001716889,-8.158062e-05,3,1
-0.0001349001,-0.0001404103,3,1
-0.0001003802,-0.0001878955,3,1
-8.190475e-05,-0.0002259808,3,1
-8.660465e-05,-0.0002596904,3,1
-0.000107349,-0.0002937241,3,1
-0.0001269589,-0.0003361852,3,1
-0.0001308485,-0.0003893426,3,1
-0.0001161005,-0.0004467137,3,1
-8.563225e-05,-0.0004967919,3,1
-4.527799e-05,-0.0005295291,3,1
-8.651231e-06,-0.0005437909,3,1
1.22552e-05,-0.0005415219,3,1
4.962256e-06,-0.0005196431,3,1
-3.522994e-05,-0.00047702,3,1
-0.0001016767,-0.0004147869,3,1
-0.0001757406,-0.0003426678,3,1
-0.0002397564,-0.0002707109,3,1
-0.0002822175,-0.000201671,3,1
-0.0002943724,-0.0001342519,3,1
-0.0002627696,-6.213279e-05,3,1
-0.0001771992,2.684107e-05,3,1
-4.868137e-05,0.0001394765,3,1
8.356394e-05,0.0002607014,3,1
0.0001812893,0.0003686369,3,1
0.0002180782,0.000440756,3,1
0.0001960373,0.0004610142,3,1
0.0001347766,0.0004221185,3,1
6.281957e-05,0.0003337929,3,1
5.934648e-06,0.0002158093,3,1
-2.372331e-05,9.296373e-05,3,1
-2.388537e-05,-1.043395e-05,3,1
4.151929e-06,-7.363943e-05,3,1
5.730935e-05,-9.162867e-05,3,1
0.0001237561,-7.590833e-05,3,1
0.0001897167,-4.041603e-05,3,1
0.0002433604,7.393236e-06,3,1
0.0002807975,6.557468e-05,3,1
0.0002992729,0.000135749,3,1
0.000299597,0.0002187264,3,1
0.0002884145,0.000309321,3,1
0.0002842008,0.0004000776,3,1
0.0002992729,0.0004814344,3,1
0.0003289309,0.0005381573,3,1
0.0003587509,0.0005551741,3,1
0.0003709058,0.0005191956,3,1
0.0003582647,0.0004255218,3,1
0.0003208276,0.0002853353,3,1
0.0002626462,0.0001268354,3,1
0.0001924718,-2.015787e-05,3,1
0.0001188942,-0.0001308485,3,1
5.358185e-05,-0.0001940539,3,1
7.555301e-06,-0.0002113949,3,1
-1.562004e-05,-0.0001950263,3,1
-1.740276e-05,-0.0001577513,3,1
-3.303076e-06,-0.0001104282,3,1
1.468618e-05,-6.164659e-05,3,1
2.408596e-05,-1.983374e-05,3,1
1.938607e-05,8.203562e-06,3,1
3.503668e-06,1.841368e-05,3,1
-1.578211e-05,7.555301e-06,3,1
-3.717473e-05,-1.772689e-05,3,1
-5.856735e-05,-4.916756e-05,3,1
-8.190475e-05,-8.417367e-05,3,1
-0.0001037836,-0.0001159385,3,1
-0.0001227452,-0.0001405724,3,1
-0.0001386276,-0.0001566169,3,1
-0.0001533756,-0.0001635857,3,1
-0.0001626133,-0.0001642339,3,1
-0.0001653684,-0.0001655305,3,1
-0.0001710407,-0.000171851,3,1
-0.0001940539,-0.0001859507,3,1
-0.0002433218,-0.0002050744,3,1
-0.0003102548,-0.0002224154,3,1
-0.0003775118,-0.0002335979,3,1
-0.0004248349,-0.0002412149,3,1
-0.0004321279,-0.0002519113,3,1
-0.0003940425,-0.0002674695,3,1
-0.0003240303,-0.0002843243,3,1
-0.0002404046,-0.0002932379,3,1
-0.0001566169,-0.0002893484,3,1
-8.093236e-05,-0.0002705488,3,1
-2.09682e-05,-0.0002384598,3,1
1.630683e-05,-0.0002057227,3,1
2.570662e-05,-0.0001828714,3,1
6.420843e-06,-0.0001695821,3,1
-3.296103e-05,-0.000151917,3,1
-7.363943e-05,-0.0001185315,3,1
-9.600444e-05,-6.569822e-05,3,1
-9.065628e-05,-3.303076e-06,3,1
-6.845333e-05,5.228533e-05,3,1
-5.69467e-05,8.437427e-05,3,1
-7.266703e-05,8.226741e-05,3,1
-0.0001060525,5.082674e-05,3,1
-0.0001331174,3.503668e-06,3,1
-0.000134576,-4.349527e-05,3,1
-0.0001075111,-8.109443e-05,3,1
-6.423963e-05,-0.0001094559,3,1
-2.339918e-05,-0.0001329553,3,1
-7.100305e-07,-0.0001551583,3,1
1.558884e-06,-0.0001771992,3,1
-8.002969e-06,-0.0001972953,3,1
-1.756482e-05,-0.0002157707,3,1
-2.177852e-05,-0.0002300324,3,1
-8.813297e-06,-0.0002410529,3,1
3.429608e-05,-0.0002475355,3,1
0.0001080358,-0.0002493182,3,1
0.0001958752,-0.0002485079,3,1
0.0002725321,-0.0002473734,3,1
0.0003188828,-0.0002434839,3,1
0.0003276344,-0.0002297083,3,1
0.0003025142,-0.0002042641,3,1
0.0002521119,-0.0001710407,3,1
0.0001916615,-0.0001344139,3,1
0.0001396385,-9.940781e-05,3,1
0.0001103047,-6.91016e-05,3,1
0.0001114392,-4.041603e-05,3,1
0.0001380179,-1.059602e-05,3,1
0.0001759412,2.635488e-05,3,1
0.0002098128,7.367795e-05,3,1
0.0002342847,0.000130887,3,1
0.0002480603,0.0001932822,3,1
0.0002509774,0.0002506533,3,1
0.0002448189,0.0003010556,3,1
0.0002289366,0.0003495132,3,1
0.000210299,0.0004016982,3,1
0.0002020337,0.0004524247,3,1
0.000210299,0.0004940755,3,1
0.0002323399,0.000517575,3,1
0.000252274,0.0005148199,3,1
0.0002603772,0.0004848378,3,1
0.0002478982,0.0004310321,3,1
0.0002188885,0.000366368,3,1
0.0001793446,0.0003060797,3,1
0.0001396385,0.0002561635,3,1
0.0001046324,0.0002159713,3,1
7.610894e-05,0.0001808031,3,1
5.471631e-05,0.0001496866,3,1
4.142696e-05,0.0001263492,3,1
3.332369e-05,0.0001104668,3,1
2.359977e-05,9.393612e-05,3,1
1.257933e-05,7.335383e-05,3,1
2.531276e-06,4.985435e-05,3,1
-4.437533e-06,2.376183e-05,3,1
-1.059602e-05,-4.599598e-06,3,1
-1.221667e-05,-2.955766e-05,3,1
-1.416145e-05,-4.43056e-05,3,1
-2.258885e-05,-4.414354e-05,3,1
-3.798505e-05,-3.198864e-05,3,1
-6.116039e-05,-1.173047e-05,3,1
-8.433573e-05,1.760335e-05,3,1
-0.0001021629,5.682316e-05,3,1
-0.0001083214,0.0001004187,3,1
-0.0001020008,0.0001415833,3,1
-8.952183e-05,0.0001772377,3,1
-8.384954e-05,0.0002093267,3,1
-9.519411e-05,0.0002386605,3,1
-0.0001259865,0.0002642668,3,1
-0.0001705545,0.0002901973,3,1
-0.0002194982,0.0003187208,3,1
-0.0002627696,0.0003482167,3,1
-0.0002893484,0.0003756057,3,1
-0.0002912931,0.0004004017,3,1
-0.0002677937,0.0004127187,3,1
-0.0002250084,0.0004031568,3,1
-0.0001729855,0.0003662059,3,1
-0.0001243659,0.000302028,3,1
-8.790117e-05,0.0002214815,3,1
-6.91016e-05,0.0001419075,3,1
-7.120844e-05,7.951231e-05,3,1
-8.935975e-05,3.721326e-05,3,1
-0.0001078352,9.338019e-06,3,1
-0.0001201522,-1.480971e-05,3,1
-0.0001267968,-4.171256e-05,3,1
-0.0001334415,-7.542214e-05,3,1
-0.0001413827,-0.0001156143,3,1
-0.0001447861,-0.0001655305,3,1
-0.0001365208,-0.0002199844,3,1
-0.0001117248,-0.0002652006,3,1
-6.942573e-05,-0.0002922655,3,1
-1.610624e-05,-0.0002989102,3,1
3.429608e-05,-0.0002906449,3,1
6.849186e-05,-0.0002775176,3,1
7.805372e-05,-0.0002733039,3,1
6.849186e-05,-0.0002825416,3,1
6.022653e-05,-0.0003013411,3,1
6.41161e-05,-0.0003250027,3,1
7.416415e-05,-0.0003470436,3,1
7.724339e-05,-0.0003621157,3,1
6.03886e-05,-0.0003673017,3,1
2.441009e-05,-0.000365519,3,1
-1.464765e-05,-0.0003614674,3,1
-3.830919e-05,-0.0003559572,3,1
-4.074016e-05,-0.0003462333,3,1
-2.177852e-05,-0.0003272716,3,1
1.614476e-05,-0.0002955068,3,1
6.41161e-05,-0.000253694,3,1
0.0001091703,-0.0002079916,3,1
0.0001469315,-0.0001630995,3,1
0.0001871237,-0.0001165867,3,1
0.0002453052,-6.667062e-05,3,1
0.0003162898,-1.659243e-05,3,1
0.0003743092,2.538249e-05,3,1
0.000398619,5.893001e-05,3,1
0.0003814401,9.150514e-05,3,1
0.0003378445,0.0001329939,3,1
0.0002900352,0.0001916615,3,1
0.0002547049,0.0002710735,3,1
0.0002316917,0.0003645853,3,1
0.0002104611,0.0004592314,3,1
0.0001801549,0.0005368608,3,1
0.0001349386,0.0005836976,3,1
8.113296e-05,0.0005885597,3,1
3.235129e-05,0.0005501501,3,1
-3.14101e-06,0.0004733311,3,1
-2.728874e-05,0.0003731747,3,1
-4.187462e-05,0.0002701012,3,1
-3.960571e-05,0.0001785342,3,1
-1.335113e-05,0.0001099806,3,1
3.60788e-05,6.881599e-05,3,1
9.037068e-05,5.406805e-05,3,1
0.0001276457,6.346784e-05,3,1
0.0001287802,8.923623e-05,3,1
8.907416e-05,0.0001175977,3,1
1.873781e-05,0.0001313732,3,1
-6.116039e-05,0.0001227837,3,1
-0.0001295519,9.231547e-05,3,1
-0.0001741199,4.855783e-05,3,1
-0.0001914609,4.151929e-06,3,1
-0.0001874093,-2.728874e-05,3,1
-0.000166989,-4.155049e-05,3,1
-0.0001357104,-4.252288e-05,3,1
-9.649064e-05,-3.830919e-05,3,1
-5.889148e-05,-3.26369e-05,3,1
-3.231277e-05,-2.84232e-05,3,1
-2.0482e-05,-2.599222e-05,3,1
-2.09682e-05,-2.761287e-05,3,1
-2.858527e-05,-3.182657e-05,3,1
-3.895745e-05,-3.522994e-05,3,1
-5.046408e-05,-3.506788e-05,3,1
-6.359137e-05,-2.809907e-05,3,1
-7.315322e-05,-1.027188e-05,3,1
-7.736692e-05,2.214118e-05,3,1
-7.509801e-05,6.670914e-05,3,1
-7.039812e-05,0.000111115,3,1
-7.007399e-05,0.000138342,3,1
-7.882551e-05,0.0001325077,3,1
-9.649064e-05,8.729144e-05,3,1
-0.0001170729,9.66215e-06,3,1
-0.0001295519,-8.579432e-05,3,1
-0.0001277692,-0.0001788198,3,1
-0.0001151281,-0.0002504527,3,1
-0.0001075111,-0.0002916173,3,1
-0.0001208004,-0.0003065273,3,1
-0.0001572651,-0.0003052308,3,1
-0.0002073433,-0.0002956689,3,1
-0.0002582318,-0.0002825416,3,1
-0.0002989102,-0.0002708729,3,1
-0.0003288923,-0.0002630937,3,1
-0.0003499608,-0.0002603387,3,1
-0.0003596847,-0.0002619593,3,1
-0.0003501228,-0.0002634179,3,1
-0.0003102548,-0.0002624455,3,1
-0.0002316531,-0.0002596904,3,1
-0.0001219349,-0.0002566112,3,1
-8.720959e-07,-0.0002554767,3,1
0.0001052807,-0.0002545043,3,1
0.000173024,-0.0002481838,3,1
0.0001958752,-0.0002371633,3,1
0.0001827479,-0.0002243602,3,1
0.0001511452,-0.0002123673,3,1
0.0001169494,-0.0001969711,3,1
9.328786e-05,-0.0001757406,3,1
8.453633e-05,-0.000147055,3,1
9.490851e-05,-0.0001115627,3,1
0.0001239182,-7.526008e-05,3,1
0.0001686482,-4.625038e-05,3,1
0.0002180782,-2.7937e-05,3,1
0.0002576221,-1.416145e-05,3,1
0.0002731804,5.286387e-06,3,1
0.0002506533,3.380988e-05,3,1
0.0001859892,6.670914e-05,3,1
9.118101e-05,9.750156e-05,3,1
-9.623623e-06,0.0001271595,3,1
-8.530812e-05,0.0001534141,3,1
-0.0001092938,0.0001718896,3,1
-7.33153e-05,0.0001843686,3,1
4.80019e-06,0.0001934442,3,1
9.361199e-05,0.0001997648,3,1
0.0001618415,0.0002017096,3,1
0.0001931201,0.0002000889,3,1
0.0001947408,0.0001965235,3,1
0.000192796,0.0001944166,3,1
0.0002068957,0.0001968476,3,1
0.0002365536,0.000205275,3,1
0.0002665357,0.0002185644,3,1
0.0002812837,0.0002373639,3,1
0.0002725321,0.0002566497,3,1
0.0002430362,0.0002701012,3,1
0.000200251,0.0002752873,3,1
0.0001550348,0.0002718839,3,1
0.0001117633,0.0002608634,3,1
7.108491e-05,0.0002466017,3,1
3.672706e-05,0.0002352571,3,1
1.501031e-05,0.0002247229,3,1
7.879432e-06,0.0002154851,3,1
1.193106e-05,0.000207706,3,1
1.938607e-05,0.0002030061,3,1
2.667901e-05,0.000200413,3,1
2.81376e-05,0.0001963614,3,1
2.100672e-05,0.0001872858,3,1
5.772582e-06,0.0001676758,3,1
-1.756482e-05,0.0001362352,3,1
-4.398147e-05,9.717743e-05,3,1
-6.942573e-05,5.909208e-05,3,1
-8.790117e-05,2.992031e-05,3,1
-0.0001008664,9.66215e-06,3,1
-0.0001141558,-6.706447e-06,3,1
-0.000129714,-2.388537e-05,3,1
-0.0001455964,-4.155049e-05,3,1
-0.0001630995,-5.824322e-05,3,1
-0.0001846542,-7.23429e-05,3,1
-0.0002075054,-8.465986e-05,3,1
-0.0002225774,-9.584238e-05,3,1
-0.0002217671,-0.0001058904,3,1
-0.0002024813,-0.0001101041,3,1
-0.0001660166,-0.0001057284,3,1
-0.0001209625,-9.438378e-05,3,1
-7.623246e-05,-8.287715e-05,3,1
-4.268495e-05,-7.947377e-05,3,1
-2.615429e-05,-8.644259e-05,3,1
-2.113026e-05,-0.0001016767,3,1
-2.242678e-05,-0.0001204763,3,1
-2.583016e-05,-0.000134576,3,1
-2.210265e-05,-0.0001383035,3,1
-5.57199e-06,-0.0001336036,3,1
1.663096e-05,-0.00012469,3,1
3.105477e-05,-0.0001131834,3,1
2.619281e-05,-0.0001018388,3,1
-3.303076e-06,-9.000802e-05,3,1
-5.467778e-05,-7.623246e-05,3,1
-0.0001177212,-5.889148e-05,3,1
-0.0001700683,-3.782299e-05,3,1
-0.0001885437,-1.513384e-05,3,1
-0.0001577513,2.207145e-06,3,1
-7.882551e-05,1.371378e-05,3,1
3.202716e-05,1.987227e-05,3,1
0.0001454729,2.246531e-05,3,1
0.000235095,1.64689e-05,3,1
0.0002838767,-3.858999e-07,3,1
0.0002879283,-2.226472e-05,3,1
0.0002584324,-4.009191e-05,3,1
0.0002164575,-4.625038e-05,3,1
0.0001824238,-4.398147e-05,3,1
0.0001714034,-3.944364e-05,3,1
0.0001890685,-3.474375e-05,3,1
0.0002231022,-2.696461e-05,3,1
0.0002517878,-1.270286e-05,3,1
0.0002543808,8.689758e-06,3,1
0.0002256952,3.721326e-05,3,1
0.0001811273,6.995045e-05,3,1
0.0001414213,9.814982e-05,3,1
0.0001226217,0.0001101427,3,1
0.0001297526,9.928428e-05,3,1
0.0001548727,6.557468e-05,3,1
0.0001832341,1.031041e-05,3,1
0.0001991165,-6.148453e-05,3,1
0.0001918236,-0.0001361966,3,1
0.0001634622,-0.0002011848,3,1
0.0001226217,-0.0002468872,3,1
7.594687e-05,-0.0002754107,3,1
2.570662e-05,-0.0002934,3,1
-2.566809e-05,-0.0003042584,3,1
-7.623246e-05,-0.00030831,3,1
-0.0001204763,-0.000300855,3,1
-0.0001504584,-0.0002799486,3,1
-0.0001663408,-0.0002436459,3,1
-0.0001681235,-0.0001925954,3,1
-0.0001600202,-0.0001259865,3,1
-0.0001459206,-4.414354e-05,3,1
-0.000134576,4.985435e-05,3,1
-0.000129714,0.0001501728,3,1
-0.000127121,0.0002538946,3,1
-0.000119666,0.0003694472,3,1
-0.0001021629,0.0005018546,3,1
-7.461182e-05,0.0006478756,3,1
-4.527799e-05,0.0007964896,3,1
-2.031993e-05,0.0009308419,3,1
-3.789272e-06,0.001031485,3,1
-3.303076e-06,0.001087883,3,1
-2.275091e-05,0.001091935,3,1
-5.808115e-05,0.001041695,3,1
-9.713889e-05,0.0009366762,3,1
-0.0001212866,0.0007869278,3,1
-0.0001186936,0.0006102764,3,1
-9.503204e-05,0.000425846,3,1
-6.667062e-05,0.000252436,3,1
-4.722278e-05,0.0001051186,3,1
-4.155049e-05,-1.124428e-05,3,1
-4.38194e-05,-9.681477e-05,3,1
-5.354332e-05,-0.0001540238,3,1
-7.688073e-05,-0.0001904885,3,1
-0.0001133454,-0.0002104225,3,1
-0.0001485136,-0.0002151224,3,1
-0.000159372,-0.0002032917,3,1
-0.0001342519,-0.0001784957,3,1
-7.752899e-05,-0.0001485136,3,1
-3.465141e-06,-0.0001243659,3,1
6.087479e-05,-0.0001101041,3,1
9.879808e-05,-9.827335e-05,3,1
0.0001101427,-7.363943e-05,3,1
9.993253e-05,-2.777494e-05,3,1
6.525056e-05,3.170304e-05,3,1
4.80019e-06,8.323981e-05,3,1
-7.088431e-05,0.0001005808,3,1
-0.0001368449,6.816773e-05,3,1
-0.0001690959,-9.623623e-06,3,1
-0.0001608306,-0.0001167488,3,1
-0.0001209625,-0.0002271153,3,1
-7.299116e-05,-0.0003188442,3,1
-3.895745e-05,-0.0003820497,3,1
-2.550602e-05,-0.000415111,3,1
-2.46957e-05,-0.0004214316,3,1
-2.583016e-05,-0.0004070078,3,1
-2.210265e-05,-0.0003792946,3,1
-7.030578e-06,-0.0003470436,3,1
2.603075e-05,-0.000318196,3,1
8.064677e-05,-0.0003011791,3,1
0.0001534141,-0.0002982619,3,1
0.0002224539,-0.0003039342,3,1
0.0002582704,-0.0003134961,3,1
0.000244981,-0.0003209511,3,1
0.000195389,-0.0003188442,3,1
0.0001394765,-0.0003021515,3,1
0.0001078737,-0.0002729798,3,1
0.0001104668,-0.0002394322,3,1
0.000138342,-0.000211557,3,1
0.0001712413,-0.0001951884,3,1
0.0001950649,-0.0001864369,3,1
0.0002075439,-0.0001780095,3,1
0.0002112714,-0.0001618029,3,1
0.0002104611,-0.000134576,3,1
0.0002038164,-9.924574e-05,3,1
0.0001887444,-6.002594e-05,3,1
0.0001662173,-1.643037e-05,3,1
0.0001409351,3.316162e-05,3,1
0.0001200286,8.486046e-05,3,1
0.0001130598,0.0001336421,3,1
0.0001206769,0.0001785342,3,1
0.0001310491,0.0002133783,3,1
0.0001310491,0.0002363916,3,1
0.0001145184,0.0002457913,3,1
8.016057e-05,0.0002456293,3,1
4.466826e-05,0.0002389846,3,1
3.299956e-05,0.0002305572,3,1
6.152305e-05,0.000225047,3,1
0.0001213252,0.0002281262,3,1
0.0001892305,0.0002480603,3,1
0.0002365536,0.0002842008,3,1
0.0002511395,0.0003245551,3,1
0.0002344468,0.0003501615,3,1
0.0001955511,0.0003394651,3,1
0.0001466074,0.000284687,3,1
9.717743e-05,0.000192958,3,1
5.260946e-05,8.356394e-05,3,1
1.403791e-05,-1.983374e-05,3,1
-1.805102e-05,-9.697683e-05,3,1
-4.43056e-05,-0.0001397621,3,1
-6.229485e-05,-0.0001491618,3,1
-7.671866e-05,-0.0001405724,3,1
-9.681477e-05,-0.0001267968,3,1
-0.0001295519,-0.0001159385,3,1
-0.0001681235,-0.0001088076,3,1
-0.0002019951,-0.0001070249,3,1
-0.0002253326,-0.0001089697,3,1
-0.0002337599,-0.0001125351,3,1
-0.0002310048,-0.0001117248,3,1
-0.0002220912,-0.0001067007,3,1
-0.000216581,-9.924574e-05,3,1
-0.0002246843,-9.503204e-05,3,1
-0.0002493182,-0.0001013526,3,1
-0.0002844864,-0.000122259,3,1
-0.0003266234,-0.0001553203,3,1
-0.0003656811,-0.0001906506,3,1
-0.0003916115,-0.000219012,3,1
-0.0003967976,-0.0002366771,3,1
-0.0003760533,-0.0002439701,3,1
-0.000333106,-0.0002381357,3,1
-0.0002812451,-0.0002230636,3,1
-0.0002373254,-0.0002063709,3,1
-0.000209126,-0.0001989159,3,1
-0.0001958367,-0.0002023193,3,1
-0.0001900023,-0.0002117191,3,1
-0.0001859507,-0.0002206326,3,1
-0.000174282,-0.0002207947,3,1
-0.0001457585,-0.0002050744,3,1
-9.794922e-05,-0.0001747682,3,1
-3.571614e-05,-0.0001365208,3,1
2.927205e-05,-9.486997e-05,3,1
8.145709e-05,-4.300908e-05,3,1
0.0001062531,2.214118e-05,3,1
9.977047e-05,9.912221e-05,3,1
7.173317e-05,0.0001832341,3,1
3.478228e-05,0.0002641047,3,1
-2.006553e-06,0.000324231,3,1
-2.728874e-05,0.0003436788,3,1
-3.020592e-05,0.0003081865,3,1
-1.173047e-05,0.000227478,3,1
1.9224e-05,0.0001265113,3,1
5.1475e-05,2.927205e-05,3,1
7.708133e-05,-4.706071e-05,3,1
9.085688e-05,-9.551824e-05,3,1
9.101894e-05,-0.0001144799,3,1
7.610894e-05,-0.0001076731,3,1
4.969229e-05,-8.498399e-05,3,1
1.792748e-05,-5.759496e-05,3,1
1.002961e-07,-3.539201e-05,3,1
1.808955e-05,-2.583016e-05,3,1
8.259155e-05,-3.198864e-05,3,1
0.0001867996,-5.143648e-05,3,1
0.0003064038,-7.590833e-05,3,1
0.0004065602,-9.551824e-05,3,1
0.0004585832,-0.0001068628,3,1
0.0004486972,-0.0001091317,3,1
0.0003828986,-0.0001016767,3,1
0.0002814457,-8.02841e-05,3,1
0.0001744826,-4.317115e-05,3,1
8.956036e-05,2.693341e-06,3,1
3.996837e-05,5.585077e-05,3,1
2.619281e-05,0.0001164632,3,1
4.175109e-05,0.0001892305,3,1
7.918817e-05,0.0002756114,3,1
0.0001286181,0.000371392,3,1
0.000177886,0.0004640934,3,1
0.0002119197,0.0005365367,3,1
0.0002203471,0.0005778633,3,1
0.0002034923,0.000591963,3,1
0.0001726999,0.0005956905,3,1
0.0001410971,0.0006102764,3,1
0.0001171115,0.0006511169,3,1
0.0001038221,0.000715781,3,1
0.000101067,0.0007856312,3,1
0.0001046324,0.000832144,3,1
0.0001052807,0.0008298751,3,1
9.993253e-05,0.0007691005,3,1
8.648112e-05,0.0006569512,3,1
6.265751e-05,0.000512713,3,1
2.975825e-05,0.000361506,3,1
-7.354709e-06,0.0002221298,3,1
-4.203669e-05,0.0001062531,3,1
-7.282909e-05,1.59827e-05,3,1
-9.778715e-05,-5.451572e-05,3,1
-0.0001199901,-0.0001136696,3,1
-0.0001413827,-0.0001626133,3,1
-0.0001686097,-0.0001968091,3,1
-0.0002037779,-0.0002104225,3,1
-0.0002402425,-0.0002050744,3,1
-0.0002606628,-0.0001911368,3,1
-0.0002532078,-0.0001784957,3,1
-0.0002198223,-0.0001734716,3,1
-0.0001799543,-0.0001763888,3,1
-0.0001540238,-0.0001854645,3,1
-0.0001467309,-0.0001972953,3,1
-0.0001548341,-0.0002073433,3,1
-0.0001640719,-0.0002068571,3,1
-0.0001665028,-0.0001919471,3,1
-0.0001608306,-0.0001652063,3,1
-0.0001493239,-0.0001308485,3,1
-0.000134738,-9.794922e-05,3,1
-0.0001217728,-7.60704e-05,3,1
-0.0001162626,-7.088431e-05,3,1
-0.0001143178,-8.093236e-05,3,1
-0.0001042698,-0.0001034594,3,1
-7.493595e-05,-0.0001329553,3,1
-2.09682e-05,-0.0001639098,3,1
4.320967e-05,-0.0001900023,3,1
9.26396e-05,-0.0002088019,3,1
0.0001075496,-0.000221443,3,1
8.145709e-05,-0.0002293842,3,1
2.39239e-05,-0.0002340841,3,1
-4.349527e-05,-0.000231491,3,1
-9.276313e-05,-0.0002229016,3,1
-0.000107349,-0.0002100984,3,1
-8.384954e-05,-0.0001963229,3,1
-2.84232e-05,-0.0001853024,3,1
4.82337e-05,-0.000176875,3,1
0.0001260251,-0.0001700683,3,1
0.0001832341,-0.0001655305,3,1
0.0002054371,-0.0001635857,3,1
0.0001940925,-0.0001608306,3,1
0.0001644345,-0.0001566169,3,1
0.0001325077,-0.0001515928,3,1
0.0001096565,-0.0001465688,3,1
0.0001031738,-0.0001408965,3,1
0.0001143563,-0.0001305243,3,1
0.0001378558,-0.0001120489,3,1
0.0001626518,-8.530812e-05,3,1
0.0001767515,-5.808115e-05,3,1
0.0001761032,-3.992984e-05,3,1
0.0001637863,-3.68506e-05,3,1
0.0001459591,-5.143648e-05,3,1
0.0001305629,-7.769106e-05,3,1
0.0001229458,-0.0001050801,3,1
0.0001240803,-0.0001276072,3,1
0.0001299146,-0.000144462,3,1
0.0001346145,-0.0001515928,3,1
0.0001386662,-0.0001460826,3,1
0.000145635,-0.0001306864,3,1
0.0001519555,-0.0001114006,3,1
0.0001501728,-9.454585e-05,3,1
0.0001423936,-8.158062e-05,3,1
0.0001360731,-7.104638e-05,3,1
0.0001401247,-5.856735e-05,3,1
0.0001540623,-3.992984e-05,3,1
0.0001586002,-1.173047e-05,3,1
0.0001391524,2.311357e-05,3,1
9.944634e-05,6.03886e-05,3,1
5.763349e-05,9.717743e-05,3,1
3.073064e-05,0.0001347766,3,1
2.246531e-05,0.0001739964,3,1
2.214118e-05,0.0002153231,3,1
1.144487e-05,0.0002560015,3,1
-2.42095e-05,0.0002948972,3,1
-8.741498e-05,0.0003279585,3,1
-0.0001682856,0.0003534027,3,1
-0.0002504527,0.0003769022,3,1
-0.000310741,0.0004114222,3,1
-0.0003316474,0.0004645796,3,1
-0.0003081479,0.0005332953,3,1
-0.0002480217,0.0006039558,3,1
-0.00016942,0.0006503066,3,1
-9.616651e-05,0.0006465791,3,1
-4.43056e-05,0.0005840218,3,1
-2.226472e-05,0.0004786793,3,1
-2.761287e-05,0.000359075,3,1
-5.548811e-05,0.0002532463,3,1
-9.956988e-05,0.0001772377,3,1
-0.000152079,0.0001334801,3,1
-0.0002011848,0.0001127357,3,1
-0.0002457528,9.896015e-05,3,1
-0.0002843243,7.821578e-05,3,1
-0.0003076617,4.72613e-05,3,1
-0.0003057169,1.290346e-05,3,1
-0.0002781658,-2.0482e-05,3,1
-0.0002301945,-5.59743e-05,3,1
-0.0001737958,-9.519411e-05,3,1
-0.0001193418,-0.0001349001,3,1
-7.18567e-05,-0.0001703924,3,1
-3.798505e-05,-0.0001972953,3,1
-2.809907e-05,-0.0002188499,3,1
-4.009191e-05,-0.0002357047,3,1
-5.743289e-05,-0.000246401,3,1
-5.710876e-05,-0.0002530457,3,1
-2.501983e-05,-0.0002593663,3,1
3.332369e-05,-0.0002652006,3,1
9.960841e-05,-0.0002676316,3,1
0.0001545486,-0.0002697385,3,1
0.0001861513,-0.0002744383,3,1
0.0001949028,-0.0002846485,3,1
0.0001893926,-0.0002989102,3,1
0.000178048,-0.0003128478,3,1
0.0001662173,-0.0003199787,3,1
0.0001529279,-0.0003177098,3,1
0.000135911,-0.0003086341,3,1
0.0001137081,-0.0002942103,3,1
9.182927e-05,-0.0002734659,3,1
7.481241e-05,-0.0002491561,3,1
6.492643e-05,-0.0002276015,3,1
6.444023e-05,-0.0002084778,3,1
7.805372e-05,-0.0001885437,3,1
0.0001081979,-0.0001632615,3,1
0.0001487142,-0.0001334415,3,1
0.0001885823,-0.0001008664,3,1
0.00021273,-6.845333e-05,3,1
0.0002078681,-3.992984e-05,3,1
0.0001743205,-1.529591e-05,3,1
0.000120839,2.855407e-06,3,1
5.536457e-05,1.792748e-05,3,1
-9.299493e-06,3.688912e-05,3,1
-5.078821e-05,6.751948e-05,3,1
-4.544006e-05,0.000110953,3,1
1.452411e-05,0.0001663793,3,1
0.0001164632,0.0002263435,3,1
0.0002355812,0.0002778803,3,1
0.0003427064,0.0003089969,3,1
0.0004132049,0.0003166139,3,1
0.0004313562,0.0003028383,3,1
0.0003944053,0.0002739907,3,1
0.0003190449,0.0002394708,3,1
0.0002268297,0.000210137,3,1
0.00013818,0.0001937684,3,1
6.444023e-05,0.000195389,3,1
1.241726e-05,0.0002078681,3,1
-1.594417e-05,0.0002179161,3,1
-2.291298e-05,0.0002109473,3,1
-1.335113e-05,0.000180479,3,1
4.47606e-06,0.000128294,3,1
2.651694e-05,6.930219e-05,3,1
5.309566e-05,1.630683e-05,3,1
8.016057e-05,-2.647842e-05,3,1
0.0001077117,-6.294311e-05,3,1
0.0001378558,-9.892161e-05,3,1
0.0001665414,-0.0001404103,3,1
0.0001775618,-0.0001864369,3,1
0.0001553589,-0.0002316531,3,1
9.782569e-05,-0.0002681178,3,1
1.906194e-05,-0.0002893484,3,1
-5.905355e-05,-0.0002865932,3,1
-0.000119666,-0.0002577456,3,1
-0.0001587237,-0.0002120432,3,1
-0.0001851404,-0.0001561307,3,1
-0.0002081536,-9.179074e-05,3,1
-0.0002274394,-1.983374e-05,3,1
-0.0002420253,5.52025e-05,3,1
-0.0002590421,0.0001295905,3,1
-0.0002830278,0.0002078681,3,1
-0.0003068514,0.0003051073,3,1
-0.0003168994,0.0004298976,3,1
-0.0003026377,0.0005819149,3,1
-0.0002634179,0.0007378219,3,1
-0.0002112329,0.0008677984,3,1
-0.0001681235,0.000950776,3,1
-0.0001454344,0.0009802718,3,1
-0.0001389517,0.0009663342,3,1
-0.0001360346,0.0009233868,3,1
-0.0001323071,0.0008567779,3,1
-0.0001289037,0.0007639144,3,1
-0.0001266348,0.0006376655,3,1
-0.0001264727,0.0004770586,3,1
-0.0001349001,0.0002937627,3,1
-0.0001514308,0.0001101427,3,1
-0.0001671511,-4.122636e-05,3,1
-0.0001707166,-0.0001442999,3,1
-0.0001551583,-0.0001997262,3,1
-0.0001178833,-0.0002222533,3,1
-6.958779e-05,-0.0002293842,3,1
-1.869928e-05,-0.0002332737,3,1
2.457216e-05,-0.0002399184,3,1
5.536457e-05,-0.0002533699,3,1
7.367795e-05,-0.0002716832,3,1
8.388807e-05,-0.0002896725,3,1
9.426025e-05,-0.0003042584,3,1
0.0001090082,-0.0003131719,3,1
0.000128456,-0.0003203028,3,1
0.0001474177,-0.0003321336,3,1
0.0001600588,-0.0003588744,3,1
0.0001597346,-0.000402632,3,1
0.0001385041,-0.0004544929,3,1
0.0001000946,-0.0005034366,3,1
5.698522e-05,-0.0005399013,3,1
2.100672e-05,-0.0005578905,3,1
-5.479652e-07,-0.0005561078,3,1
-5.247859e-06,-0.0005408737,3,1
4.638125e-06,-0.0005207775,3,1
2.473423e-05,-0.0005006815,3,1
3.834771e-05,-0.0004800992,3,1
3.364782e-05,-0.0004501171,3,1
2.855407e-06,-0.0003992286,3,1
-4.090223e-05,-0.000325813,3,1
-7.833932e-05,-0.0002395943,3,1
-9.422172e-05,-0.0001528894,3,1
-8.498399e-05,-7.801519e-05,3,1
-5.046408e-05,-1.156841e-05,3,1
9.66215e-06,5.19612e-05,3,1
9.474644e-05,0.0001242423,3,1
0.000200251,0.0002062474,3,1
0.0003145071,0.0002867939,3,1
0.0004136911,0.0003488649,3,1
0.000470576,0.0003803056,3,1
0.0004700898,0.000378685,3,1
0.0004162841,0.0003521062,3,1
0.0003271482,0.0003111037,3,1
0.0002247229,0.0002668598,3,1
0.0001227837,0.0002253711,3,1
3.154097e-05,0.0001906891,3,1
-4.317115e-05,0.0001618415,3,1
-9.454585e-05,0.0001378558,3,1
-0.000119828,0.0001154908,3,1
-0.0001183694,9.296373e-05,3,1
-9.778715e-05,6.78436e-05,3,1
-6.472583e-05,4.320967e-05,3,1
-1.67545e-05,2.165498e-05,3,1
4.888196e-05,5.934648e-06,3,1
0.0001247285,-2.978945e-06,3,1
0.000187934,-4.275467e-06,3,1
0.0002154851,3.665733e-06,3,1
0.0001926339,2.133085e-05,3,1
0.0001218114,4.904402e-05,3,1
2.262738e-05,8.777764e-05,3,1
-8.644259e-05,0.0001393144,3,1
-0.0001874093,0.0001957132,3,1
-0.0002703867,0.0002433604,3,1
-0.0003248407,0.0002649151,3,1
-0.0003412093,0.0002454672,3,1
-0.0003190063,0.0001843686,3,1
-0.0002713591,9.16672e-05,3,1
-0.0002162569,-1.529591e-05,3,1
-0.0001634236,-0.0001191798,3,1
-0.0001114006,-0.0002045882,3,1
-5.32192e-05,-0.000263742,3,1
7.555301e-06,-0.0002951827,3,1
5.504044e-05,-0.0002997205,3,1
7.594687e-05,-0.0002843243,3,1
6.83298e-05,-0.0002595283,3,1
4.385793e-05,-0.0002391081,3,1
1.889987e-05,-0.0002300324,3,1
2.369211e-06,-0.0002323013,3,1
-8.327101e-06,-0.0002431597,3,1
-1.886135e-05,-0.0002590421,3,1
-3.117831e-05,-0.0002721694,3,1
-5.111234e-05,-0.0002741142,3,1
-7.752899e-05,-0.0002639041,3,1
-0.0001071869,-0.0002520733,3,1
-0.0001292278,-0.000243808,3,1
-0.0001349001,-0.0002407288,3,1
-0.0001232314,-0.0002408908,3,1
-0.0001010285,-0.0002405667,3,1
-7.931171e-05,-0.0002381357,3,1
-6.764301e-05,-0.0002321393,3,1
-6.81292e-05,-0.0002227395,3,1
-7.347736e-05,-0.0002120432,3,1
-7.347736e-05,-0.0002052365,3,1
-6.650855e-05,-0.0002039399,3,1
-4.689865e-05,-0.0002094502,3,1
-1.691656e-05,-0.000221443,3,1
1.938607e-05,-0.0002357047,3,1
5.974033e-05,-0.0002454286,3,1
0.0001015532,-0.0002436459,3,1
0.0001404489,-0.0002292221,3,1
0.0001686482,-0.000208964,3,1
0.0001866375,-0.0001878955,3,1
0.0002005751,-0.0001687718,3,1
0.0002124059,-0.0001506204,3,1
0.000222616,-0.0001340898,3,1
0.0002247229,-0.000119666,3,1
0.0002111094,-0.0001060525,3,1
0.0001748067,-8.320128e-05,3,1
0.0001166253,-4.333321e-05,3,1
4.888196e-05,1.760335e-05,3,1
-6.058186e-06,9.977047e-05,3,1
-3.134038e-05,0.0002072198,3,1
-1.821308e-05,0.0003405996,3,1
2.797553e-05,0.0004882411,3,1
9.020862e-05,0.0006329655,3,1
0.000148228,0.0007574318,3,1
0.0001858272,0.0008496471,3,1
0.0001965235,0.0009010218,3,1
0.0001871237,0.0009057217,3,1
0.0001728619,0.0008660157,3,1
0.000162976,0.0007942207,3,1
0.000158114,0.000710919,3,1
0.0001503349,0.0006405826,3,1
0.0001320215,0.0005989318,3,1
9.912221e-05,0.0005900182,3,1
5.747142e-05,0.0006015248,3,1
2.01964e-05,0.0006106006,3,1
-3.14101e-06,0.0005926113,3,1
-1.189254e-05,0.0005323229,3,1
-1.529591e-05,0.0004305459,3,1
-2.226472e-05,0.0002991108,3,1
-3.944364e-05,0.0001574657,3,1
-6.39155e-05,2.910999e-05,3,1
-8.579432e-05,-7.039812e-05,3,1
-9.438378e-05,-0.0001353863,3,1
-8.384954e-05,-0.0001716889,3,1
-4.965376e-05,-0.0001903264,3,1
7.393236e-06,-0.0001994021,3,1
7.254349e-05,-0.0002005366,3,1
0.0001253768,-0.0001929195,3,1
0.0001454729,-0.0001705545,3,1
0.0001232699,-0.00012469,3,1
6.735741e-05,-5.192267e-05,3,1
-1.682422e-06,3.510641e-05,3,1
-6.861539e-05,0.0001065772,3,1
-0.0001238797,0.000135749,3,1
-0.0001621271,0.0001143563,3,1
-0.0001809267,6.200925e-05,3,1
-0.0001827094,6.582909e-06,3,1
-0.0001747682,-2.971972e-05,3,1
-0.000161965,-3.668853e-05,3,1
-0.0001452723,-1.707863e-05,3,1
-0.0001216107,1.9224e-05,3,1
-0.0001010285,6.168512e-05,3,1
-0.0001120489,0.0001046324,3,1
-0.0001846542,0.0001487142,3,1
-0.0003211132,0.0001963614,3,1
-0.000489661,0.0002420638,3,1
-0.000631144,0.0002780424,3,1
-0.0006902979,0.0003018659,3,1
-0.0006475127,0.0003172622,3,1
-0.0005225603,0.000324393,3,1
-0.0003588744,0.0003195311,3,1
-0.0002086398,0.0003010556,3,1
-0.0001029732,0.0002736666,3,1
-5.159854e-05,0.0002402811,3,1
-4.317115e-05,0.0002038164,3,1
-5.2733e-05,0.0001592484,3,1
-5.030202e-05,0.0001022015,3,1
-1.432352e-05,2.894792e-05,3,1
5.714729e-05,-5.937768e-05,3,1
0.0001488763,-0.0001515928,3,1
0.0002368777,-0.0002366771,3,1
0.0003080245,-0.0003065273,3,1
0.0003537269,-0.0003596847,3,1
0.0003710679,-0.0003997148,3,1
0.0003613439,-0.0004287245,3,1
0.000334117,-0.0004501171,3,1
0.000307052,-0.0004627582,3,1
0.0002944109,-0.0004682684,3,1
0.000302028,-0.0004634065,3,1
0.0003237448,-0.0004467137,3,1
0.000346596,-0.0004215936,3,1
0.0003606957,-0.0003935563,3,1
0.0003593992,-0.0003650328,3,1
0.0003399513,-0.0003376438,3,1
0.0003052694,-0.0003091203,3,1
0.0002626462,-0.0002765452,3,1
0.0002218057,-0.0002399184,3,1
0.0001869616,-0.0001979435,3,1
0.0001590864,-0.000156941,3,1
0.00013818,-0.0001238797,3,1
0.0001205148,-0.000102325,3,1
0.0001018773,-9.438378e-05,3,1
8.259155e-05,-9.875954e-05,3,1
6.914012e-05,-0.0001076731,3,1
7.108491e-05,-0.0001157764,3,1
9.020862e-05,-0.0001164247,3,1
0.0001235941,-0.0001071869,3,1
0.0001592484,-9.130454e-05,3,1
0.0001825859,-7.461182e-05,3,1
0.0001832341,-5.532604e-05,3,1
0.0001592484,-3.279896e-05,3,1
0.000113546,-1.221667e-05,3,1
6.200925e-05,2.04508e-06,3,1
2.278944e-05,5.772582e-06,3,1
5.934648e-06,-2.654814e-06,3,1
3.827799e-06,-1.99958e-05,3,1
1.072688e-06,-3.782299e-05,3,1
-8.165035e-06,-4.511593e-05,3,1
-1.707863e-05,-3.425755e-05,3,1
-1.886135e-05,-7.030578e-06,3,1
-1.578211e-05,2.992031e-05,3,1
-2.550602e-05,6.476436e-05,3,1
-5.808115e-05,9.037068e-05,3,1
-9.989401e-05,0.0001069013,3,1
-0.0001318209,0.000118408,3,1
-0.0001522411,0.0001269974,3,1
-0.0001763888,0.0001299146,3,1
-0.0002180396,0.000125863,3,1
-0.0002752487,0.0001187321,3,1
-0.0003292164,0.0001112771,3,1
-0.0003587123,0.000103498,3,1
-0.0003488263,9.037068e-05,3,1
-0.0003006929,7.221937e-05,3,1
-0.0002311669,5.1475e-05,3,1
-0.0001677994,3.478228e-05,3,1
-0.0001314967,3.024445e-05,3,1
-0.0001229073,3.721326e-05,3,1
-0.0001248521,4.790957e-05,3,1
-0.000114804,4.855783e-05,3,1
-8.384954e-05,3.591673e-05,3,1
-4.560212e-05,1.614476e-05,3,1
-3.328516e-05,-5.085794e-06,3,1
-6.926366e-05,-2.161646e-05,3,1
-0.0001431655,-3.26369e-05,3,1
-0.0002225774,-3.441962e-05,3,1
-0.0002731418,-2.988179e-05,3,1
-0.0002793003,-2.46957e-05,3,1
-0.0002429977,-2.291298e-05,3,1
-0.0001807646,-2.550602e-05,3,1
-0.0001161005,-3.247483e-05,3,1
-6.731888e-05,-3.928157e-05,3,1
-4.106429e-05,-4.414354e-05,3,1
-2.907146e-05,-4.80331e-05,3,1
-1.821308e-05,-5.386745e-05,3,1
-6.868513e-06,-6.083626e-05,3,1
6.258778e-06,-6.699475e-05,3,1
1.9224e-05,-7.363943e-05,3,1
3.024445e-05,-8.222889e-05,3,1
3.575467e-05,-9.081835e-05,3,1
3.380988e-05,-0.0001005423,3,1
2.311357e-05,-0.0001136696,3,1
1.072688e-06,-0.0001357104,3,1
-2.566809e-05,-0.0001734716,3,1
-3.733679e-05,-0.000223874,3,1
-1.480971e-05,-0.0002802727,3,1
4.369587e-05,-0.0003345645,3,1
0.0001193804,-0.0003822118,3,1
0.0001887444,-0.0004235384,3,1
0.0002357433,-0.0004575721,3,1
0.0002513016,-0.0004783165,3,1
0.0002404432,-0.0004838267,3,1
0.0002171058,-0.0004755614,3,1
0.0001944166,-0.0004541688,3,1
0.0001851789,-0.0004167317,3,1
0.0001905271,-0.0003591985,3,1
0.0002020337,-0.0002791382,3,1
0.0002104611,-0.0001736337,3,1
0.000215161,-4.284701e-05,3,1
0.0002229401,0.0001104668,3,1
0.0002420638,0.0002812837,3,1
0.0002688046,0.000468145,3,1
0.0002916559,0.000668782,3,1
0.0003012177,0.0008750914,3,1
0.0002961937,0.001074918,3,1
0.0002832284,0.001244277,3,1
0.0002692908,0.001361936,3,1
0.0002585945,0.001414932,3,1
0.0002504913,0.001399211,3,1
0.0002406053,0.00131283,3,1
0.0002260194,0.001158706,3,1
0.0002039785,0.0009488311,3,1
0.0001782101,0.0007115673,3,1
0.00015309,0.0004796517,3,1
0.0001347766,0.0002807975,3,1
0.0001273216,0.0001287802,3,1
0.0001260251,2.586868e-05,3,1
0.000113546,-3.587821e-05,3,1
7.173317e-05,-6.780507e-05,3,1
-9.137427e-06,-8.206682e-05,3,1
-0.0001167488,-8.984595e-05,3,1
-0.0002345703,-9.568031e-05,3,1
-0.0003454229,-9.746302e-05,3,1
-0.0004390967,-9.713889e-05,3,1
-0.0005061917,-9.843541e-05,3,1
-0.0005326084,-0.0001011905,3,1
-0.0005016539,-0.0001007043,3,1
-0.0004040906,-9.114248e-05,3,1
-0.000256287,-7.299116e-05,3,1
-9.762509e-05,-5.046408e-05,3,1
3.348575e-05,-3.004385e-05,3,1
0.0001255389,-1.270286e-05,3,1
0.000192796,9.500085e-06,3,1
0.0002503292,4.871989e-05,3,1
0.0002950592,0.0001043083,3,1
0.0003101313,0.0001608691,3,1
0.0002833905,0.0001971717,3,1
0.000220023,0.0001984683,3,1
0.0001355869,0.0001634622,3,1
4.855783e-05,0.0001038221,3,1
-2.453363e-05,3.705119e-05,3,1
-7.363943e-05,-2.031993e-05,3,1
-9.762509e-05,-6.456377e-05,3,1
-0.0001071869,-9.697683e-05,3,1
-0.0001138316,-0.0001217728,3,1
-0.0001211246,-0.0001464067,3,1
-0.0001233935,-0.0001775233,3,1
-0.0001165867,-0.0002104225,3,1
-0.0001054042,-0.0002357047,3,1
-9.260107e-05,-0.0002455907,3,1
-7.785312e-05,-0.0002382978,3,1
-5.872941e-05,-0.0002178775,3,1
-3.522994e-05,-0.0001908126,3,1
-1.270286e-05,-0.0001660166,3,1
1.558884e-06,-0.0001499722,3,1
3.179537e-06,-0.0001431655,3,1
-1.270286e-05,-0.000137007,3,1
-4.236082e-05,-0.0001280934,3,1
-7.088431e-05,-0.0001201522,3,1
-8.174268e-05,-0.0001214487,3,1
-7.444975e-05,-0.0001300382,3,1
-6.310517e-05,-0.0001381414,3,1
-6.051213e-05,-0.0001394379,3,1
-7.072225e-05,-0.0001332795,3,1
-8.773911e-05,-0.0001263107,3,1
-0.0001010285,-0.0001253383,3,1
-9.908367e-05,-0.0001332795,3,1
-7.704279e-05,-0.0001502963,3,1
-3.847125e-05,-0.0001734716,3,1
1.419998e-05,-0.0002005366,3,1
7.497447e-05,-0.0002308428,3,1
0.0001268354,-0.000261311,3,1
0.000155683,-0.0002882139,3,1
0.000163138,-0.0003026377,3,1
0.0001603829,-0.0003005308,3,1
0.0001613553,-0.0002838381,3,1
0.0001692965,-0.0002567732,3,1
0.0001773998,-0.0002246843,3,1
0.0001751309,-0.0001945401,3,1
0.0001513072,-0.0001666649,3,1
0.0001088461,-0.0001410586,3,1
6.638502e-05,-0.0001164247,3,1
4.466826e-05,-9.146661e-05,3,1
5.082674e-05,-7.088431e-05,3,1
7.643307e-05,-5.840528e-05,3,1
0.0001096565,-5.64605e-05,3,1
0.0001375317,-6.618442e-05,3,1
0.0001467694,-8.125649e-05,3,1
0.0001286181,-9.098041e-05,3,1
8.956036e-05,-8.498399e-05,3,1
4.904402e-05,-6.48879e-05,3,1
2.408596e-05,-4.106429e-05,3,1
1.744129e-05,-2.777494e-05,3,1
2.214118e-05,-3.782299e-05,3,1
2.959619e-05,-7.704279e-05,3,1
3.348575e-05,-0.0001447861,3,1
3.218923e-05,-0.000226467,3,1
2.457216e-05,-0.0003044204,3,1
6.096713e-06,-0.000362926,3,1
-3.150244e-05,-0.0003890185,3,1
-9.276313e-05,-0.0003711913,3,1
-0.0001700683,-0.0003096065,3,1
-0.0002457528,-0.000208964,3,1
-0.000303286,-7.931171e-05,3,1
-0.0003290543,6.265751e-05,3,1
-0.0003086341,0.000200413,3,1
-0.0002301945,0.0003232586,3,1
-9.486997e-05,0.0004287631,3,1
7.173317e-05,0.0005256782,3,1
0.0002209954,0.0006211348,3,1
0.0002992729,0.0007149707,3,1
0.0002801492,0.0008032963,3,1
0.0001806411,0.0008783326,3,1
4.871989e-05,0.0009387831,3,1
-7.33153e-05,0.0009932371,3,1
-0.0001653684,0.001046881,3,1
-0.000231329,0.001092907,3,1
-0.0002771934,0.00111349,3,1
-0.0003036101,0.001087073,3,1
-0.0003084721,0.0009998818,3,1
-0.0002869174,0.0008478644,3,1
-0.0002358668,0.0006387999,3,1
-0.0001582375,0.0004005638,3,1
-7.574627e-05,0.0001712413,3,1
-2.307504e-05,-1.756482e-05,3,1
-2.064406e-05,-0.0001538618,3,1
-6.035007e-05,-0.0002405667,3,1
-0.0001143178,-0.0002898345,3,1
-0.0001532135,-0.0003172236,3,1
-0.0001656925,-0.000333106,3,1
-0.0001587237,-0.0003425058,3,1
-0.0001486757,-0.0003442885,3,1
-0.0001415448,-0.0003426678,3,1
-0.0001340898,-0.0003389403,3,1
-0.0001229073,-0.0003360231,3,1
-0.0001096179,-0.0003290543,3,1
-9.503204e-05,-0.0003159271,3,1
-8.044617e-05,-0.0003027998,3,1
-6.407757e-05,-0.0002993964,3,1
-4.284701e-05,-0.0003086341,3,1
-1.772689e-05,-0.0003238683,3,1
7.393236e-06,-0.0003352128,3,1
3.429608e-05,-0.0003408851,3,1
6.962632e-05,-0.0003402368,3,1
0.0001190562,-0.0003347266,3,1
0.0001777239,-0.0003224097,3,1
0.0002286124,-0.0003021515,3,1
0.0002530843,-0.0002771934,3,1
0.0002451431,-0.0002556388,3,1
0.0002122438,-0.0002407288,3,1
0.0001688103,-0.0002323013,3,1
0.0001279698,-0.0002284118,3,1
9.798775e-05,-0.0002284118,3,1
8.372601e-05,-0.0002331117,3,1
8.761557e-05,-0.0002386219,3,1
0.0001057669,-0.0002418632,3,1
0.0001325077,-0.0002400805,3,1
0.000160707,-0.0002326255,3,1
0.0001892305,-0.0002173914,3,1
0.000220023,-0.000191623,3,1
0.0002551911,-0.0001541859,3,1
0.0002887387,-0.0001104282,3,1
0.0003089969,-6.942573e-05,3,1
0.0003049452,-3.571614e-05,3,1
0.0002715597,-8.975362e-06,3,1
0.0002057612,1.54965e-05,3,1
0.0001188942,4.158902e-05,3,1
2.716521e-05,6.800567e-05,3,1
-4.754691e-05,9.037068e-05,3,1
-8.709085e-05,0.0001057669,3,1
-8.482193e-05,0.0001114392,3,1
-4.770897e-05,0.000108522,3,1
4.313994e-06,0.0001015532,3,1
5.471631e-05,9.928428e-05,3,1
9.571884e-05,0.0001086841,3,1
0.0001273216,0.0001336421,3,1
0.0001511452,0.0001636242,3,1
0.0001676758,0.0001867996,3,1
0.0001759412,0.0001970097,3,1
0.0001741585,0.0001939304,3,1
0.0001626518,0.0001846927,3,1
0.000148228,0.0001752929,3,1
0.0001336421,0.0001671896,3,1
0.0001175977,0.0001600588,3,1
9.977047e-05,0.0001566554,3,1
8.550872e-05,0.0001495245,3,1
7.238143e-05,0.0001312112,3,1
4.402e-05,9.960841e-05,3,1
-1.416145e-05,6.087479e-05,3,1
-9.811128e-05,2.473423e-05,3,1
-0.0001835197,1.396819e-06,3,1
-0.0002467252,-6.220252e-06,3,1
-0.0002749245,4.244267e-07,3,1
-0.0002708729,1.825161e-05,3,1
-0.0002455907,4.110282e-05,3,1
-0.000216419,6.557468e-05,3,1
-0.0001974573,8.761557e-05,3,1
-0.0001981056,0.0001013911,3,1
-0.0002125294,0.0001028497,3,1
-0.0002335979,9.21534e-05,3,1
-0.0002545043,7.691926e-05,3,1
-0.0002694143,6.362991e-05,3,1
-0.0002705488,5.293359e-05,3,1
-0.0002515871,3.98063e-05,3,1
-0.0002152845,1.889987e-05,3,1
-0.0001746061,-8.002969e-06,3,1
-0.0001383035,-3.279896e-05,3,1
-0.0001041077,-5.402952e-05,3,1
-6.81292e-05,-7.266703e-05,3,1
-3.134038e-05,-8.628052e-05,3,1
-3.14101e-06,-9.19528e-05,3,1
5.86492e-07,-8.498399e-05,3,1
-3.506788e-05,-6.553616e-05,3,1
-0.0001105903,-3.733679e-05,3,1
-0.0002010227,-9.299493e-06,3,1
-0.0002682799,9.986281e-06,3,1
-0.0002849726,2.01964e-05,3,1
-0.0002498044,2.732727e-05,3,1
-0.0001869231,3.624086e-05,3,1
-0.00012469,5.017848e-05,3,1
-7.623246e-05,7.351589e-05,3,1
-3.652646e-05,0.0001046324,3,1
8.203562e-06,0.0001430419,3,1
6.168512e-05,0.0001824238,3,1
0.0001167873,0.0002107852,3,1
0.0001707551,0.0002149989,3,1
0.0002221298,0.0001871237,3,1
0.000267184,0.0001286181,3,1
0.0002950592,5.455425e-05,3,1
0.0002877662,-2.0482e-05,3,1
0.0002433604,-8.158062e-05,3,1
0.0001793446,-0.0001138316,3,1
0.0001222976,-0.0001152902,3,1
9.458438e-05,-9.065628e-05,3,1
0.0001073875,-5.419158e-05,3,1
0.0001564933,-1.513384e-05,3,1
0.0002269918,2.748934e-05,3,1
0.0002965178,8.323981e-05,3,1
0.0003404375,0.0001637863,3,1
0.0003394651,0.0002715597,3,1
0.000297004,0.0003942432,3,1
0.0002323399,0.0005107683,3,1
0.0001673517,0.0005979594,3,1
0.0001216493,0.0006396103,3,1
0.0001054428,0.0006306967,3,1
0.0001150046,0.0005760806,3,1
0.0001388282,0.0004898618,3,1
0.0001564933,0.0003953777,3,1
0.0001547106,0.0003146691,3,1
0.0001360731,0.0002600531,3,1
0.0001153287,0.0002381743,3,1
0.0001073875,0.0002414156,3,1
0.0001143563,0.0002517878,3,1
0.0001299146,0.0002451431,3,1
0.000145635,0.0002038164,3,1
0.000155683,0.0001260251,3,1
0.0001568175,2.489629e-05,3,1
0.0001430419,-7.850138e-05,3,1
0.0001062531,-0.0001611547,3,1
4.564065e-05,-0.0002081536,3,1
-2.777494e-05,-0.0002188499,3,1
-0.0001020008,-0.0002028055,3,1
-0.000166989,-0.0001762268,3,1
-0.0002136638,-0.0001525652,3,1
-0.0002327876,-0.0001396,3,1
-0.0002138259,-0.0001394379,3,1
-0.0001536997,-0.0001485136,3,1
-5.856735e-05,-0.0001609926,3,1
5.860588e-05,-0.0001689338,3,1
0.0001702689,-0.0001677994,3,1
0.00024255,-0.0001574272,3,1
0.0002558394,-0.0001389517,3,1
0.0002174299,-0.0001162626,3,1
0.000153252,-9.227693e-05,3,1
8.891209e-05,-7.266703e-05,3,1
4.72613e-05,-5.840528e-05,3,1
3.834771e-05,-4.398147e-05,3,1
5.633696e-05,-2.291298e-05,3,1
7.999851e-05,-2.238346e-07,3,1
8.550872e-05,1.112074e-05,3,1
5.828175e-05,4.244267e-07,3,1
9.106227e-07,-3.587821e-05,3,1
-7.444975e-05,-9.66527e-05,3,1
-0.0001533756,-0.0001737958,3,1
-0.000221443,-0.0002527216,3,1
-0.0002643903,-0.0003165753,3,1
-0.0002755728,-0.0003564434,3,1
-0.0002574215,-0.0003716775,3,1
-0.000221443,-0.0003663294,3,1
-0.0001851404,-0.0003507711,3,1
-0.0001608306,-0.0003387782,3,1
-0.0001572651,-0.0003361852,3,1
-0.0001750923,-0.0003410472,3,1
-0.0001989159,-0.0003497987,3,1
-0.0002084778,-0.0003570916,3,1
-0.0001922712,-0.0003590364,3,1
-0.0001558065,-0.0003549848,3,1
-0.0001152902,-0.0003476919,3,1
-8.82253e-05,-0.0003449367,3,1
-8.838737e-05,-0.0003465574,3,1
-0.0001183694,-0.000348016,3,1
-0.0001686097,-0.0003457471,3,1
-0.0002173914,-0.0003386162,3,1
-0.0002442942,-0.0003259751,3,1
-0.0002391081,-0.0003070135,3,1
-0.0002005366,-0.0002874036,3,1
-0.0001349001,-0.0002689281,3,1
-5.419158e-05,-0.0002468872,3,1
2.489629e-05,-0.0002188499,3,1
8.599492e-05,-0.0001820611,3,1
0.000118408,-0.0001373311,3,1
0.000121001,-8.82253e-05,3,1
9.977047e-05,-3.879538e-05,3,1
7.254349e-05,3.341602e-06,3,1
5.844381e-05,4.110282e-05,3,1
6.719535e-05,7.935024e-05,3,1
8.972242e-05,0.0001216493,3,1
0.0001116012,0.0001663793,3,1
0.0001177597,0.0002115956,3,1
0.0001009049,0.0002525981,3,1
6.719535e-05,0.0002840388,3,1
3.056858e-05,0.0002999212,3,1
4.151929e-06,0.0002999212,3,1
-1.075808e-05,0.0002856594,3,1
-1.335113e-05,0.0002629703,3,1
4.962256e-06,0.0002417397,3,1
6.136099e-05,0.0002316917,3,1
0.0001589243,0.0002376881,3,1
0.0002709115,0.0002619979,3,1
0.0003553475,0.0002955454,3,1
0.000383709,0.0003271482,3,1
0.0003521062,0.0003467581,3,1
0.00027707,0.0003478926,3,1
0.0001833962,0.0003326584,3,1
9.085688e-05,0.0003104554,3,1
4.47606e-06,0.0002910076,3,1
-7.720486e-05,0.000279663,3,1
-0.0001616409,0.0002762596,3,1
-0.0002433218,0.0002769079,3,1
-0.0003039342,0.0002754493,3,1
-0.0003206269,0.000267184,3,1
-0.0002752487,0.0002542187,3,1
-0.0001665028,0.0002414156,3,1
-2.356124e-05,0.0002310434,3,1
0.0001057669,0.0002205092,3,1
0.0001816135,0.0002068957,3,1
0.0001923098,0.0001885823,3,1
0.0001594105,0.000170431,3,1
0.0001163011,0.0001540623,3,1
8.307774e-05,0.000143204,3,1
6.281957e-05,0.0001385041,3,1
5.131294e-05,0.0001391524,3,1
4.515445e-05,0.0001406109,3,1
3.883391e-05,0.0001365593,3,1
2.635488e-05,0.0001257009,3,1
5.934648e-06,0.0001081979,3,1
-1.902341e-05,8.907416e-05,3,1
-4.05781e-05,6.930219e-05,3,1
-5.59743e-05,5.115087e-05,3,1
-6.375344e-05,3.494434e-05,3,1
-6.569822e-05,2.246531e-05,3,1
-6.81292e-05,1.274139e-05,3,1
-6.926366e-05,1.234753e-06,3,1
-7.023606e-05,-1.67545e-05,3,1
-7.509801e-05,-4.203669e-05,3,1
-9.017008e-05,-7.250496e-05,3,1
-0.0001154523,-0.0001013526,3,1
-0.0001439758,-0.0001229073,3,1
-0.0001679614,-0.000137007,3,1
-0.0001880575,-0.000147055,3,1
-0.0002032917,-0.000159372,3,1
-0.0002092881,-0.0001757406,3,1
-0.000199078,-0.0001877334,3,1
-0.0001682856,-0.0001888679,3,1
-0.0001169109,-0.0001770371,3,1
-5.22468e-05,-0.0001548341,3,1
1.663096e-05,-0.0001313347,3,1
8.84259e-05,-0.0001136696,3,1
0.0001662173,-0.0001058904,3,1
0.0002448189,-0.0001011905,3,1
0.0003080245,-9.503204e-05,3,1
0.0003320101,-8.919769e-05,3,1
0.000304297,-8.644259e-05,3,1
0.000235095,-9.211487e-05,3,1
0.0001446626,-0.0001133454,3,1
5.325772e-05,-0.0001481895,3,1
-2.46957e-05,-0.0001877334,3,1
-7.995997e-05,-0.0002182017,3,1
-0.0001036215,-0.0002335979,3,1
-9.973194e-05,-0.0002300324,3,1
-7.072225e-05,-0.0002081536,3,1
-1.578211e-05,-0.0001791439,3,1
6.395404e-05,-0.0001543479,3,1
0.0001522796,-0.0001426792,3,1
0.0002075439,-0.0001441378,3,1
0.000187934,-0.0001467309,3,1
9.474644e-05,-0.000137169,3,1
-2.501983e-05,-0.0001071869,3,1
-9.973194e-05,-5.872941e-05,3,1
-7.947377e-05,1.234753e-06,3,1
3.55926e-05,6.768154e-05,3,1
0.0002015475,0.0001401247,3,1
0.0003644232,0.0002179161,3,1
0.0004835413,0.0002950592,3,1
0.0005352402,0.0003602095,3,1
0.0005216266,0.0004029947,3,1
0.0004636072,0.0004198496,3,1
0.0003885709,0.0004117463,3,1
0.0003198552,0.0003819262,3,1
0.0002701012,0.0003378445,3,1
0.0002376881,0.0002934386,3,1
0.0002140265,0.0002660495,3,1
0.0001916615,0.0002581083,3,1
0.0001691344,0.0002574601,3,1
0.0001446626,0.0002514636,3,1
0.0001197045,0.0002412535,3,1
9.555677e-05,0.0002368777,3,1
6.670914e-05,0.0002435224,3,1
2.732727e-05,0.0002540567,3,1
-2.323711e-05,0.0002582704,3,1
-8.125649e-05,0.0002516257,3,1
-0.0001410586,0.0002380122,3,1
-0.0001977815,0.0002242366,3,1
-0.0002483458,0.0002162954,3,1
-0.0002888622,0.0002174299,3,1
-0.0003173856,0.0002292607,3,1
-0.0003274337,0.0002547049,3,1
-0.000310903,0.0002948972,3,1
-0.000268766,0.0003475684,3,1
-0.0002096122,0.0004018603,3,1
-0.0001502963,0.0004344354,3,1
-0.0001062146,0.0004224426,3,1
-8.628052e-05,0.0003581026,3,1
-9.130454e-05,0.0002529222,3,1
-0.0001167488,0.0001227837,3,1
-0.0001575893,-8.975362e-06,3,1
-0.0002062088,-0.000122097,3,1
-0.0002452666,-0.0002028055,3,1
-0.0002527216,-0.0002454286,3,1
-0.0002136638,-0.0002548284,3,1
-0.0001386276,-0.0002423494,3,1
-6.06742e-05,-0.0002177155,3,1
-1.124428e-05,-0.0001959987,3,1
2.04508e-06,-0.0001956746,3,1
-1.351319e-05,-0.0002282497,3,1
-4.187462e-05,-0.0002856209,3,1
-6.602235e-05,-0.0003460712,3,1
-7.137051e-05,-0.0003930701,3,1
-5.419158e-05,-0.0004211074,3,1
-2.323711e-05,-0.0004378002,3,1
5.610517e-06,-0.0004562756,3,1
2.278944e-05,-0.000484475,3,1
2.748934e-05,-0.0005222362,3,1
2.003433e-05,-0.0005593491,3,1
2.207145e-06,-0.0005851175,3,1
-2.971972e-05,-0.0005948414,3,1
-7.363943e-05,-0.0005903036,3,1
-0.0001165867,-0.0005726385,3,1
-0.0001423551,-0.000541684,3,1
-0.0001418689,-0.0004993849,3,1
-0.0001180453,-0.0004509274,3,1
-8.384954e-05,-0.0004061974,3,1
-5.775702e-05,-0.0003656811,3,1
-5.111234e-05,-0.0003227338,3,1
-6.164659e-05,-0.0002632558,3,1
-7.23429e-05,-0.0001695821,3,1
-6.051213e-05,-3.377136e-05,3,1
-1.399939e-05,0.0001380179,3,1
6.265751e-05,0.0003208276,3,1
0.0001474177,0.0004781931,3,1
0.0002119197,0.0005694359,3,1
0.0002407673,0.0005736496,3,1
0.0002388225,0.000500234,3,1
0.0002169437,0.0003793332,3,1
0.0001851789,0.0002443328,3,1
0.0001529279,0.0001167873,3,1
0.0001245665,9.175954e-06,3,1
9.847395e-05,-6.375344e-05,3,1
7.157111e-05,-9.584238e-05,3,1
3.672706e-05,-8.952183e-05,3,1
-1.562004e-05,-5.775702e-05,3,1
-8.336335e-05,-1.594417e-05,3,1
-0.000152079,2.327564e-05,3,1
-0.0001984297,5.876794e-05,3,1
-0.0002010227,0.000103498,3,1
-0.0001489998,0.0001744826,3,1
-4.187462e-05,0.0002709115,3,1
0.0001041462,0.0003699334,3,1
0.000267346,0.0004384871,3,1
0.0004188772,0.0004577728,3,1
0.0005302161,0.0004305459,3,1
0.0005791598,0.0003760919,3,1
0.0005582534,0.0003133726,3,1
0.0004793275,0.0002595669,3,1
0.0003712299,0.0002243987,3,1
0.0002636185,0.0002073819,3,1
0.0001788584,0.0002051129,3,1
0.0001226217,0.0002114335,3,1
8.875003e-05,0.0002182402,3,1
6.995045e-05,0.0002185644,3,1
5.504044e-05,0.0002075439,3,1
3.575467e-05,0.0001803169,3,1
1.792748e-05,0.0001388282,3,1
3.179537e-06,9.199134e-05,3,1
-1.707863e-05,4.612685e-05,3,1
-5.046408e-05,1.234753e-06,3,1
-9.470791e-05,-4.787104e-05,3,1
-0.0001433275,-0.000104918,3,1
-0.0001925954,-0.0001663408,3,1
-0.0002376495,-0.000224036,3,1
-0.0002731418,-0.0002728177,3,1
-0.0002945344,-0.0003097686,3,1
-0.000301017,-0.0003348887,3,1
-0.0002979378,-0.0003489884,3,1
-0.0002927517,-0.0003536883,3,1
-0.0002817312,-0.0003463953,3,1
-0.0002577456,-0.000325813,3,1
-0.000221605,-0.0002927517,3,1
-0.0001830335,-0.0002473734,3,1
-0.0001522411,-0.0001904885,3,1
-0.0001318209,-0.0001250141,3,1
-0.0001240417,-5.451572e-05,3,1
-0.0001310105,1.468618e-05,3,1
-0.0001488377,7.092284e-05,3,1
-0.0001652063,0.0001046324,3,1
-0.000171851,0.0001132219,3,1
-0.0001609926,0.0001018773,3,1
-0.0001353863,8.242948e-05,3,1
-0.0001020008,6.962632e-05,3,1
-6.634648e-05,7.286763e-05,3,1
-3.182657e-05,8.988449e-05,3,1
-5.479652e-07,0.000115977,3,1
2.311357e-05,0.0001495245,3,1
3.429608e-05,0.0001902029,3,1
2.797553e-05,0.0002326641,3,1
7.555301e-06,0.0002713977,3,1
-1.464765e-05,0.000302028,3,1
-2.583016e-05,0.0003240689,3,1
-1.399939e-05,0.0003349273,3,1
1.825161e-05,0.0003260137,3,1
5.730935e-05,0.0002961937,3,1
8.550872e-05,0.0002472499,3,1
9.247754e-05,0.0001795066,3,1
7.951231e-05,9.620504e-05,3,1
5.666109e-05,6.096713e-06,3,1
3.850978e-05,-8.255302e-05,3,1
3.478228e-05,-0.0001609926,3,1
3.98063e-05,-0.0002272773,3,1
5.293359e-05,-0.0002830278,3,1
7.805372e-05,-0.0003305129,3,1
0.0001239182,-0.0003642225,3,1
0.0001872858,-0.0003796187,3,1
0.0002530843,-0.0003749188,3,1
0.0002968419,-0.0003583881,3,1
0.000299435,-0.0003394265,3,1
0.0002632944,-0.0003266234,3,1
0.0002080301,-0.0003178718,3,1
0.0001573037,-0.0003091203,3,1
0.0001185701,-0.0002995585,3,1
8.761557e-05,-0.0002911311,3,1
5.99024e-05,-0.0002833519,3,1
2.862379e-05,-0.0002677937,3,1
-9.947754e-06,-0.0002407288,3,1
-4.981582e-05,-0.0002037779,3,1
-8.287715e-05,-0.0001616409,3,1
-9.519411e-05,-0.0001162626,3,1
-7.65566e-05,-6.715681e-05,3,1
-2.501983e-05,-1.399939e-05,3,1
5.050261e-05,4.013043e-05,3,1
0.0001360731,8.875003e-05,3,1
0.0002245608,0.0001329939,3,1
0.0003106175,0.0001770756,3,1
0.0003835469,0.0002214815,3,1
0.0004214702,0.0002678322,3,1
0.0004039671,0.0003156415,3,1
0.0003308757,0.0003593992,3,1
0.0002184023,0.0003929467,3,1
8.907416e-05,0.000413529,3,1
-3.539201e-05,0.0004217943,3,1
-0.0001337657,0.0004243874,3,1
-0.0001921092,0.0004286011,3,1
-0.0002151224,0.0004415663,3,1
-0.000219012,0.0004657141,3,1
-0.0002178775,0.0004995857,3,1
-0.0002100984,0.0005336195,3,1
-0.0001912988,0.0005551741,3,1
-0.0001645581,0.0005517708,3,1
-0.0001412206,0.0005146578,3,1
-0.000127121,0.0004493454,3,1
-0.0001141558,0.0003675024,3,1
-9.470791e-05,0.0002801492,3,1
-7.104638e-05,0.0001979821,3,1
-5.662256e-05,0.0001273216,3,1
-6.0188e-05,6.751948e-05,3,1
-7.688073e-05,1.565857e-05,3,1
-9.730096e-05,-2.923353e-05,3,1
-0.0001118868,-6.164659e-05,3,1
-0.0001101041,-7.963584e-05,3,1
-9.000802e-05,-8.757704e-05,3,1
-5.500191e-05,-9.405965e-05,3,1
-1.513384e-05,-0.0001013526,3,1
1.403791e-05,-0.0001104282,3,1
1.938607e-05,-0.0001190177,3,1
-1.196227e-06,-0.000127283,3,1
-3.879538e-05,-0.0001386276,3,1
-7.817725e-05,-0.0001540238,3,1
-0.000104756,-0.0001705545,3,1
-0.0001094559,-0.0001828714,3,1
-9.649064e-05,-0.0001914609,3,1
-7.769106e-05,-0.000201671,3,1
-5.662256e-05,-0.0002131776,3,1
-3.150244e-05,-0.0002248464,3,1
-8.651231e-06,-0.0002318152,3,1
2.369211e-06,-0.0002342462,3,1
-7.354709e-06,-0.0002384598,3,1
-3.652646e-05,-0.0002489941,3,1
-7.18567e-05,-0.0002634179,3,1
-9.697683e-05,-0.0002733039,3,1
-9.924574e-05,-0.0002746004,3,1
-7.817725e-05,-0.0002708729,3,1
-4.155049e-05,-0.0002705488,3,1
-1.520357e-06,-0.0002788141,3,1
3.202716e-05,-0.0002977757,3,1
6.103686e-05,-0.0003272716,3,1
9.053275e-05,-0.0003669776,3,1
0.000115977,-0.0004157593,3,1
0.0001278078,-0.0004681064,3,1
0.0001231079,-0.000514457,3,1
0.000108522,-0.0005450874,3,1
8.777764e-05,-0.0005543251,3,1
6.200925e-05,-0.0005436288,3,1
3.526847e-05,-0.00052175,3,1
1.241726e-05,-0.0004963057,3,1
-5.479652e-07,-0.0004624341,3,1
-1.034161e-06,-0.0004117076,3,1
1.59827e-05,-0.0003399127,3,1
5.471631e-05,-0.0002489941,3,1
0.0001049566,-0.0001501342,3,1
0.0001477418,-5.192267e-05,3,1
0.0001639484,3.656499e-05,3,1
0.0001514693,0.0001080358,3,1
0.0001266733,0.0001611932,3,1
0.000111115,0.0002057612,3,1
0.0001252147,0.0002629703,3,1
0.000170431,0.0003499994,3,1
0.0002362295,0.0004670106,3,1
0.0003031625,0.000606711,3,1
0.0003480546,0.0007580801,3,1
0.0003556717,0.0009147974,3,1
0.0003279585,0.001070866,3,1
0.0002777182,0.001214133,3,1
0.0002167816,0.001324823,3,1
0.0001498487,0.001383005,3,1
7.821578e-05,0.001373443,3,1
9.175954e-06,0.001289331,3,1
-4.236082e-05,0.001137638,3,1
-6.213279e-05,0.0009455899,3,1
-4.997789e-05,0.0007485182,3,1
-2.291298e-05,0.0005814288,3,1
-1.844488e-06,0.0004602039,3,1
9.106227e-07,0.0003820883,3,1
-8.327101e-06,0.0003326584,3,1
-2.031993e-05,0.0002974902,3,1
-2.647842e-05,0.0002666978,3,1
-2.372331e-05,0.0002359054,3,1
-1.918548e-05,0.000200251,3,1
-2.761287e-05,0.0001568175,3,1
-5.678463e-05,0.0001038221,3,1
-0.0001045939,4.661304e-05,3,1
-0.0001632615,-9.623623e-06,3,1
-0.0002178775,-5.953974e-05,3,1
-0.0002546664,-0.0001032974,3,1
-0.0002622834,-0.0001452723,3,1
-0.0002357047,-0.0001853024,3,1
-0.0001851404,-0.0002243602,3,1
-0.0001327933,-0.0002614731,3,1
-9.811128e-05,-0.0002925897,3,1
-8.757704e-05,-0.0003138202,3,1
-9.19528e-05,-0.0003251648,3,1
-9.649064e-05,-0.0003345645,3,1
-9.081835e-05,-0.0003486642,3,1
-7.299116e-05,-0.0003689224,3,1
-4.511593e-05,-0.0003891806,3,1
-1.25408e-05,-0.0004086284,3,1
1.274139e-05,-0.0004262935,3,1
1.825161e-05,-0.0004415277,3,1
-2.654814e-06,-0.0004538446,3,1
-4.560212e-05,-0.00046211,3,1
-0.0001020008,-0.0004656754,3,1
-0.0001582375,-0.0004640547,3,1
-0.000201509,-0.0004557894,3,1
-0.0002186879,-0.0004420138,3,1
-0.0002079916,-0.0004288866,3,1
-0.0001762268,-0.0004194868,3,1
-0.0001365208,-0.0004149489,3,1
-9.649064e-05,-0.0004198109,3,1
-5.64605e-05,-0.0004352071,3,1
-1.545797e-05,-0.0004562756,3,1
2.554455e-05,-0.0004744269,3,1
6.962632e-05,-0.0004830164,3,1
0.0001171115,-0.0004825302,3,1
0.0001553589,-0.0004763717,3,1
0.0001645966,-0.0004687546,3,1
0.0001294284,-0.0004627582,3,1
5.504044e-05,-0.0004609755,3,1
-3.717473e-05,-0.0004606514,3,1
-0.0001201522,-0.0004543308,3,1
-0.0001703924,-0.0004360174,3,1
-0.0001703924,-0.0003985804,3,1
-0.0001217728,-0.0003371576,3,1
-4.446767e-05,-0.000253856,3,1
3.154097e-05,-0.0001506204,3,1
8.648112e-05,-3.668853e-05,3,1
0.0001166253,8.161915e-05,3,1
0.0001304008,0.0001996027,3,1
0.0001355869,0.0003177483,3,1
0.0001320215,0.0004412422,3,1
0.0001175977,0.0005681394,3,1
9.474644e-05,0.0006823955,3,1
7.20573e-05,0.0007566215,3,1
5.714729e-05,0.0007710453,3,1
5.163707e-05,0.0007222636,3,1
5.552663e-05,0.000621621,3,1
6.816773e-05,0.0004862963,3,1
9.523264e-05,0.000339303,3,1
0.0001441764,0.0002099749,3,1
0.0002172679,0.0001229458,3,1
0.0002974902,8.891209e-05,3,1
0.000359075,9.68533e-05,3,1
0.0003884089,0.0001276457,3,1
0.0003854917,0.0001582761,3,1
0.000356644,0.0001759412,3,1
0.0003111037,0.0001770756,3,1
0.0002602152,0.0001654069,3,1
0.0002135403,0.0001469315,3,1
0.0001723757,0.0001273216,3,1
0.0001402868,0.000110953,3,1
0.0001229458,9.652917e-05,3,1
0.0001197045,8.145709e-05,3,1
0.0001257009,6.751948e-05,3,1
0.0001300767,5.763349e-05,3,1
0.0001235941,5.082674e-05,3,1
0.0001020394,4.677511e-05,3,1
6.654708e-05,4.645098e-05,3,1
2.943412e-05,4.839576e-05,3,1
6.744974e-06,5.1475e-05,3,1
2.369211e-06,5.649903e-05,3,1
6.258778e-06,6.395404e-05,3,1
7.069105e-06,7.448828e-05,3,1
2.623614e-07,8.583286e-05,3,1
-1.027188e-05,9.344993e-05,3,1
-2.015787e-05,9.474644e-05,3,1
-2.647842e-05,9.377406e-05,3,1
-2.939559e-05,9.507057e-05,3,1
-3.21507e-05,9.977047e-05,3,1
-3.717473e-05,0.0001080358,3,1
-5.289507e-05,0.0001193804,3,1
-8.222889e-05,0.0001315353,3,1
-0.0001240417,0.0001425557,3,1
-0.0001707166,0.0001464453,3,1
-0.0002071812,0.0001425557,3,1
-0.0002266291,0.0001269974,3,1
-0.0002290601,9.928428e-05,3,1
-0.000216419,6.606088e-05,3,1
-0.0001890299,3.445814e-05,3,1
-0.0001480274,6.90704e-06,3,1
-0.0001034594,-1.805102e-05,3,1
-6.877746e-05,-4.025397e-05,3,1
-4.868137e-05,-5.532604e-05,3,1
-3.944364e-05,-6.456377e-05,3,1
-3.198864e-05,-7.007399e-05,3,1
-2.42095e-05,-7.65566e-05,3,1
-2.46957e-05,-8.547019e-05,3,1
-4.738484e-05,-9.827335e-05,3,1
-9.405965e-05,-0.0001170729,3,1
-0.0001452723,-0.0001397621,3,1
-0.0001791439,-0.0001655305,3,1
-0.0001830335,-0.0001888679,3,1
-0.0001681235,-0.0002042641,3,1
-0.0001611547,-0.0002105846,3,1
-0.0001878955,-0.0002130156,3,1
-0.0002559629,-0.0002159328,3,1
-0.0003403989,-0.0002233878,3,1
-0.000402632,-0.0002371633,3,1
-0.0004180282,-0.0002515871,3,1
-0.000382698,-0.0002645523,3,1
-0.0003039342,-0.0002723315,3,1
-0.000199078,-0.0002755728,3,1
-9.033215e-05,-0.0002744383,3,1
1.234753e-06,-0.0002674695,3,1
6.330578e-05,-0.0002540181,3,1
0.0001030118,-0.0002329496,3,1
0.0001351007,-0.000206533,3,1
0.0001670276,-0.0001752544,3,1
0.0001911753,-0.0001324691,3,1
0.0002007372,-7.33153e-05,3,1
0.0001957132,4.244267e-07,3,1
0.0001822617,7.805372e-05,3,1
0.0001675138,0.0001472556,3,1
0.0001553589,0.0001996027,3,1
0.0001474177,0.0002331503,3,1
0.0001483901,0.0002594049,3,1
0.0001568175,0.0002898731,3,1
0.0001615174,0.0003281205,3,1
0.0001561692,0.0003686369,3,1
0.0001423936,0.0004080188,3,1
0.0001276457,0.0004397836,3,1
0.0001201907,0.0004550177,3,1
0.0001227837,0.0004477248,3,1
0.0001281319,0.0004117463,3,1
0.0001289422,0.0003474063,3,1
0.0001316974,0.0002663737,3,1
0.0001508211,0.0001890685,3,1
0.0001845306,0.0001316974,3,1
0.0002196988,9.669123e-05,3,1
0.0002410915,7.967438e-05,3,1
0.0002417397,7.30297e-05,3,1
0.0002279642,7.140904e-05,3,1
0.0002130541,7.238143e-05,3,1
0.0002025199,7.448828e-05,3,1
0.0001919856,7.30297e-05,3,1
0.0001769136,6.298164e-05,3,1
0.000158114,4.612685e-05,3,1
0.0001415833,2.716521e-05,3,1
0.0001347766,1.112074e-05,3,1
0.0001380179,3.179537e-06,3,1
0.0001477418,3.503668e-06,3,1
0.0001535762,1.095867e-05,3,1
0.0001399627,2.635488e-05,3,1
9.63671e-05,4.369587e-05,3,1
3.251336e-05,6.087479e-05,3,1
-3.182657e-05,8.242948e-05,3,1
-8.07703e-05,0.0001137081,3,1
-0.000107349,0.0001511452,3,1
-0.0001138316,0.0001845306,3,1
-0.0001136696,0.0002059233,3,1
-0.0001177212,0.0002119197,3,1
-0.0001331174,0.0002059233,3,1
-0.0001635857,0.0001921477,3,1
-0.0002031296,0.0001723757,3,1
-0.0002391081,0.000145635,3,1
-0.0002619593,0.0001103047,3,1
-0.0002749245,6.849186e-05,3,1
-0.0002831898,2.489629e-05,3,1
-0.0002870794,-1.724069e-05,3,1
-0.0002823795,-5.435365e-05,3,1
-0.0002697385,-8.433573e-05,3,1
-0.0002491561,-0.0001076731,3,1
-0.0002230636,-0.0001230693,3,1
-0.0001959987,-0.0001311726,3,1
-0.0001708786,-0.0001363587,3,1
-0.0001457585,-0.0001404103,3,1
-0.0001167488,-0.000147055,3,1
-9.324933e-05,-0.0001559686,3,1
-8.887356e-05,-0.0001639098,3,1
-0.0001115627,-0.0001724993,3,1
-0.0001566169,-0.0001856265,3,1
-0.0002105846,-0.0002028055,3,1
-0.0002570974,-0.0002188499,3,1
-0.0002825416,-0.0002284118,3,1
-0.0002768693,-0.0002324634,3,1
-0.0002305186,-0.0002293842,3,1
-0.0001511067,-0.0002175534,3,1
-6.035007e-05,-0.0002002124,3,1
1.825161e-05,-0.0001838438,3,1
7.481241e-05,-0.0001771992,3,1
0.0001203528,-0.0001893541,3,1
0.0001731861,-0.0002154466,3,1
0.0002412535,-0.0002446183,3,1
0.0003125623,-0.0002694143,3,1
0.000361506,-0.0002843243,3,1
0.0003712299,-0.0002851347,3,1
0.0003504856,-0.0002723315,3,1
0.0003120761,-0.0002520733,3,1
0.0002650771,-0.0002272773,3,1
0.0002149989,-0.0002006986,3,1
0.0001692965,-0.0001712027,3,1
0.0001365593,-0.0001360346,3,1
0.0001190562,-9.357346e-05,3,1
0.000113546,-4.965376e-05,3,1
0.0001137081,-8.813297e-06,3,1
0.0001125736,2.376183e-05,3,1
0.0001069013,4.807163e-05,3,1
0.00010366,7.286763e-05,3,1
0.0001150046,0.0001026876,3,1
0.0001425557,0.0001399627,3,1
0.0001786963,0.0001832341,3,1
0.0002141886,0.0002303951,3,1
0.0002420638,0.0002840388,3,1
0.0002543808,0.0003440029,3,1
0.0002454672,0.0003994293,3,1
0.0002158093,0.0004337872,3,1
0.0001773998,0.00043087,3,1
0.0001414213,0.0003822504,3,1
0.0001143563,0.0002971661,3,1
9.571884e-05,0.000190365,3,1
8.064677e-05,8.178122e-05,3,1
6.006447e-05,-8.489166e-06,3,1
3.429608e-05,-6.877746e-05,3,1
1.144487e-05,-0.0001010285,3,1
-2.006553e-06,-0.0001143178,3,1
-6.176923e-08,-0.000114804,3,1
1.468618e-05,-0.0001060525,3,1
3.024445e-05,-8.692878e-05,3,1
4.094075e-05,-5.808115e-05,3,1
4.191315e-05,-2.161646e-05,3,1
3.478228e-05,1.679302e-05,3,1
2.34377e-05,4.72613e-05,3,1
1.079661e-05,6.687121e-05,3,1
-5.57199e-06,7.691926e-05,3,1
-2.712668e-05,8.486046e-05,3,1
-5.078821e-05,0.0001028497,3,1
-7.963584e-05,0.0001461212,3,1
-0.0001096179,0.0002218057,3,1
-0.0001373311,0.0003245551,3,1
-0.0001621271,0.0004326527,3,1
-0.000186761,0.0005136854,3,1
-0.0002084778,0.0005381573,3,1
-0.0002248464,0.0004947237,3,1
-0.0002360289,0.0003919743,3,1
-0.000241377,0.0002564877,3,1
-0.0002428356,0.0001235941,3,1
-0.0002412149,2.473423e-05,3,1
-0.0002360289,-2.015787e-05,3,1
-0.0002282497,-4.275467e-06,3,1
-0.0002212809,6.200925e-05,3,1
-0.000221605,0.0001485521,3,1
-0.0002285739,0.000220023,3,1
-0.0002408908,0.000247412,3,1
-0.0002580697,0.0002192126,3,1
-0.0002754107,0.0001430419,3,1
-0.0002804347,4.288554e-05,3,1
-0.0002606628,-5.419158e-05,3,1
-0.0002068571,-0.0001311726,3,1
-0.0001217728,-0.0001781716,3,1
-2.761287e-05,-0.0001948643,3,1
4.969229e-05,-0.0001900023,3,1
9.571884e-05,-0.0001728234,3,1
0.0001138702,-0.0001511067,3,1
0.0001174356,-0.0001276072,3,1
0.0001101427,-0.0001058904,3,1
8.259155e-05,-9.438378e-05,3,1
3.397195e-05,-9.875954e-05,3,1
-2.307504e-05,-0.0001216107,3,1
-7.363943e-05,-0.0001579134,3,1
-9.989401e-05,-0.0002002124,3,1
-9.29252e-05,-0.0002358668,3,1
-6.083626e-05,-0.0002582318,3,1
-1.821308e-05,-0.0002640662,3,1
2.003433e-05,-0.0002561249,3,1
4.693717e-05,-0.0002425115,3,1
6.362991e-05,-0.0002269532,3,1
7.659513e-05,-0.0002122053,3,1
9.182927e-05,-0.0001976194,3,1
0.0001107909,-0.0001812508,3,1
0.0001302388,-0.0001635857,3,1
0.0001435281,-0.000147055,3,1
0.0001438522,-0.0001306864,3,1
0.0001318594,-0.0001138316,3,1
0.0001195424,-9.875954e-05,3,1
0.0001132219,-8.482193e-05,3,1
0.0001128978,-6.974985e-05,3,1
0.0001119254,-5.565017e-05,3,1
0.0001124116,-4.284701e-05,3,1
0.000125863,-2.971972e-05,3,1
0.0001652449,-1.286493e-05,3,1
0.0002312055,1.079661e-05,3,1
0.0003073762,4.466826e-05,3,1
0.0003650715,8.939829e-05,3,1
0.0003801436,0.0001428799,3,1
0.0003422202,0.0002041406,3,1
0.0002607014,0.0002686426,3,1
0.0001624898,0.0003253654,3,1
7.659513e-05,0.0003589129,3,1
2.489629e-05,0.0003619922,3,1
1.160693e-05,0.0003368721,3,1
2.684107e-05,0.0002882525,3,1
5.925414e-05,0.0002261814,3,1
9.669123e-05,0.000168,3,1
0.0001323456,0.0001265113,3,1
0.0001566554,0.0001026876,3,1
0.0001592484,9.490851e-05,3,1
0.0001396385,9.474644e-05,3,1
0.0001052807,9.53947e-05,3,1
7.173317e-05,9.507057e-05,3,1
5.730935e-05,0.0001004187,3,1
6.314371e-05,0.0001166253,3,1
7.384002e-05,0.0001367214,3,1
6.881599e-05,0.0001493625,3,1
3.705119e-05,0.0001436902,3,1
-8.165035e-06,0.000111115,3,1
-4.560212e-05,5.017848e-05,3,1
-6.229485e-05,-2.826114e-05,3,1
-6.650855e-05,-0.0001070249,3,1
-7.33153e-05,-0.0001653684,3,1
-9.470791e-05,-0.0001919471,3,1
-0.0001360346,-0.0001904885,3,1
-0.000191623,-0.0001773612,3,1
-0.0002347323,-0.0001648822,3,1
-0.0002335979,-0.0001590478,3,1
-0.0001806025,-0.0001561307,3,1
-9.908367e-05,-0.000149486,3,1
-3.247483e-05,-0.0001400862,3,1
-8.651231e-06,-0.0001387897,3,1
-2.437157e-05,-0.0001538618,3,1
-5.759496e-05,-0.0001882196,3,1
-8.790117e-05,-0.0002347323,3,1
-0.00010978,-0.0002747625,3,1
-0.0001276072,-0.0002916173,3,1
-0.0001464067,-0.0002755728,3,1
-0.0001658546,-0.0002285739,3,1
-0.0001807646,-0.0001553203,3,1
-0.0001846542,-6.051213e-05,3,1
-0.0001700683,4.936815e-05,3,1
-0.0001332795,0.0001642725,3,1
-8.563225e-05,0.0002644289,3,1
-5.176061e-05,0.0003253654,3,1
-4.997789e-05,0.0003311998,3,1
-7.639453e-05,0.0002812837,3,1
-0.0001143178,0.0001932822,3,1
-0.0001447861,9.134307e-05,3,1
-0.0001558065,2.693341e-06,3,1
-0.0001441378,-5.710876e-05,3,1
-0.000114804,-8.514606e-05,3,1
-7.104638e-05,-8.44978e-05,3,1
-1.99958e-05,-6.407757e-05,3,1
3.089271e-05,-3.830919e-05,3,1
8.437427e-05,-1.821308e-05,3,1
0.0001467694,-1.092015e-05,3,1
0.0002138645,-1.886135e-05,3,1
0.0002681563,-3.749886e-05,3,1
0.0002918179,-5.840528e-05,3,1
0.0002739907,-7.477388e-05,3,1
0.0002172679,-8.222889e-05,3,1
0.0001396385,-8.498399e-05,3,1
6.897806e-05,-8.887356e-05,3,1
3.024445e-05,-9.568031e-05,3,1
3.056858e-05,-0.0001024871,3,1
6.314371e-05,-0.0001084835,3,1
0.0001107909,-0.0001068628,3,1
0.0001564933,-9.357346e-05,3,1
0.0001880961,-7.023606e-05,3,1
0.0002060853,-4.317115e-05,3,1
0.0002154851,-2.194059e-05,3,1
0.0002231022,-7.516774e-06,3,1
0.0002289366,4.151929e-06,3,1
0.0002260194,1.64689e-05,3,1
0.0002047888,3.040651e-05,3,1
0.000163138,4.483033e-05,3,1
0.0001107909,5.633696e-05,3,1
6.119892e-05,6.395404e-05,3,1
2.359977e-05,7.157111e-05,3,1
-7.100305e-07,8.04847e-05,3,1
-1.286493e-05,8.615699e-05,3,1
-1.270286e-05,8.826383e-05,3,1
-3.14101e-06,8.956036e-05,3,1
9.986281e-06,8.972242e-05,3,1
2.068259e-05,9.069481e-05,3,1
2.100672e-05,9.507057e-05,3,1
4.80019e-06,0.000105929,3,1
-2.501983e-05,0.0001205148,3,1
-5.64605e-05,0.0001342904,3,1
-7.137051e-05,0.0001427178,3,1
-5.64605e-05,0.0001441764,3,1
-2.031993e-05,0.0001391524,3,1
1.582063e-05,0.0001300767,3,1
3.024445e-05,0.0001169494,3,1
1.22552e-05,0.000101067,3,1
-3.231277e-05,8.502253e-05,3,1
-8.368748e-05,6.849186e-05,3,1
-0.0001130213,5.179914e-05,3,1
-0.0001062146,3.316162e-05,3,1
-6.667062e-05,1.095867e-05,3,1
-1.497178e-05,-1.3027e-05,3,1
2.149292e-05,-3.571614e-05,3,1
2.538249e-05,-5.435365e-05,3,1
-2.654814e-06,-6.715681e-05,3,1
-4.641245e-05,-7.752899e-05,3,1
-9.033215e-05,-8.595638e-05,3,1
-0.0001216107,-9.373552e-05,3,1
-0.0001245279,-9.697683e-05,3,1
-9.470791e-05,-9.503204e-05,3,1
-4.041603e-05,-8.676672e-05,3,1
1.582063e-05,-7.007399e-05,3,1
5.131294e-05,-4.398147e-05,3,1
5.860588e-05,-7.192643e-06,3,1
3.93201e-05,4.110282e-05,3,1
3.827799e-06,0.0001028497,3,1
-3.198864e-05,0.0001764274,3,1
-5.629844e-05,0.000252274,3,1
-6.958779e-05,0.0003198552,3,1
-7.428769e-05,0.0003650715,3,1
-7.412562e-05,0.0003722023,3,1
-7.33153e-05,0.0003349273,3,1
-7.201877e-05,0.0002576221,3,1
-6.504996e-05,0.0001621656,3,1
-5.386745e-05,7.643307e-05,3,1
-5.013995e-05,2.052053e-05,3,1
-6.051213e-05,-8.720959e-07,3,1
-8.271508e-05,1.883015e-06,3,1
-0.0001201522,9.500085e-06,3,1
-0.0001749302,1.160693e-05,3,1
-0.0002352185,6.420843e-06,3,1
-0.0002733039,-8.720959e-07,3,1
-0.0002608248,-7.192643e-06,3,1
-0.0001895161,-1.286493e-05,3,1
-8.433573e-05,-1.756482e-05,3,1
1.873781e-05,-1.772689e-05,3,1
9.247754e-05,-1.20546e-05,3,1
0.0001261871,1.234753e-06,3,1
0.0001257009,1.808955e-05,3,1
0.000105929,3.251336e-05,3,1
8.340187e-05,4.013043e-05,3,1
6.508849e-05,3.60788e-05,3,1
4.612685e-05,2.197911e-05,3,1
2.603075e-05,3.179537e-06,3,1
7.717366e-06,-1.724069e-05,3,1
-3.951337e-06,-3.620233e-05,3,1
-7.840905e-06,-5.046408e-05,3,1
-7.192643e-06,-6.099833e-05,3,1
-2.978945e-06,-6.699475e-05,3,1
5.772582e-06,-7.072225e-05,3,1
2.700314e-05,-7.444975e-05,3,1
7.286763e-05,-7.785312e-05,3,1
0.0001470936,-7.752899e-05,3,1
0.0002384984,-6.829127e-05,3,1
0.000329255,-4.608832e-05,3,1
0.0003971604,-1.610624e-05,3,1
0.0004248736,1.355172e-05,3,1
0.0004078567,3.640293e-05,3,1
0.0003569682,4.953022e-05,3,1
0.0002867939,5.260946e-05,3,1
0.0002133783,5.228533e-05,3,1
0.0001503349,5.082674e-05,3,1
0.0001070634,4.758544e-05,3,1
8.84259e-05,4.790957e-05,3,1
8.712937e-05,5.504044e-05,3,1
8.84259e-05,7.092284e-05,3,1
8.210535e-05,9.053275e-05,3,1
7.140904e-05,0.0001127357,3,1
6.800567e-05,0.0001367214,3,1
7.432621e-05,0.000160707,3,1
8.275361e-05,0.0001769136,3,1
7.90261e-05,0.0001793446,3,1
5.439218e-05,0.0001658931,3,1
1.095867e-05,0.000143204,3,1
-4.252288e-05,0.000118408,3,1
-8.984595e-05,9.63671e-05,3,1
-0.0001180453,7.562274e-05,3,1
-0.0001238797,5.957827e-05,3,1
-0.0001191798,4.839576e-05,3,1
-0.000112373,3.867184e-05,3,1
-0.0001060525,2.554455e-05,3,1
-9.875954e-05,6.258778e-06,3,1
-8.384954e-05,-2.323711e-05,3,1
-6.083626e-05,-6.278104e-05,3,1
-4.252288e-05,-0.000104756,3,1
-5.402952e-05,-0.0001415448,3,1
-0.0001128592,-0.0001674752,3,1
-0.0002109087,-0.0001825473,3,1
-0.0003237062,-0.0001908126,3,1
-0.0004168937,-0.0001981056,3,1
-0.000459841,-0.0002094502,3,1
-0.0004437966,-0.0002251705,3,1
-0.000375405,-0.0002397564,3,1
-0.0002767073,-0.0002439701,3,1
-0.0001773612,-0.0002366771,3,1
-9.924574e-05,-0.0002154466,3,1
-5.127441e-05,-0.0001836818,3,1
-3.004385e-05,-0.000144624,3,1
-2.745081e-05,-0.0001092938,3,1
-3.458168e-05,-7.995997e-05,3,1
-4.252288e-05,-5.240886e-05,3,1
-4.625038e-05,-1.950961e-05,3,1
-4.462973e-05,2.39239e-05,3,1
-4.219875e-05,8.210535e-05,3,1
-4.009191e-05,0.0001535762,3,1
-3.830919e-05,0.0002303951,3,1
-3.733679e-05,0.0002978143,3,1
-3.539201e-05,0.0003404375,3,1
-3.020592e-05,0.0003474063,3,1
-2.388537e-05,0.0003154794,3,1
-1.886135e-05,0.000249843,3,1
-1.707863e-05,0.0001628139,3,1
-9.137427e-06,7.221937e-05,3,1
1.095867e-05,-4.599598e-06,3,1
4.191315e-05,-5.856735e-05,3,1
7.513654e-05,-9.000802e-05,3,1
0.0001062531,-0.0001052422,3,1
0.0001365593,-0.0001120489,3,1
0.0001620036,-0.0001182074,3,1
0.0001775618,-0.0001250141,3,1
0.0001816135,-0.0001344139,3,1
0.000170431,-0.0001481895,3,1
0.0001470936,-0.0001653684,3,1
0.0001145184,-0.0001809267,3,1
7.562274e-05,-0.0001851404,3,1
3.688912e-05,-0.0001755785,3,1
1.112074e-05,-0.000156941,3,1
1.695509e-05,-0.0001329553,3,1
6.330578e-05,-0.0001076731,3,1
0.0001394765,-8.482193e-05,3,1
0.0002239125,-6.553616e-05,3,1
0.0002968419,-5.127441e-05,3,1
0.0003464339,-4.155049e-05,3,1
0.0003652335,-3.101625e-05,3,1
0.0003555096,-1.62683e-05,3,1
0.0003274723,1.720949e-06,3,1
0.0002937627,1.97102e-05,3,1
0.0002564877,3.721326e-05,3,1
0.0002153231,4.839576e-05,3,1
0.0001683241,4.920609e-05,3,1
0.0001138702,4.142696e-05,3,1
5.893001e-05,3.202716e-05,3,1
1.338965e-05,2.619281e-05,3,1
-9.461558e-06,2.603075e-05,3,1
-3.14101e-06,3.202716e-05,3,1
2.829966e-05,4.191315e-05,3,1
6.881599e-05,5.001642e-05,3,1
0.0001005808,5.1475e-05,3,1
0.0001069013,4.564065e-05,3,1
7.691926e-05,3.348575e-05,3,1
8.527692e-06,1.436204e-05,3,1
-8.757704e-05,-1.010982e-05,3,1
-0.0001875713,-3.441962e-05,3,1
-0.0002682799,-4.85193e-05,3,1
-0.0003117133,-4.511593e-05,3,1
-0.0003078238,-1.821308e-05,3,1
-0.0002540181,3.008238e-05,3,1
-0.0001605064,9.571884e-05,3,1
-5.419158e-05,0.0001715654,3,1
3.705119e-05,0.0002483844,3,1
9.896015e-05,0.0003140208,3,1
0.0001224596,0.0003602095,3,1
0.000106091,0.000383871,3,1
6.119892e-05,0.0003828986,3,1
5.124321e-06,0.0003640991,3,1
-4.527799e-05,0.0003428685,3,1
-8.206682e-05,0.0003286068,3,1
-0.0001094559,0.0003258516,3,1
-0.0001344139,0.0003303894,3,1
-0.0001603444,0.0003347652,3,1
-0.0001862748,0.0003281205,3,1
-0.0002079916,0.0003041349,3,1
-0.0002193361,0.0002639427,3,1
-0.0002204706,0.0002135403,3,1
-0.0002094502,0.0001618415,3,1
-0.0001786577,0.0001156529,3,1
-0.0001230693,7.52986e-05,3,1
-4.738484e-05,3.494434e-05,3,1
2.732727e-05,-1.059602e-05,3,1
7.400208e-05,-5.565017e-05,3,1
7.90261e-05,-8.82253e-05,3,1
4.628891e-05,-0.0001036215,3,1
-1.124428e-05,-0.0001089697,3,1
-7.931171e-05,-0.0001149661,3,1
-0.0001434896,-0.0001300382,3,1
-0.0001878955,-0.0001566169,3,1
-0.0001995642,-0.0001869231,3,1
-0.0001752544,-0.000211557,3,1
-0.0001229073,-0.0002267911,3,1
-5.872941e-05,-0.0002310048,3,1
4.244267e-07,-0.0002229016,3,1
4.369587e-05,-0.0002019951,3,1
6.687121e-05,-0.0001708786,3,1
6.525056e-05,-0.0001412206,3,1
4.256141e-05,-0.0001266348,3,1
8.365628e-06,-0.0001349001,3,1
-2.226472e-05,-0.0001653684,3,1
-3.620233e-05,-0.0002118811,3,1
-2.84232e-05,-0.0002635799,3,1
-2.006553e-06,-0.0003079858,3,1
3.737532e-05,-0.0003342404,3,1
8.875003e-05,-0.000338292,3,1
0.0001539003,-0.0003235441,3,1
0.0002221298,-0.0002966413,3,1
0.000277232,-0.0002652006,3,1
0.000307052,-0.0002353806,3,1
0.0003081865,-0.0002075054,3,1
0.0002887387,-0.0001797922,3,1
0.0002615117,-0.0001472171,3,1
0.0002334744,-0.0001112386,3,1
0.0002060853,-8.141856e-05,3,1
0.0001725378,-6.051213e-05,3,1
0.0001297526,-4.43056e-05,3,1
8.42122e-05,-2.09682e-05,3,1
4.515445e-05,1.825161e-05,3,1
1.695509e-05,8.097089e-05,3,1
-1.358292e-06,0.0001689724,3,1
-8.489166e-06,0.0002743149,3,1
-5.085794e-06,0.0003828986,3,1
7.393236e-06,0.0004736553,3,1
2.732727e-05,0.0005258403,3,1
5.536457e-05,0.0005297299,3,1
9.004655e-05,0.0004832171,3,1
0.0001216493,0.0003919743,3,1
0.0001375317,0.0002720459,3,1
0.000130887,0.0001501728,3,1
0.0001072255,4.920609e-05,3,1
7.659513e-05,-1.416145e-05,3,1
5.309566e-05,-3.555408e-05,3,1
5.001642e-05,-2.437157e-05,3,1
6.427817e-05,6.744974e-06,3,1
8.291568e-05,4.758544e-05,3,1
9.669123e-05,8.777764e-05,3,1
9.977047e-05,0.0001197045,3,1
8.696731e-05,0.0001391524,3,1
5.163707e-05,0.0001498487,3,1
-6.706447e-06,0.0001582761,3,1
-8.012204e-05,0.0001623277,3,1
-0.0001489998,0.0001645966,3,1
-0.0001857886,0.0001736723,3,1
-0.0001736337,0.0002046267,3,1
-0.0001143178,0.0002632944,3,1
-3.069211e-05,0.0003397893,3,1
4.385793e-05,0.0004054258,3,1
8.583286e-05,0.0004318424,3,1
9.814982e-05,0.0004047775,3,1
