EMG1,EMG2,class,user
4.483033e-05,-0.0001472171,3,1
2.369211e-06,-0.0001314967,3,1
-3.069211e-05,-0.0001212866,3,1
-5.953974e-05,-0.0001167488,3,1
-8.482193e-05,-0.0001167488,3,1
-0.0001026491,-0.0001170729,3,1
-0.00010978,-0.0001141558,3,1
-0.0001107524,-0.0001118868,3,1
-0.0001156143,-0.0001117248,3,1
-0.0001349001,-0.000117235,3,1
-0.0001700683,-0.000137169,3,1
-0.0002068571,-0.0001780095,3,1
-0.0002269532,-0.0002496423,3,1
-0.0002175534,-0.0003536883,3,1
-0.000176713,-0.0004758855,3,1
-0.0001151281,-0.0005928966,3,1
-4.868137e-05,-0.0006818705,3,1
3.989864e-06,-0.0007317866,3,1
3.705119e-05,-0.0007431312,3,1
5.94162e-05,-0.0007249799,3,1
7.740546e-05,-0.0006825188,3,1
8.696731e-05,-0.0006167202,3,1
8.356394e-05,-0.0005287188,3,1
6.78436e-05,-0.0004178661,3,1
4.580272e-05,-0.0002815692,3,1
2.003433e-05,-0.0001182074,3,1
-2.006553e-06,7.52986e-05,3,1
-1.059602e-05,0.00029198,3,1
-1.520357e-06,0.0005146578,3,1
2.619281e-05,0.0007313393,3,1
7.30297e-05,0.0009331108,3,1
0.0001341283,0.0011096,3,1
0.0002005751,0.001244277,3,1
0.0002654013,0.001324661,3,1
0.0003284447,0.001345081,3,1
0.0003853296,0.001307482,3,1
0.000425846,0.001220453,3,1
0.0004401077,0.001097121,3,1
0.0004274666,0.000953207,3,1
0.0003957018,0.0008037825,3,1
0.0003555096,0.0006619753,3,1
0.0003161277,0.00053994,3,1
0.0002880904,0.0004495075,3,1
0.000274801,0.0003974845,3,1
0.0002702632,0.0003785229,3,1
0.0002631324,0.0003723644,3,1
0.0002436845,0.0003529166,3,1
0.0002088404,0.0002971661,3,1
0.0001639484,0.0002072198,3,1
0.0001193804,0.0001030118,3,1
8.210535e-05,6.258778e-06,3,1
5.017848e-05,-6.958779e-05,3,1
2.311357e-05,-0.0001193418,3,1
2.531276e-06,-0.0001481895,3,1
-1.788895e-05,-0.0001658546,3,1
-4.689865e-05,-0.0001833576,3,1
-9.049421e-05,-0.0002097743,3,1
-0.0001496481,-0.0002447804,3,1
-0.0002232257,-0.0002768693,3,1
-0.0003005308,-0.0002899966,3,1
-0.0003624398,-0.000276059,3,1
-0.0003882082,-0.0002395943,3,1
-0.0003723258,-0.0001888679,3,1
-0.0003301888,-0.000134576,3,1
-0.0002809209,-8.725291e-05,3,1
-0.0002334358,-5.2733e-05,3,1
-0.0001893541,-3.231277e-05,3,1
-0.0001465688,-2.7937e-05,3,1
-0.0001092938,-3.749886e-05,3,1
-8.40116e-05,-5.483985e-05,3,1
-7.461182e-05,-7.947377e-05,3,1
-7.817725e-05,-0.0001130213,3,1
-9.341139e-05,-0.0001587237,3,1
-0.0001191798,-0.0002088019,3,1
-0.000147055,-0.0002514251,3,1
-0.0001697442,-0.0002815692,3,1
-0.0001791439,-0.0002987481,3,1
-0.0001697442,-0.0003070135,3,1
-0.0001441378,-0.0003128478,3,1
-0.00010978,-0.0003264613,3,1
-7.801519e-05,-0.0003596847,3,1
-6.164659e-05,-0.0004159214,3,1
-6.245691e-05,-0.0004825302,3,1
-7.363943e-05,-0.0005361738,3,1
-7.866345e-05,-0.0005606457,3,1
-6.569822e-05,-0.0005501114,3,1
-3.296103e-05,-0.0005125122,3,1
9.338019e-06,-0.0004635685,3,1
4.677511e-05,-0.0004186764,3,1
6.995045e-05,-0.0003888564,3,1
7.448828e-05,-0.0003736223,3,1
6.087479e-05,-0.0003694086,3,1
3.624086e-05,-0.0003731361,3,1
1.306552e-05,-0.0003799429,3,1
4.244267e-07,-0.0003873979,3,1
-7.100305e-07,-0.0003885323,3,1
4.313994e-06,-0.0003752429,3,1
8.365628e-06,-0.0003476919,3,1
8.527692e-06,-0.0003113892,3,1
7.879432e-06,-0.0002765452,3,1
1.257933e-05,-0.0002451045,3,1
2.76514e-05,-0.0002209568,3,1
5.050261e-05,-0.0002079916,3,1
7.481241e-05,-0.0002045882,3,1
9.944634e-05,-0.0002037779,3,1
0.0001221355,-0.0001985918,3,1
0.0001373696,-0.0001840059,3,1
0.0001467694,-0.0001580754,3,1
0.0001539003,-0.0001224211,3,1
0.000158114,-7.882551e-05,3,1
0.0001563313,-3.474375e-05,3,1
0.0001474177,4.151929e-06,3,1
0.0001402868,3.883391e-05,3,1
0.0001428799,6.946425e-05,3,1
0.0001540623,9.344993e-05,3,1
0.0001701068,0.0001124116,3,1
0.000187934,0.0001295905,3,1
0.0002054371,0.0001461212,3,1
0.0002167816,0.0001543865,3,1
0.0002171058,0.0001438522,3,1
0.000202682,0.0001158149,3,1
0.000173024,8.145709e-05,3,1
0.0001375317,5.439218e-05,3,1
0.0001088461,4.547859e-05,3,1
9.296373e-05,6.087479e-05,3,1
8.583286e-05,9.604298e-05,3,1
7.52986e-05,0.0001363972,3,1
4.904402e-05,0.0001657311,3,1
5.934648e-06,0.000180479,3,1
-4.138842e-05,0.0001882582,3,1
-7.574627e-05,0.0002057612,3,1
-8.303922e-05,0.0002472499,3,1
-6.002594e-05,0.0003222862,3,1
-2.09682e-05,0.0004409181,3,1
1.322759e-05,0.0006049282,3,1
2.894792e-05,0.0008021619,3,1
2.878586e-05,0.0009976128,3,1
1.987227e-05,0.001148334,3,1
1.22552e-05,0.00121316,3,1
6.582909e-06,0.001174913,3,1
-4.275467e-06,0.001050446,3,1
-2.518189e-05,0.0008775223,3,1
-5.727083e-05,0.0006940642,3,1
-9.130454e-05,0.0005245438,3,1
-0.0001114006,0.0003791712,3,1
-0.0001105903,0.000259891,3,1
-9.211487e-05,0.0001645966,3,1
-6.618442e-05,9.458438e-05,3,1
-3.992984e-05,4.807163e-05,3,1
-1.659243e-05,1.873781e-05,3,1
-5.409925e-06,1.002961e-07,3,1
-2.015787e-05,-1.108221e-05,3,1
-6.974985e-05,-2.064406e-05,3,1
-0.0001431655,-3.766092e-05,3,1
-0.000208964,-6.764301e-05,3,1
-0.0002324634,-0.0001081593,3,1
-0.0002075054,-0.0001486757,3,1
-0.0001614788,-0.000176713,3,1
-0.0001277692,-0.0001840059,3,1
-0.0001267968,-0.0001684476,3,1
-0.0001540238,-0.0001350622,3,1
-0.0001887058,-9.341139e-05,3,1
-0.0002073433,-5.386745e-05,3,1
-0.0001911368,-2.242678e-05,3,1
-0.0001334415,-5.085794e-06,3,1
-5.257093e-05,-7.678839e-06,3,1
2.894792e-05,-3.101625e-05,3,1
9.21534e-05,-7.088431e-05,3,1
0.0001313732,-0.000119828,3,1
0.0001488763,-0.0001665028,3,1
0.0001519555,-0.0002003745,3,1
0.0001474177,-0.0002206326,3,1
0.0001354248,-0.0002324634,3,1
0.0001120874,-0.0002442942,3,1
7.708133e-05,-0.0002569353,3,1
3.753739e-05,-0.0002697385,3,1
2.04508e-06,-0.0002754107,3,1
-1.367526e-05,-0.0002694143,3,1
5.86492e-07,-0.000251101,3,1
4.402e-05,-0.0002269532,3,1
0.0001007429,-0.0002039399,3,1
0.0001483901,-0.0001874093,3,1
0.0001723757,-0.0001749302,3,1
0.0001725378,-0.0001658546,3,1
0.0001490383,-0.000161965,3,1
0.0001013911,-0.0001624512,3,1
3.883391e-05,-0.0001661787,3,1
-2.031993e-05,-0.000174444,3,1
-5.791909e-05,-0.0001836818,3,1
-6.116039e-05,-0.0001890299,3,1
-2.42095e-05,-0.0001875713,3,1
5.001642e-05,-0.0001780095,3,1
0.0001419075,-0.0001616409,3,1
0.0002292607,-0.0001360346,3,1
0.0002908455,-0.0001054042,3,1
0.0003112658,-7.363943e-05,3,1
0.0002829043,-4.527799e-05,3,1
0.0002041406,-2.161646e-05,3,1
8.42122e-05,-3.627206e-06,3,1
-4.932962e-05,8.041497e-06,3,1
-0.0001556445,1.679302e-05,3,1
-0.0002078295,2.700314e-05,3,1
-0.0002070192,4.256141e-05,3,1
-0.0001746061,5.909208e-05,3,1
-0.0001383035,7.319176e-05,3,1
-0.000119666,8.84259e-05,3,1
-0.0001327933,0.0001057669,3,1
-0.0001752544,0.0001219734,3,1
-0.0002246843,0.0001339663,3,1
-0.0002520733,0.0001394765,3,1
-0.0002334358,0.0001378558,3,1
-0.0001614788,0.0001295905,3,1
-5.289507e-05,0.0001075496,3,1
5.439218e-05,7.043665e-05,3,1
0.0001274836,2.133085e-05,3,1
0.0001589243,-2.761287e-05,3,1
0.0001650828,-6.926366e-05,3,1
0.0001634622,-9.843541e-05,3,1
0.000160707,-0.0001178833,3,1
0.0001454729,-0.0001337657,3,1
0.0001072255,-0.0001517549,3,1
4.677511e-05,-0.0001734716,3,1
-2.550602e-05,-0.0001964849,3,1
-8.676672e-05,-0.0002188499,3,1
-0.0001114006,-0.0002352185,3,1
-8.952183e-05,-0.0002423494,3,1
-3.134038e-05,-0.0002405667,3,1
3.478228e-05,-0.0002298704,3,1
7.708133e-05,-0.0002088019,3,1
7.789165e-05,-0.0001762268,3,1
4.402e-05,-0.000132145,3,1
-3.858999e-07,-7.55842e-05,3,1
-3.296103e-05,-4.599598e-06,3,1
-4.738484e-05,8.064677e-05,3,1
-4.625038e-05,0.0001846927,3,1
-3.377136e-05,0.0003188828,3,1
-1.691656e-05,0.0004885653,3,1
-7.100305e-07,0.0006853127,3,1
1.193106e-05,0.0008804395,3,1
2.068259e-05,0.001031323,3,1
2.619281e-05,0.001099552,3,1
2.894792e-05,0.001062439,3,1
2.311357e-05,0.0009198214,3,1
4.962256e-06,0.000695847,3,1
-2.339918e-05,0.0004331389,3,1
-5.257093e-05,0.0001817755,3,1
-7.153257e-05,-2.42095e-05,3,1
-7.55842e-05,-0.0001663408,3,1
-6.618442e-05,-0.0002451045,3,1
-5.419158e-05,-0.0002752487,3,1
-5.192267e-05,-0.0002797865,3,1
-6.310517e-05,-0.0002767073,3,1
-8.206682e-05,-0.000278652,3,1
-0.0001042698,-0.0002930758,3,1
-0.0001292278,-0.0003199787,3,1
-0.0001525652,-0.0003548227,3,1
-0.000166827,-0.0003893426,3,1
-0.0001635857,-0.0004112214,3,1
-0.0001455964,-0.0004128421,3,1
-0.0001216107,-0.000395339,3,1
-0.0001008664,-0.0003626019,3,1
-8.012204e-05,-0.0003168994,3,1
-3.604027e-05,-0.0002522354,3,1
5.179914e-05,-0.0001582375,3,1
0.0001803169,-2.599222e-05,3,1
0.0003282826,0.0001467694,3,1
0.0004618245,0.0003487029,3,1
0.0005495019,0.0005554983,3,1
0.0005730013,0.0007342565,3,1
0.0005383193,0.000842192,3,1
0.0004665244,0.0008481885,3,1
0.0003804677,0.0007496527,3,1
0.0002973281,0.000579646,3,1
0.0002342847,0.0003879227,3,1
0.0002000889,0.0002185644,3,1
0.0001939304,9.523264e-05,3,1
0.0002078681,2.311357e-05,3,1
0.0002278021,-3.789272e-06,3,1
0.000239957,7.485573e-07,3,1
0.0002389846,2.116879e-05,3,1
0.0002290986,4.191315e-05,3,1
0.0002179161,5.406805e-05,3,1
0.0002057612,5.649903e-05,3,1
0.0001916615,5.277153e-05,3,1
0.0001728619,4.369587e-05,3,1
0.0001498487,2.992031e-05,3,1
0.0001247285,1.112074e-05,3,1
0.0001007429,-6.544382e-06,3,1
7.789165e-05,-1.967167e-05,3,1
5.131294e-05,-3.182657e-05,3,1
1.468618e-05,-4.317115e-05,3,1
-3.522994e-05,-5.532604e-05,3,1
-9.29252e-05,-6.667062e-05,3,1
-0.0001468929,-7.898758e-05,3,1
-0.0001804405,-9.098041e-05,3,1
-0.0001794681,-0.0001039456,3,1
-0.0001442999,-0.0001133454,3,1
-9.276313e-05,-0.0001182074,3,1
-4.770897e-05,-0.0001191798,3,1
-3.117831e-05,-0.0001159385,3,1
-5.22468e-05,-0.0001099421,3,1
-0.0001039456,-0.0001044318,3,1
-0.0001674752,-0.0001007043,3,1
-0.0002293842,-0.0001010285,3,1
-0.0002765452,-0.0001058904,3,1
-0.0003003688,-0.000112373,3,1
-0.000300855,-0.0001183694,3,1
-0.0002809209,-0.0001230693,3,1
-0.0002395943,-0.0001285796,3,1
-0.0001754164,-0.0001331174,3,1
-0.0001016767,-0.0001339277,3,1
-4.236082e-05,-0.0001313347,3,1
-2.356124e-05,-0.0001285796,3,1
-5.402952e-05,-0.000129714,3,1
-0.000119666,-0.0001378173,3,1
-0.0001964849,-0.0001546721,3,1
-0.0002549905,-0.0001715269,3,1
-0.0002733039,-0.0001810887,3,1
-0.0002522354,-0.0001804405,3,1
-0.0002028055,-0.0001737958,3,1
-0.0001439758,-0.0001673132,3,1
-9.454585e-05,-0.000164396,3,1
-6.521203e-05,-0.0001663408,3,1
-5.840528e-05,-0.0001700683,3,1
-7.493595e-05,-0.000171851,3,1
-0.0001195039,-0.000166827,3,1
-0.0001922712,-0.0001582375,3,1
-0.0002771934,-0.000151917,3,1
-0.000342992,-0.0001501342,3,1
-0.0003575778,-0.0001491618,3,1
-0.0003190063,-0.0001481895,3,1
-0.0002481838,-0.0001491618,3,1
-0.0001765509,-0.0001541859,3,1
-0.000122259,-0.0001626133,3,1
-8.644259e-05,-0.0001684476,3,1
-6.132246e-05,-0.0001656925,3,1
-3.166451e-05,-0.0001553203,3,1
1.387585e-05,-0.0001384655,3,1
7.497447e-05,-0.0001208004,3,1
0.0001360731,-0.0001120489,3,1
0.0001803169,-0.0001117248,3,1
0.0001986303,-0.0001141558,3,1
0.0001924718,-0.0001112386,3,1
0.0001722137,-0.000102325,3,1
0.0001477418,-9.049421e-05,3,1
0.0001281319,-8.206682e-05,3,1
0.0001185701,-8.012204e-05,3,1
0.000118408,-7.850138e-05,3,1
0.0001237561,-7.137051e-05,3,1
0.0001342904,-5.69467e-05,3,1
0.0001441764,-3.360929e-05,3,1
0.0001508211,-4.275467e-06,3,1
0.0001551968,2.910999e-05,3,1
0.000155521,6.022653e-05,3,1
0.0001453108,8.372601e-05,3,1
0.0001257009,9.977047e-05,3,1
0.0001072255,0.0001137081,3,1
0.0001022015,0.0001271595,3,1
0.0001174356,0.0001425557,3,1
0.0001449867,0.0001584381,3,1
0.0001667035,0.0001728619,3,1
0.000163138,0.0001882582,3,1
0.0001318594,0.0002109473,3,1
8.453633e-05,0.0002467637,3,1
3.786152e-05,0.0002958695,3,1
1.193106e-05,0.0003556717,3,1
1.355172e-05,0.000413529,3,1
4.110282e-05,0.0004555039,3,1
8.907416e-05,0.0004683071,3,1
0.0001441764,0.0004469145,3,1
0.0001902029,0.0003939191,3,1
0.0002083542,0.0003237448,3,1
0.0001905271,0.0002482223,3,1
0.0001417454,0.000170431,3,1
7.416415e-05,9.620504e-05,3,1
3.017472e-06,2.910999e-05,3,1
-5.678463e-05,-2.858527e-05,3,1
-9.600444e-05,-7.250496e-05,3,1
-0.0001110765,-0.0001045939,3,1
-0.0001091317,-0.0001253383,3,1
-0.0001007043,-0.0001308485,3,1
-9.827335e-05,-0.0001186936,3,1
-0.0001065387,-9.454585e-05,3,1
-0.0001201522,-6.213279e-05,3,1
-0.0001280934,-2.323711e-05,3,1
-0.0001238797,1.59827e-05,3,1
-0.0001032974,5.325772e-05,3,1
-6.375344e-05,9.280167e-05,3,1
-1.335113e-05,0.0001440143,3,1
2.829966e-05,0.0002055991,3,1
4.239934e-05,0.000267346,3,1
2.084466e-05,0.0003120761,3,1
-2.745081e-05,0.0003240689,3,1
-7.866345e-05,0.0002965178,3,1
-0.0001075111,0.0002386605,3,1
-0.0001091317,0.0001714034,3,1
-9.762509e-05,0.0001219734,3,1
-9.049421e-05,0.0001028497,3,1
-9.519411e-05,0.0001067393,3,1
-0.0001109144,0.0001151667,3,1
-0.0001314967,0.0001094944,3,1
-0.0001472171,7.870197e-05,3,1
-0.0001535376,2.635488e-05,3,1
-0.0001488377,-3.458168e-05,3,1
-0.0001417068,-8.644259e-05,3,1
-0.0001441378,-0.0001164247,3,1
-0.0001587237,-0.0001156143,3,1
-0.0001676373,-7.947377e-05,3,1
-0.0001434896,-7.192643e-06,3,1
-6.764301e-05,9.993253e-05,3,1
4.920609e-05,0.0002342847,3,1
0.0001671896,0.0003754436,3,1
0.0002444948,0.000487917,3,1
0.0002652392,0.0005388056,3,1
0.0002440086,0.000512551,3,1
0.0002135403,0.0004146635,3,1
0.0001963614,0.0002645909,3,1
0.0001961994,9.426025e-05,3,1
0.0002039785,-6.326724e-05,3,1
0.0002054371,-0.0001846542,3,1
0.0001918236,-0.000258718,3,1
0.0001660552,-0.0002872415,3,1
0.0001415833,-0.00027849,3,1
0.0001263492,-0.0002420253,3,1
0.0001239182,-0.0001903264,3,1
0.000130887,-0.0001365208,3,1
0.0001401247,-8.628052e-05,3,1
0.0001485521,-4.317115e-05,3,1
0.0001571416,-9.785688e-06,3,1
0.0001649207,1.063454e-05,3,1
0.0001688103,1.1769e-05,3,1
0.0001634622,-5.57199e-06,3,1
0.0001485521,-3.522994e-05,3,1
0.0001289422,-6.861539e-05,3,1
0.0001125736,-9.422172e-05,3,1
0.0001022015,-0.0001081593,3,1
9.782569e-05,-0.0001144799,3,1
9.879808e-05,-0.0001195039,3,1
0.0001081979,-0.0001295519,3,1
0.0001232699,-0.0001442999,3,1
0.0001370455,-0.0001681235,3,1
0.0001365593,-0.0002002124,3,1
0.0001201907,-0.0002337599,3,1
9.247754e-05,-0.000261149,3,1
5.730935e-05,-0.0002780038,3,1
1.241726e-05,-0.0002823795,3,1
-4.738484e-05,-0.0002770314,3,1
-0.0001224211,-0.0002617972,3,1
-0.0002042641,-0.0002360289,3,1
-0.0002804347,-0.000206533,3,1
-0.00033813,-0.0001776853,3,1
-0.0003660052,-0.0001515928,3,1
-0.0003499608,-0.0001263107,3,1
-0.0002805968,-9.486997e-05,3,1
-0.000151917,-4.770897e-05,3,1
3.283749e-05,2.133085e-05,3,1
0.0002466017,0.0001107909,3,1
0.0004388112,0.0002060853,3,1
0.0005532294,0.0002791768,3,1
0.0005580913,0.0003008936,3,1
0.0004590694,0.0002537325,3,1
0.000299435,0.000148228,3,1
0.0001410971,1.112074e-05,3,1
2.862379e-05,-0.0001287416,3,1
-2.307504e-05,-0.0002491561,3,1
-2.307504e-05,-0.0003368335,3,1
7.717366e-06,-0.000395177,3,1
4.288554e-05,-0.0004295348,3,1
6.087479e-05,-0.000442338,3,1
4.985435e-05,-0.0004290486,3,1
9.66215e-06,-0.0003862634,3,1
-4.80331e-05,-0.0003165753,3,1
-0.0001026491,-0.0002293842,3,1
-0.0001426792,-0.0001396,3,1
-0.0001687718,-5.905355e-05,3,1
-0.0001840059,7.717366e-06,3,1
-0.000194216,6.119892e-05,3,1
-0.0002005366,0.0001093323,3,1
-0.0002029675,0.0001623277,3,1
-0.0002006986,0.0002219677,3,1
-0.000191785,0.0002775562,3,1
-0.0001721751,0.0003164518,3,1
-0.0001433275,0.0003276344,3,1
-0.000112373,0.000309483,3,1
-8.579432e-05,0.0002751252,3,1
-7.428769e-05,0.0002381743,3,1
-8.417367e-05,0.0002083542,3,1
-0.0001199901,0.0001893926,3,1
-0.0001809267,0.0001851789,3,1
-0.0002517492,0.0001971717,3,1
-0.0003112272,0.000222616,3,1
-0.0003397507,0.000249843,3,1
-0.0003264613,0.0002660495,3,1
-0.0002757348,0.0002632944,3,1
-0.0002024813,0.0002394708,3,1
-0.0001214487,0.0001960373,3,1
-4.268495e-05,0.0001388282,3,1
2.959619e-05,8.113296e-05,3,1
8.567078e-05,3.413401e-05,3,1
0.000113384,5.448452e-06,3,1
0.0001051186,-3.789272e-06,3,1
7.400208e-05,-4.275467e-06,3,1
3.753739e-05,-4.113403e-06,3,1
6.744974e-06,-7.678839e-06,3,1
-1.691656e-05,-1.562004e-05,3,1
-2.696461e-05,-2.696461e-05,3,1
-1.3027e-05,-3.68506e-05,3,1
2.538249e-05,-4.171256e-05,3,1
7.935024e-05,-3.798505e-05,3,1
0.0001312112,-2.631635e-05,3,1
0.0001667035,-7.516774e-06,3,1
0.0001799928,1.322759e-05,3,1
0.0001762653,3.105477e-05,3,1
0.0001603829,4.126489e-05,3,1
0.0001380179,4.547859e-05,3,1
0.0001090082,4.515445e-05,3,1
7.546067e-05,4.35338e-05,3,1
4.369587e-05,4.839576e-05,3,1
2.359977e-05,6.298164e-05,3,1
2.748934e-05,8.388807e-05,3,1
5.730935e-05,0.0001026876,3,1
9.912221e-05,0.0001143563,3,1
0.0001292664,0.0001198666,3,1
0.0001331559,0.0001240803,3,1
0.0001140322,0.0001279698,3,1
8.437427e-05,0.0001310491,3,1
6.022653e-05,0.0001338042,3,1
4.855783e-05,0.0001355869,3,1
5.439218e-05,0.0001352628,3,1
7.562274e-05,0.0001323456,3,1
0.000103498,0.0001276457,3,1
0.0001231079,0.0001253768,3,1
0.0001132219,0.0001274836,3,1
5.666109e-05,0.0001352628,3,1
-4.722278e-05,0.0001406109,3,1
-0.0001681235,0.0001351007,3,1
-0.0002609869,0.0001172735,3,1
-0.0003011791,8.988449e-05,3,1
-0.0002948586,5.828175e-05,3,1
-0.0002605007,2.635488e-05,3,1
-0.0002201465,-8.720959e-07,3,1
-0.0001887058,-1.886135e-05,3,1
-0.0001716889,-2.728874e-05,3,1
-0.0001700683,-3.198864e-05,3,1
-0.0001755785,-4.122636e-05,3,1
-0.0001780095,-5.710876e-05,3,1
-0.0001689338,-8.222889e-05,3,1
-0.0001404103,-0.0001186936,3,1
-8.482193e-05,-0.000161965,3,1
3.989864e-06,-0.0002032917,3,1
0.0001096565,-0.0002402425,3,1
0.0002054371,-0.0002653627,3,1
0.0002655633,-0.000273628,3,1
0.000272208,-0.0002630937,3,1
0.0002231022,-0.0002332737,3,1
0.0001386662,-0.0001890299,3,1
5.163707e-05,-0.0001366828,3,1
-1.25408e-05,-7.979791e-05,3,1
-4.916756e-05,-1.788895e-05,3,1
-6.342931e-05,5.098881e-05,3,1
-6.958779e-05,0.0001200286,3,1
-8.012204e-05,0.0001825859,3,1
-9.892161e-05,0.0002284504,3,1
-0.0001173971,0.000244981,3,1
-0.0001263107,0.0002255332,3,1
-0.000122259,0.0001782101,3,1
-0.0001068628,0.0001182459,3,1
-8.725291e-05,6.184718e-05,3,1
-7.18567e-05,2.214118e-05,3,1
-7.007399e-05,8.527692e-06,3,1
-8.044617e-05,2.619281e-05,3,1
-8.628052e-05,6.589881e-05,3,1
-7.18567e-05,0.0001132219,3,1
-3.069211e-05,0.0001548727,3,1
2.975825e-05,0.000175455,3,1
9.199134e-05,0.0001618415,3,1
0.000143204,0.0001091703,3,1
0.0001757791,2.927205e-05,3,1
0.0001864754,-5.662256e-05,3,1
0.0001751309,-0.0001274451,3,1
0.0001469315,-0.0001705545,3,1
0.0001154908,-0.0001870851,3,1
9.474644e-05,-0.0001825473,3,1
9.150514e-05,-0.0001650443,3,1
0.00010366,-0.0001360346,3,1
0.0001274836,-9.859748e-05,3,1
0.0001603829,-6.0188e-05,3,1
0.0002013854,-2.712668e-05,3,1
0.0002402811,-2.330684e-06,3,1
0.0002639427,1.695509e-05,3,1
0.0002585945,3.332369e-05,3,1
0.0002227781,4.531652e-05,3,1
0.0001725378,4.645098e-05,3,1
0.0001398006,3.170304e-05,3,1
0.0001483901,-2.238346e-07,3,1
0.0002064095,-4.38194e-05,3,1
0.0003018659,-9.260107e-05,3,1
0.0004067223,-0.0001399241,3,1
0.0004947237,-0.0001844921,3,1
0.0005388056,-0.0002282497,3,1
0.0005208163,-0.0002707109,3,1
0.0004452938,-0.0003126857,3,1
0.0003394651,-0.000350447,3,1
0.0002380122,-0.0003773498,3,1
0.0001650828,-0.0003925839,3,1
0.000128294,-0.0003990665,3,1
0.000120839,-0.000400039,3,1
0.0001253768,-0.0003972838,3,1
0.0001291043,-0.0003919357,3,1
0.0001188942,-0.0003831841,3,1
8.534666e-05,-0.0003685983,3,1
3.591673e-05,-0.0003454229,3,1
-5.734056e-06,-0.0003049066,3,1
-2.988179e-05,-0.0002415391,3,1
-4.884343e-05,-0.0001400862,3,1
-7.947377e-05,1.776542e-05,3,1
-0.0001212866,0.000242388,3,1
-0.0001635857,0.0005172509,3,1
-0.0001953505,0.0008018378,3,1
-0.0002076674,0.001046719,3,1
-0.0001947022,0.001204733,3,1
-0.0001567789,0.001246708,3,1
-0.0001034594,0.001169889,3,1
-4.916756e-05,0.001001665,3,1
-9.947754e-06,0.0007908173,3,1
2.623614e-07,0.0005856425,3,1
-2.080613e-05,0.0004235771,3,1
-6.035007e-05,0.0003260137,3,1
-0.000104918,0.0003004074,3,1
-0.0001462447,0.0003313618,3,1
-0.0001835197,0.000393595,3,1
-0.0002147983,0.0004626348,3,1
-0.0002392702,0.0005237334,3,1
-0.0002577456,0.0005702463,3,1
-0.0002668213,0.0006002283,3,1
-0.0002632558,0.0006159487,3,1
-0.0002483458,0.000609466,3,1
-0.0002300324,0.0005642498,3,1
-0.0002229016,0.0004665244,3,1
-0.0002290601,0.0003200173,3,1
-0.0002472114,0.0001398006,3,1
-0.0002729798,-4.641245e-05,3,1
-0.0003019894,-0.000209126,3,1
-0.0003235441,-0.0003275957,3,1
-0.0003288923,-0.0003980942,3,1
-0.0003097686,-0.0004261314,3,1
-0.000268604,-0.0004254832,3,1
-0.00021415,-0.0004141386,3,1
-0.0001611547,-0.0004055492,3,1
-0.0001258245,-0.0004081422,3,1
-0.000119828,-0.0004190006,3,1
-0.000137169,-0.0004277521,3,1
-0.0001639098,-0.0004238625,3,1
-0.0001827094,-0.0004066836,3,1
-0.0001823853,-0.0003846427,3,1
-0.0001616409,-0.0003666535,3,1
-0.0001240417,-0.000360333,3,1
-7.282909e-05,-0.0003694086,3,1
-1.043395e-05,-0.0003920977,3,1
5.828175e-05,-0.0004259694,3,1
0.0001276457,-0.0004630823,3,1
0.000185503,-0.0004958195,3,1
0.0002187264,-0.0005133225,3,1
0.0002261814,-0.0005128364,3,1
0.0002218057,-0.0004964678,3,1
0.0002216436,-0.0004668098,3,1
0.000234933,-0.0004284004,3,1
0.0002517878,-0.0003885323,3,1
0.0002574601,-0.0003538503,3,1
0.0002469258,-0.0003230579,3,1
0.0002248849,-0.0002948586,3,1
0.0001996027,-0.0002656868,3,1
0.0001731861,-0.0002329496,3,1
0.0001474177,-0.0001977815,3,1
0.0001239182,-0.0001648822,3,1
0.0001052807,-0.0001386276,3,1
9.53947e-05,-0.0001204763,3,1
9.474644e-05,-0.0001070249,3,1
0.0001049566,-9.405965e-05,3,1
0.000121001,-7.704279e-05,3,1
0.0001312112,-5.467778e-05,3,1
0.0001344524,-3.134038e-05,3,1
0.0001370455,-8.975362e-06,3,1
0.000143204,9.66215e-06,3,1
0.0001492004,2.797553e-05,3,1
0.0001500107,4.888196e-05,3,1
0.0001522796,6.995045e-05,3,1
0.000160545,8.567078e-05,3,1
0.0001628139,9.63671e-05,3,1
0.000135749,0.00010366,3,1
5.666109e-05,0.0001124116,3,1
-6.634648e-05,0.0001266733,3,1
-0.0001927574,0.0001443384,3,1
-0.0002720074,0.0001594105,3,1
-0.000273628,0.0001692965,3,1
-0.0001937298,0.0001731861,3,1
-6.618442e-05,0.0001733481,3,1
5.341979e-05,0.0001741585,3,1
0.0001222976,0.0001798307,3,1
0.0001295905,0.0001880961,3,1
9.020862e-05,0.0001991165,3,1
2.554455e-05,0.0002083542,3,1
-4.43056e-05,0.0002086784,3,1
-0.0001034594,0.0001970097,3,1
-0.0001413827,0.0001790204,3,1
-0.0001515928,0.0001586002,3,1
-0.0001361966,0.0001370455,3,1
-0.0001026491,0.000113546,3,1
-5.59743e-05,8.972242e-05,3,1
-6.382317e-06,7.140904e-05,3,1
2.635488e-05,6.330578e-05,3,1
2.489629e-05,6.346784e-05,3,1
-1.432352e-05,6.557468e-05,3,1
-7.639453e-05,6.606088e-05,3,1
-0.0001386276,6.492643e-05,3,1
-0.0001828714,6.525056e-05,3,1
-0.0001969711,6.589881e-05,3,1
-0.0001783336,6.298164e-05,3,1
-0.0001425172,5.714729e-05,3,1
-0.0001141558,5.050261e-05,3,1
-0.0001099421,4.45062e-05,3,1
-0.0001259865,3.575467e-05,3,1
-0.0001428413,2.262738e-05,3,1
-0.0001404103,4.962256e-06,3,1
-0.0001081593,-2.0482e-05,3,1
-5.208474e-05,-5.257093e-05,3,1
9.66215e-06,-8.530812e-05,3,1
5.828175e-05,-0.0001136696,3,1
7.918817e-05,-0.0001376552,3,1
7.238143e-05,-0.000161965,3,1
4.758544e-05,-0.0001890299,3,1
2.197911e-05,-0.0002193361,3,1
1.095867e-05,-0.0002543422,3,1
2.052053e-05,-0.0002934,3,1
4.742337e-05,-0.000333268,3,1
7.853991e-05,-0.0003728119,3,1
0.0001038221,-0.0004110594,3,1
0.0001218114,-0.0004407173,3,1
0.0001294284,-0.0004515757,3,1
0.000120839,-0.0004382863,3,1
0.00010366,-0.0004011734,3,1
9.069481e-05,-0.0003397507,3,1
9.523264e-05,-0.0002530457,3,1
0.0001214872,-0.0001394379,3,1
0.000160707,1.234753e-06,3,1
0.0001968476,0.0001702689,3,1
0.0002188885,0.0003551855,3,1
0.0002263435,0.0005389676,3,1
0.0002219677,0.0007041123,3,1
0.0002088404,0.0008340888,3,1
0.0001944166,0.0009126905,3,1
0.0001851789,0.0009258178,3,1
0.0001746447,0.0008655295,3,1
0.0001483901,0.0007378219,3,1
0.00010366,0.0005624671,3,1
5.082674e-05,0.0003670162,3,1
5.772582e-06,0.0001848548,3,1
-1.902341e-05,4.191315e-05,3,1
-1.99958e-05,-5.176061e-05,3,1
4.313994e-06,-0.0001037836,3,1
4.693717e-05,-0.0001340898,3,1
0.0001007429,-0.0001585616,3,1
0.0001566554,-0.0001806025,3,1
0.0002093267,-0.0001963229,3,1
0.0002493568,-0.0001982676,3,1
0.0002663737,-0.0001810887,3,1
0.0002519498,-0.0001433275,3,1
0.0002038164,-7.833932e-05,3,1
0.000128456,2.165498e-05,3,1
3.93201e-05,0.0001566554,3,1
-4.414354e-05,0.0003164518,3,1
-0.000104918,0.0004921307,3,1
-0.0001399241,0.0006801266,3,1
-0.0001467309,0.0008739569,3,1
-0.000122259,0.001058225,3,1
-7.039812e-05,0.001205381,3,1
-8.813297e-06,0.001287386,3,1
3.445814e-05,0.001285603,3,1
3.996837e-05,0.001198412,3,1
1.014835e-05,0.001039912,3,1
-3.539201e-05,0.000834737,3,1
-7.590833e-05,0.0006157866,3,1
-9.438378e-05,0.0004153117,3,1
-8.579432e-05,0.0002537325,3,1
-5.467778e-05,0.0001402868,3,1
-8.165035e-06,7.076078e-05,3,1
3.915804e-05,3.494434e-05,3,1
6.573675e-05,1.695509e-05,3,1
5.309566e-05,-2.168618e-06,3,1
4.638125e-06,-3.782299e-05,3,1
-5.937768e-05,-9.584238e-05,3,1
-0.0001092938,-0.0001697442,3,1
-0.0001282554,-0.0002473734,3,1
-0.0001238797,-0.0003199787,3,1
-0.0001136696,-0.0003862634,3,1
-0.0001112386,-0.0004507654,3,1
-0.0001224211,-0.0005131605,3,1
-0.0001480274,-0.0005638869,3,1
-0.0001854645,-0.0005927345,3,1
-0.0002261429,-0.0005951655,3,1
-0.0002629317,-0.0005776625,3,1
-0.0002924276,-0.000556756,3,1
-0.0003165753,-0.0005433047,3,1
-0.0003366714,-0.0005411978,3,1
-0.0003449367,-0.0005447632,3,1
-0.0003248407,-0.0005486528,3,1
-0.0002728177,-0.0005527044,3,1
-0.000209126,-0.0005564319,3,1
-0.000159372,-0.0005596732,3,1
-0.0001376552,-0.0005582146,3,1
-0.0001381414,-0.000546708,3,1
-0.0001431655,-0.0005228845,3,1
-0.0001374932,-0.0004953333,3,1
-0.0001186936,-0.0004760476,3,1
-9.632857e-05,-0.0004698891,3,1
-8.514606e-05,-0.0004684305,3,1
-9.29252e-05,-0.0004603272,3,1
-0.0001157764,-0.0004381243,3,1
-0.0001379794,-0.0004006872,3,1
-0.0001454344,-0.0003510952,3,1
-0.0001274451,-0.0002948586,3,1
-8.320128e-05,-0.0002311669,3,1
-1.756482e-05,-0.0001558065,3,1
6.168512e-05,-6.375344e-05,3,1
0.0001378558,4.434413e-05,3,1
0.0001932822,0.0001560072,3,1
0.0002171058,0.0002506533,3,1
0.0002020337,0.0003122381,3,1
0.0001553589,0.0003300653,3,1
0.0001023635,0.0003109416,3,1
7.6271e-05,0.0002718839,3,1
0.0001015532,0.0002329882,3,1
0.0001749688,0.000202844,3,1
0.0002663737,0.0001777239,3,1
0.0003404375,0.0001483901,3,1
0.0003827366,0.0001122495,3,1
0.0004041292,7.52986e-05,3,1
0.0004226047,4.645098e-05,3,1
0.0004423766,3.121684e-05,3,1
0.0004584211,2.829966e-05,3,1
0.0004666864,3.445814e-05,3,1
0.0004674968,4.466826e-05,3,1
0.0004585832,5.714729e-05,3,1
0.0004313562,6.946425e-05,3,1
0.0003796573,8.016057e-05,3,1
0.0003047831,9.101894e-05,3,1
0.0002179161,9.896015e-05,3,1
0.0001351007,0.0001043083,3,1
7.011252e-05,0.0001073875,3,1
3.008238e-05,0.0001106288,3,1
1.452411e-05,0.0001164632,3,1
1.808955e-05,0.0001237561,3,1
3.915804e-05,0.0001287802,3,1
7.286763e-05,0.0001265113,3,1
0.0001093323,0.0001227837,3,1
0.0001297526,0.0001287802,3,1
0.0001250527,0.0001513072,3,1
9.831188e-05,0.0001866375,3,1
5.99024e-05,0.0002231022,3,1
1.533444e-05,0.0002461155,3,1
-2.89094e-05,0.0002462775,3,1
-6.91016e-05,0.0002247229,3,1
-0.0001008664,0.0001843686,3,1
-0.0001240417,0.0001292664,3,1
-0.0001366828,6.314371e-05,3,1
-0.0001408965,-3.627206e-06,3,1
-0.0001397621,-5.678463e-05,3,1
-0.0001344139,-9.081835e-05,3,1
-0.0001211246,-0.0001058904,3,1
-0.0001034594,-0.0001114006,3,1
-8.547019e-05,-0.0001149661,3,1
-7.396356e-05,-0.0001242038,3,1
-7.137051e-05,-0.0001431655,3,1
-8.02841e-05,-0.0001747682,3,1
-9.989401e-05,-0.0002246843,3,1
-0.0001293899,-0.0002864312,3,1
-0.000161965,-0.0003384541,3,1
-0.0001831956,-0.0003624398,3,1
-0.0001893541,-0.0003488263,3,1
-0.0001945401,-0.0003016653,3,1
-0.0002173914,-0.0002340841,3,1
-0.0002621213,-0.0001608306,3,1
-0.0003121996,-9.033215e-05,3,1
-0.0003491504,-2.177852e-05,3,1
-0.0003548227,5.244739e-05,3,1
-0.0003220855,0.0001362352,3,1
-0.0002580697,0.0002203471,3,1
-0.0001750923,0.0002850112,3,1
-8.271508e-05,0.0003132105,3,1
6.258778e-06,0.0003018659,3,1
7.189524e-05,0.0002576221,3,1
0.0001013911,0.0001960373,3,1
9.928428e-05,0.0001360731,3,1
9.361199e-05,9.344993e-05,3,1
0.0001125736,7.6271e-05,3,1
0.0001569795,9.118101e-05,3,1
0.0002057612,0.0001402868,3,1
0.0002346088,0.0002138645,3,1
0.0002289366,0.0002929524,3,1
0.0001924718,0.0003556717,3,1
0.0001396385,0.0003853296,3,1
8.712937e-05,0.0003756057,3,1
4.223728e-05,0.0003297412,3,1
-3.627206e-06,0.0002592428,3,1
-6.132246e-05,0.0001809652,3,1
-0.0001276072,0.000110953,3,1
-0.0001846542,5.94162e-05,3,1
-0.0002094502,2.619281e-05,3,1
-0.0001893541,2.04508e-06,3,1
-0.0001293899,-2.275091e-05,3,1
-4.560212e-05,-5.500191e-05,3,1
4.126489e-05,-9.130454e-05,3,1
0.0001148425,-0.0001232314,3,1
0.000163138,-0.0001387897,3,1
0.0001783722,-0.0001298761,3,1
0.0001649207,-9.713889e-05,3,1
0.0001373696,-5.240886e-05,3,1
0.000118408,-1.156841e-05,3,1
0.0001292664,1.209313e-05,3,1
0.0001749688,1.387585e-05,3,1
0.000242388,-1.682422e-06,3,1
0.0003057555,-2.46957e-05,3,1
0.0003410858,-4.47918e-05,3,1
0.0003370341,-5.370539e-05,3,1
0.0002974902,-4.835724e-05,3,1
0.0002393087,-3.247483e-05,3,1
0.0001819376,-1.335113e-05,3,1
0.0001373696,3.341602e-06,3,1
0.0001083599,1.59827e-05,3,1
9.231547e-05,2.619281e-05,3,1
8.405014e-05,3.364782e-05,3,1
7.967438e-05,4.304761e-05,3,1
7.691926e-05,5.909208e-05,3,1
7.497447e-05,8.405014e-05,3,1
6.816773e-05,0.0001138702,3,1
4.434413e-05,0.0001430419,3,1
1.883015e-06,0.0001668655,3,1
-5.111234e-05,0.0001851789,3,1
-0.0001008664,0.0001963614,3,1
-0.0001366828,0.0001981441,3,1
-0.0001507825,0.0001898788,3,1
-0.000147055,0.0001723757,3,1
-0.0001415448,0.0001513072,3,1
-0.0001502963,0.0001342904,3,1
-0.0001856265,0.0001287802,3,1
-0.0002472114,0.0001325077,3,1
-0.000318358,0.000135911,3,1
-0.0003668155,0.0001295905,3,1
-0.0003682741,0.0001073875,3,1
-0.0003222476,6.622294e-05,3,1
-0.0002395943,5.286387e-06,3,1
-0.0001344139,-6.780507e-05,3,1
-2.664048e-05,-0.0001430034,3,1
6.03886e-05,-0.0002123673,3,1
0.0001064152,-0.0002731418,3,1
0.0001052807,-0.0003230579,3,1
6.816773e-05,-0.0003587123,3,1
1.12828e-05,-0.0003770257,3,1
-5.176061e-05,-0.0003760533,3,1
-0.00010978,-0.000355633,3,1
-0.0001527273,-0.0003251648,3,1
-0.0001713648,-0.0002972895,3,1
-0.0001684476,-0.0002796244,3,1
-0.0001554824,-0.0002763831,3,1
-0.000142031,-0.0002841623,3,1
-0.0001319829,-0.0002955068,3,1
-0.0001267968,-0.0003053928,3,1
-0.000122097,-0.0003165753,3,1
-0.0001052422,-0.0003386162,3,1
-6.796714e-05,-0.0003742705,3,1
-9.947754e-06,-0.0004180282,3,1
5.439218e-05,-0.0004614617,3,1
9.993253e-05,-0.0004990608,3,1
0.000106091,-0.0005300153,3,1
6.897806e-05,-0.0005578905,3,1
2.855407e-06,-0.0005760419,3,1
-6.796714e-05,-0.0005719902,3,1
-0.0001235555,-0.0005288809,3,1
-0.0001533756,-0.0004429862,3,1
-0.0001551583,-0.0003191683,3,1
-0.0001334415,-0.0001703924,3,1
-9.649064e-05,-8.002969e-06,3,1
-5.127441e-05,0.0001628139,3,1
-7.678839e-06,0.0003389789,3,1
2.100672e-05,0.0005227611,3,1
3.089271e-05,0.0007139983,3,1
2.262738e-05,0.0008966461,3,1
-8.720959e-07,0.001037805,3,1
-2.680255e-05,0.001111221,3,1
-4.317115e-05,0.001101173,3,1
-5.013995e-05,0.001013009,3,1
-5.176061e-05,0.0008728224,3,1
-4.009191e-05,0.0007141604,3,1
2.04508e-06,0.0005640878,3,1
8.696731e-05,0.0004380009,3,1
0.0002064095,0.0003410858,3,1
0.0003396272,0.0002611876,3,1
0.0004644175,0.0001843686,3,1
0.0005598741,0.0001049566,3,1
0.0006033076,2.473423e-05,3,1
0.0005848321,-4.997789e-05,3,1
0.000515144,-0.0001178833,3,1
0.0004157979,-0.0001784957,3,1
0.0003106175,-0.0002311669,3,1
0.0002138645,-0.0002721694,3,1
0.0001347766,-0.0002921034,3,1
8.226741e-05,-0.0002857829,3,1
5.698522e-05,-0.0002517492,3,1
5.212327e-05,-0.0001959987,3,1
5.730935e-05,-0.0001267968,3,1
5.763349e-05,-5.32192e-05,3,1
4.742337e-05,2.084466e-05,3,1
3.429608e-05,0.0001018773,3,1
2.716521e-05,0.0001974959,3,1
2.781346e-05,0.0003132105,3,1
3.218923e-05,0.0004475628,3,1
3.964424e-05,0.0005901803,3,1
4.936815e-05,0.0007170775,3,1
5.763349e-05,0.0008036205,3,1
5.698522e-05,0.0008305234,3,1
3.98063e-05,0.0007972999,3,1
6.420843e-06,0.000713188,3,1
-3.328516e-05,0.0005984457,3,1
-7.137051e-05,0.0004725208,3,1
-9.940781e-05,0.0003504856,3,1
-0.0001162626,0.0002404432,3,1
-0.0001302002,0.0001474177,3,1
-0.0001512687,7.20573e-05,3,1
-0.0001853024,1.144487e-05,3,1
-0.0002348944,-4.43056e-05,3,1
-0.0002878898,-9.486997e-05,3,1
-0.0003271096,-0.0001360346,3,1
-0.0003345645,-0.0001673132,3,1
-0.0003084721,-0.0001987538,3,1
-0.0002605007,-0.0002420253,3,1
-0.0002117191,-0.0002979378,3,1
-0.0001747682,-0.000358064,3,1
-0.0001502963,-0.0004099249,3,1
-0.0001295519,-0.000439907,3,1
-0.0001021629,-0.0004420138,3,1
-6.342931e-05,-0.0004214316,3,1
-1.902341e-05,-0.0003862634,3,1
2.39239e-05,-0.0003493125,3,1
6.233338e-05,-0.0003227338,3,1
8.664318e-05,-0.0003097686,3,1
8.907416e-05,-0.0003031239,3,1
6.703327e-05,-0.0002877277,3,1
3.380988e-05,-0.0002431597,3,1
1.112074e-05,-0.0001609926,3,1
1.193106e-05,-5.354332e-05,3,1
3.024445e-05,5.374392e-05,3,1
5.374392e-05,0.0001419075,3,1
6.897806e-05,0.0002005751,3,1
6.816773e-05,0.0002224539,3,1
4.693717e-05,0.0002041406,3,1
4.151929e-06,0.000155683,3,1
-5.127441e-05,9.426025e-05,3,1
-0.0001031353,3.397195e-05,3,1
-0.0001326312,-1.594417e-05,3,1
-0.0001334415,-5.192267e-05,3,1
-0.0001065387,-7.201877e-05,3,1
-4.138842e-05,-7.882551e-05,3,1
7.351589e-05,-7.461182e-05,3,1
0.0002209954,-6.278104e-05,3,1
0.0003491891,-4.317115e-05,3,1
0.0004099636,-1.610624e-05,3,1
0.000386302,1.079661e-05,3,1
0.0002983005,2.376183e-05,3,1
0.0001918236,1.403791e-05,3,1
0.0001104668,-1.578211e-05,3,1
7.740546e-05,-5.581224e-05,3,1
9.426025e-05,-9.681477e-05,3,1
0.0001425557,-0.0001336036,3,1
0.0001940925,-0.0001588858,3,1
0.0002260194,-0.0001653684,3,1
0.000227478,-0.0001541859,3,1
0.0001999268,-0.0001329553,3,1
0.0001584381,-0.0001118868,3,1
0.0001260251,-9.600444e-05,3,1
0.0001148425,-8.611845e-05,3,1
0.0001227837,-8.174268e-05,3,1
0.0001370455,-8.125649e-05,3,1
0.0001519555,-8.352541e-05,3,1
0.0001668655,-8.741498e-05,3,1
0.0001830721,-9.017008e-05,3,1
0.0001963614,-9.049421e-05,3,1
0.0002044647,-8.628052e-05,3,1
0.0002059233,-8.012204e-05,3,1
0.0001994406,-7.412562e-05,3,1
0.0001872858,-6.650855e-05,3,1
0.0001762653,-5.354332e-05,3,1
0.0001723757,-3.360929e-05,3,1
0.0001701068,-1.335113e-05,3,1
0.0001616794,4.638125e-06,3,1
0.0001422316,1.695509e-05,3,1
0.0001124116,2.100672e-05,3,1
7.708133e-05,2.01964e-05,3,1
3.867184e-05,1.64689e-05,3,1
-6.544382e-06,8.041497e-06,3,1
-5.856735e-05,-1.043395e-05,3,1
-0.000112211,-3.668853e-05,3,1
-0.0001665028,-6.569822e-05,3,1
-0.0002219292,-8.871149e-05,3,1
-0.0002773555,-0.0001000561,3,1
-0.0003352128,-0.0001002181,3,1
-0.0003945287,-9.146661e-05,3,1
-0.0004484965,-7.785312e-05,3,1
-0.0004878783,-6.213279e-05,3,1
-0.0005110537,-5.062615e-05,3,1
-0.0005167259,-4.90055e-05,3,1
-0.0005050572,-5.889148e-05,3,1
-0.0004807475,-7.396356e-05,3,1
-0.0004570859,-8.547019e-05,3,1
-0.0004462276,-9.260107e-05,3,1
-0.0004494688,-9.794922e-05,3,1
-0.0004515757,-0.0001067007,3,1
-0.0004334244,-0.0001214487,3,1
-0.0003823738,-0.0001423551,3,1
-0.0003063652,-0.0001635857,3,1
-0.0002282497,-0.0001788198,3,1
-0.0001755785,-0.0001901644,3,1
-0.0001674752,-0.0002029675,3,1
-0.0001981056,-0.0002220912,3,1
-0.0002386219,-0.0002472114,3,1
-0.0002530457,-0.0002700626,3,1
-0.0002143121,-0.0002817312,3,1
-0.0001154523,-0.0002778417,3,1
2.068259e-05,-0.0002533699,3,1
0.0001493625,-0.0002099363,3,1
0.0002284504,-0.000156941,3,1
0.0002406053,-9.989401e-05,3,1
0.0001932822,-3.490581e-05,3,1
0.0001180839,4.35338e-05,3,1
5.228533e-05,0.0001318594,3,1
1.776542e-05,0.0002182402,3,1
9.175954e-06,0.000289549,3,1
9.66215e-06,0.0003375204,3,1
6.744974e-06,0.0003608578,3,1
-6.176923e-08,0.0003626405,3,1
-8.651231e-06,0.0003495132,3,1
-1.351319e-05,0.0003326584,3,1
-6.868513e-06,0.0003240689,3,1
1.938607e-05,0.0003331446,3,1
7.059871e-05,0.0003626405,3,1
0.0001430419,0.00040105,3,1
0.0002290986,0.0004320045,3,1
0.000316938,0.0004415663,3,1
0.0003884089,0.0004269804,3,1
0.0004264942,0.0004031568,3,1
0.0004221185,0.0003811159,3,1
0.0003820883,0.0003681507,3,1
0.0003200173,0.0003600474,3,1
0.0002538946,0.0003414099,3,1
0.0001981441,0.000304459,3,1
0.0001592484,0.0002482223,3,1
0.0001399627,0.0001788584,3,1
0.0001378558,0.0001106288,3,1
0.00015309,5.763349e-05,3,1
0.0001876099,2.635488e-05,3,1
0.0002373639,1.257933e-05,3,1
0.000289549,1.387585e-05,3,1
0.0003258516,3.316162e-05,3,1
0.0003329825,7.546067e-05,3,1
0.0003078624,0.000140773,3,1
0.0002589186,0.0002205092,3,1
0.000207706,0.0003034866,3,1
0.0001722137,0.0003751195,3,1
0.0001560072,0.0004251977,3,1
0.0001558451,0.0004446456,3,1
0.0001675138,0.0004323286,3,1
0.0001819376,0.0003921364,3,1
0.0001871237,0.0003323342,3,1
0.0001786963,0.0002628082,3,1
0.0001592484,0.0001963614,3,1
0.0001325077,0.0001430419,3,1
0.0001017153,0.0001052807,3,1
7.157111e-05,8.437427e-05,3,1
4.142696e-05,7.740546e-05,3,1
7.555301e-06,7.918817e-05,3,1
-3.296103e-05,8.178122e-05,3,1
-8.012204e-05,7.918817e-05,3,1
-0.0001327933,6.881599e-05,3,1
-0.0001844921,5.455425e-05,3,1
-0.0002308428,3.721326e-05,3,1
-0.0002702246,1.403791e-05,3,1
-0.0002925897,-1.772689e-05,3,1
-0.0002817312,-5.532604e-05,3,1
-0.0002360289,-9.422172e-05,3,1
-0.000169258,-0.0001311726,3,1
-0.0001013526,-0.0001587237,3,1
-4.965376e-05,-0.000179306,3,1
-2.129233e-05,-0.0001998883,3,1
-2.339918e-05,-0.0002250084,3,1
-6.261898e-05,-0.0002543422,3,1
-0.0001350622,-0.0002869174,3,1
-0.0002173914,-0.0003225718,3,1
-0.0002817312,-0.0003596847,3,1
-0.0003029619,-0.0003929081,3,1
-0.0002608248,-0.0004198109,3,1
-0.0001585616,-0.0004387725,3,1
-2.84232e-05,-0.0004468758,3,1
8.210535e-05,-0.0004463896,3,1
0.0001380179,-0.0004408794,3,1
0.000128456,-0.0004379622,3,1
6.719535e-05,-0.0004425001,3,1
-1.529591e-05,-0.0004509274,3,1
-8.384954e-05,-0.0004593548,3,1
-0.0001182074,-0.0004588687,3,1
-0.0001225832,-0.0004428242,3,1
-0.0001139937,-0.000405063,3,1
-0.0001071869,-0.0003444506,3,1
-0.0001032974,-0.0002690902,3,1
-9.778715e-05,-0.0001872472,3,1
-9.600444e-05,-9.892161e-05,3,1
-0.0001007043,-8.720959e-07,3,1
-0.0001065387,0.0001031738,3,1
-0.0001044318,0.0002010613,3,1
-8.952183e-05,0.0002730183,3,1
-6.586029e-05,0.000304297,3,1
-4.268495e-05,0.0002947351,3,1
-2.437157e-05,0.0002545429,3,1
-6.706447e-06,0.0001981441,3,1
1.906194e-05,0.0001363972,3,1
5.779555e-05,7.772959e-05,3,1
0.0001069013,2.570662e-05,3,1
0.000155521,-1.756482e-05,3,1
0.000187772,-4.787104e-05,3,1
0.0001945787,-5.856735e-05,3,1
0.0001783722,-4.787104e-05,3,1
0.0001474177,-2.372331e-05,3,1
0.0001094944,6.420843e-06,3,1
7.221937e-05,3.18651e-05,3,1
4.320967e-05,4.790957e-05,3,1
2.603075e-05,5.131294e-05,3,1
2.116879e-05,4.709924e-05,3,1
2.700314e-05,4.466826e-05,3,1
4.175109e-05,4.969229e-05,3,1
6.78436e-05,6.055066e-05,3,1
0.00010366,6.914012e-05,3,1
0.0001474177,7.221937e-05,3,1
0.0001950649,7.400208e-05,3,1
0.0002444948,8.032264e-05,3,1
0.0002882525,9.442231e-05,3,1
0.0003146691,0.0001175977,3,1
0.0003132105,0.0001420695,3,1
0.0002773941,0.0001569795,3,1
0.0002088404,0.0001535762,3,1
0.0001253768,0.0001320215,3,1
5.811968e-05,0.0001012291,3,1
2.878586e-05,7.6271e-05,3,1
3.60788e-05,6.703327e-05,3,1
6.427817e-05,7.367795e-05,3,1
9.766362e-05,9.037068e-05,3,1
0.0001193804,0.0001083599,3,1
0.0001203528,0.0001213252,3,1
9.831188e-05,0.0001268354,3,1
6.314371e-05,0.0001222976,3,1
2.846173e-05,0.0001112771,3,1
5.124321e-06,0.000101067,3,1
-3.14101e-06,9.182927e-05,3,1
-2.330684e-06,8.242948e-05,3,1
-3.858999e-07,7.367795e-05,3,1
-5.89612e-06,6.557468e-05,3,1
-2.129233e-05,5.811968e-05,3,1
-3.992984e-05,5.536457e-05,3,1
-5.500191e-05,5.682316e-05,3,1
-6.521203e-05,6.103686e-05,3,1
-7.104638e-05,6.573675e-05,3,1
-7.412562e-05,6.751948e-05,3,1
-7.509801e-05,6.654708e-05,3,1
-7.250496e-05,6.83298e-05,3,1
-6.974985e-05,7.918817e-05,3,1
-7.23429e-05,9.750156e-05,3,1
-8.417367e-05,0.0001116012,3,1
-0.0001057284,0.0001130598,3,1
-0.0001313347,9.26396e-05,3,1
-0.0001541859,4.758544e-05,3,1
-0.0001726613,-1.67545e-05,3,1
-0.0001835197,-8.206682e-05,3,1
-0.0001865989,-0.0001300382,3,1
-0.0001810887,-0.0001543479,3,1
-0.0001707166,-0.0001574272,3,1
-0.0001622891,-0.0001488377,3,1
-0.0001630995,-0.0001366828,3,1
-0.0001713648,-0.0001256624,3,1
-0.0001776853,-0.0001146419,3,1
-0.0001708786,-0.0001036215,3,1
-0.0001485136,-9.568031e-05,3,1
-0.0001219349,-9.454585e-05,3,1
-0.0001054042,-9.519411e-05,3,1
-9.956988e-05,-9.260107e-05,3,1
-9.616651e-05,-8.417367e-05,3,1
-9.098041e-05,-7.169464e-05,3,1
-8.628052e-05,-6.132246e-05,3,1
-8.514606e-05,-5.775702e-05,3,1
-8.854943e-05,-5.921561e-05,3,1
-9.519411e-05,-6.148453e-05,3,1
-9.746302e-05,-5.69467e-05,3,1
-9.730096e-05,-4.252288e-05,3,1
-0.0001079973,-2.485776e-05,3,1
-0.000137007,-1.643037e-05,3,1
-0.0001746061,-2.858527e-05,3,1
-0.0002023193,-6.44017e-05,3,1
-0.000201671,-0.0001180453,3,1
-0.0001689338,-0.0001809267,3,1
-0.0001126972,-0.0002382978,3,1
-5.532604e-05,-0.000276059,3,1
-2.064406e-05,-0.0002895104,3,1
-1.464765e-05,-0.000285945,3,1
-2.404744e-05,-0.0002734659,3,1
-2.161646e-05,-0.0002561249,3,1
9.66215e-06,-0.0002300324,3,1
7.173317e-05,-0.0001807646,3,1
0.0001501728,-0.0001018388,3,1
0.000225047,5.772582e-06,3,1
0.0002827423,0.0001300767,3,1
0.0003196932,0.0002576221,3,1
0.0003399513,0.0003679886,3,1
0.0003508097,0.0004409181,3,1
0.000356644,0.0004673347,3,1
0.0003501615,0.0004524247,3,1
0.000319369,0.000411098,3,1
0.0002576221,0.0003679886,3,1
0.0001782101,0.0003485408,3,1
0.0001026876,0.0003749574,3,1
5.050261e-05,0.000450642,3,1
3.60788e-05,0.00055955,3,1
6.119892e-05,0.0006718613,3,1
0.0001124116,0.0007579181,3,1
0.0001665414,0.0007953551,3,1
0.0002021958,0.0007750969,3,1
0.0002057612,0.0007000606,3,1
0.0001806411,0.0005864528,3,1
0.0001375317,0.0004542074,3,1
8.875003e-05,0.0003227724,3,1
4.547859e-05,0.0002072198,3,1
1.290346e-05,0.0001143563,3,1
2.623614e-07,4.871989e-05,3,1
1.403791e-05,7.879432e-06,3,1
5.244739e-05,-1.480971e-05,3,1
0.0001028497,-3.134038e-05,3,1
0.0001404489,-5.208474e-05,3,1
0.0001410971,-8.02841e-05,3,1
9.555677e-05,-0.0001167488,3,1
2.230325e-05,-0.0001582375,3,1
-4.592625e-05,-0.0002011848,3,1
-8.368748e-05,-0.0002378116,3,1
-9.000802e-05,-0.0002635799,3,1
-7.769106e-05,-0.0002831898,3,1
-6.699475e-05,-0.000305879,3,1
-7.363943e-05,-0.0003387782,3,1
-0.0001068628,-0.0003799429,3,1
-0.0001642339,-0.0004217557,3,1
-0.0002263049,-0.000457248,3,1
-0.000268604,-0.0004804233,3,1
-0.00027849,-0.0004886886,3,1
-0.0002556388,-0.0004779923,3,1
-0.0002151224,-0.0004506033,3,1
-0.000171851,-0.0004107352,3,1
-0.0001313347,-0.0003640605,3,1
-9.616651e-05,-0.0003104168,3,1
-6.472583e-05,-0.0002446183,3,1
-2.809907e-05,-0.0001608306,3,1
2.100672e-05,-5.775702e-05,3,1
8.113296e-05,6.103686e-05,3,1
0.0001368834,0.0001846927,3,1
0.0001731861,0.0002924662,3,1
0.0001871237,0.0003589129,3,1
0.0001806411,0.000368799,3,1
0.0001598967,0.0003269861,3,1
0.0001295905,0.0002585945,3,1
8.923623e-05,0.0001942546,3,1
4.466826e-05,0.0001540623,3,1
4.313994e-06,0.0001404489,3,1
-2.339918e-05,0.0001325077,3,1
-3.425755e-05,0.0001072255,3,1
-3.069211e-05,5.277153e-05,3,1
-1.67545e-05,-2.388537e-05,3,1
9.106227e-07,-0.0001060525,3,1
1.679302e-05,-0.0001780095,3,1
2.829966e-05,-0.0002323013,3,1
3.397195e-05,-0.0002692523,3,1
3.834771e-05,-0.0002924276,3,1
4.547859e-05,-0.0003036101,3,1
5.487838e-05,-0.0003027998,3,1
6.152305e-05,-0.0002919414,3,1
6.444023e-05,-0.0002793003,3,1
6.508849e-05,-0.0002726556,3,1
6.589881e-05,-0.0002708729,3,1
6.719535e-05,-0.0002726556,3,1
6.865393e-05,-0.0002805968,3,1
7.076078e-05,-0.0002938862,3,1
7.562274e-05,-0.0003055549,3,1
8.291568e-05,-0.0003073376,3,1
9.247754e-05,-0.0002917793,3,1
9.847395e-05,-0.0002546664,3,1
9.766362e-05,-0.0002000504,3,1
9.037068e-05,-0.0001383035,3,1
7.983644e-05,-7.720486e-05,3,1
6.525056e-05,-2.064406e-05,3,1
4.142696e-05,3.105477e-05,3,1
7.879432e-06,8.113296e-05,3,1
-2.372331e-05,0.0001351007,3,1
-4.317115e-05,0.0001974959,3,1
-3.992984e-05,0.0002765838,3,1
-6.706447e-06,0.0003715541,3,1
5.406805e-05,0.0004715484,3,1
0.0001261871,0.0005616568,3,1
0.0001932822,0.0006259967,3,1
0.0002409294,0.0006567892,3,1
0.0002600531,0.0006524134,3,1
0.0002506533,0.0006212969,3,1
0.0002166196,0.0005760806,3,1
0.0001699448,0.0005263265,3,1
0.0001224596,0.0004728449,3,1
7.918817e-05,0.0004093153,3,1
4.35338e-05,0.0003354135,3,1
9.986281e-06,0.0002603772,3,1
-2.583016e-05,0.0001957132,3,1
-6.634648e-05,0.0001504969,3,1
-0.0001065387,0.0001274836,3,1
-0.0001378173,0.0001193804,3,1
-0.0001485136,0.0001164632,3,1
-0.0001373311,0.0001075496,3,1
-0.0001136696,8.405014e-05,3,1
-8.919769e-05,4.320967e-05,3,1
-7.282909e-05,-1.286493e-05,3,1
-6.699475e-05,-7.752899e-05,3,1
-7.18567e-05,-0.0001418689,3,1
-8.660465e-05,-0.0002029675,3,1
-0.0001075111,-0.0002609869,3,1
-0.000127121,-0.0003160891,3,1
-0.0001373311,-0.0003702189,3,1
-0.0001376552,-0.0004233763,3,1
-0.0001376552,-0.0004749131,3,1
-0.0001485136,-0.0005256396,3,1
-0.0001749302,-0.0005724764,3,1
-0.0002100984,-0.0006091032,3,1
-0.000243808,-0.0006274165,3,1
-0.0002624455,-0.0006222305,3,1
-0.0002619593,-0.0005932208,3,1
-0.0002476975,-0.0005410357,3,1
-0.0002251705,-0.0004619479,3,1
-0.0002005366,-0.0003533641,3,1
-0.0001754164,-0.0002180396,3,1
-0.0001499722,-6.521203e-05,3,1
-0.0001311726,8.599492e-05,3,1
-0.0001259865,0.0002115956,3,1
-0.0001331174,0.0002953834,3,1
-0.000144462,0.0003337929,3,1
-0.0001535376,0.000331848,3,1
-0.0001501342,0.0002997591,3,1
-0.0001326312,0.0002538946,3,1
-0.0001068628,0.0002166196,3,1
-8.384954e-05,0.0002044647,3,1
-6.586029e-05,0.0002218057,3,1
-4.544006e-05,0.0002705873,3,1
-1.886135e-05,0.0003530786,3,1
1.760335e-05,0.0004645796,3,1
6.314371e-05,0.0005835356,3,1
0.0001172735,0.0006781818,3,1
0.0001782101,0.0007214533,3,1
0.0002438466,0.0007005468,3,1
0.0002999212,0.000616759,3,1
0.0003289309,0.0004864584,3,1
0.0003230965,0.0003362238,3,1
0.0002960316,0.0001884202,3,1
0.0002665357,6.071273e-05,3,1
0.0002441707,-3.393342e-05,3,1
0.0002292607,-9.179074e-05,3,1
0.0002169437,-0.0001180453,3,1
0.0002060853,-0.0001203142,3,1
0.0001997648,-0.0001083214,3,1
0.0001974959,-9.324933e-05,3,1
0.0001947408,-8.255302e-05,3,1
0.0001919856,-8.093236e-05,3,1
0.0001902029,-8.44978e-05,3,1
0.0001945787,-9.260107e-05,3,1
0.0002049509,-0.0001008664,3,1
0.0002184023,-0.0001054042,3,1
0.0002286124,-0.0001039456,3,1
0.000230071,-9.324933e-05,3,1
0.0002179161,-7.299116e-05,3,1
0.0001926339,-4.706071e-05,3,1
0.0001582761,-2.210265e-05,3,1
0.0001229458,-1.844488e-06,3,1
9.393612e-05,1.12828e-05,3,1
7.562274e-05,1.630683e-05,3,1
6.865393e-05,1.209313e-05,3,1
7.30297e-05,-5.479652e-07,3,1
8.74535e-05,-1.529591e-05,3,1
0.0001099806,-2.323711e-05,3,1
0.0001257009,-2.372331e-05,3,1
0.0001153287,-2.194059e-05,3,1
7.481241e-05,-2.404744e-05,3,1
1.954813e-05,-3.604027e-05,3,1
-3.312309e-05,-6.0188e-05,3,1
-7.477388e-05,-9.049421e-05,3,1
-0.0001055663,-0.0001167488,3,1
-0.000132145,-0.0001323071,3,1
-0.0001603444,-0.0001350622,3,1
-0.0001930815,-0.0001282554,3,1
-0.0002292221,-0.0001186936,3,1
-0.0002681178,-0.0001118868,3,1
-0.0003070135,-0.0001092938,3,1
-0.0003413713,-0.0001083214,3,1
-0.0003676259,-0.0001081593,3,1
-0.0003890185,-0.0001115627,3,1
-0.0004104111,-0.0001185315,3,1
-0.0004340726,-0.0001229073,3,1
-0.0004506033,-0.0001167488,3,1
-0.0004425001,-9.454585e-05,3,1
-0.0003959873,-5.791909e-05,3,1
-0.0003165753,-1.416145e-05,3,1
-0.0002250084,2.684107e-05,3,1
-0.0001460826,6.119892e-05,3,1
-9.098041e-05,9.16672e-05,3,1
-5.127441e-05,0.0001239182,3,1
-1.351319e-05,0.0001564933,3,1
2.084466e-05,0.0001808031,3,1
3.737532e-05,0.0001874478,3,1
2.230325e-05,0.0001717275,3,1
-1.886135e-05,0.0001375317,3,1
-6.39155e-05,9.134307e-05,3,1
-8.530812e-05,4.418206e-05,3,1
-7.250496e-05,2.693341e-06,3,1
-3.085418e-05,-2.258885e-05,3,1
1.97102e-05,-2.145439e-05,3,1
6.168512e-05,8.365628e-06,3,1
8.372601e-05,5.1475e-05,3,1
8.826383e-05,7.951231e-05,3,1
8.194328e-05,6.83298e-05,3,1
7.335383e-05,1.014835e-05,3,1
7.270556e-05,-7.882551e-05,3,1
8.891209e-05,-0.0001771992,3,1
0.000123432,-0.0002619593,3,1
0.0001644345,-0.000318358,3,1
0.0001989545,-0.0003457471,3,1
0.0002154851,-0.0003522297,3,1
0.0002145127,-0.0003438023,3,1
0.0001983062,-0.0003222476,3,1
0.0001709172,-0.0002869174,3,1
0.0001360731,-0.0002394322,3,1
9.507057e-05,-0.0001804405,3,1
5.277153e-05,-0.0001185315,3,1
1.727922e-05,-6.051213e-05,3,1
-6.176923e-08,-8.002969e-06,3,1
3.179537e-06,4.677511e-05,3,1
2.116879e-05,0.0001169494,3,1
4.35338e-05,0.0002119197,3,1
6.881599e-05,0.0003234207,3,1
0.0001052807,0.0004305459,3,1
0.0001579519,0.0005097958,3,1
0.0002245608,0.000539778,3,1
0.0002940868,0.0005088235,3,1
0.000354051,0.0004279528,3,1
0.0003942432,0.0003203414,3,1
0.0004062361,0.0002149989,3,1
0.0003871123,0.0001321835,3,1
0.0003485408,7.935024e-05,3,1
0.0003138588,5.439218e-05,3,1
0.0002997591,4.612685e-05,3,1
0.0003004074,4.337174e-05,3,1
0.0002944109,4.094075e-05,3,1
0.0002670219,3.915804e-05,3,1
0.0002219677,4.418206e-05,3,1
0.0001717275,6.233338e-05,3,1
0.0001331559,9.490851e-05,3,1
0.0001137081,0.0001336421,3,1
0.0001080358,0.0001626518,3,1
0.0001044704,0.0001709172,3,1
9.16672e-05,0.0001492004,3,1
6.525056e-05,9.847395e-05,3,1
2.748934e-05,3.18651e-05,3,1
-1.3027e-05,-3.522994e-05,3,1
-4.770897e-05,-9.114248e-05,3,1
-7.363943e-05,-0.000134576,3,1
-9.017008e-05,-0.0001721751,3,1
-9.713889e-05,-0.0002071812,3,1
-9.827335e-05,-0.0002386219,3,1
-0.0001018388,-0.0002621213,3,1
-0.0001126972,-0.000273628,3,1
-0.0001318209,-0.0002713591,3,1
-0.0001585616,-0.0002567732,3,1
-0.0001885437,-0.0002300324,3,1
-0.0002144742,-0.0001906506,3,1
-0.0002326255,-0.0001394379,3,1
-0.0002391081,-7.736692e-05,3,1
-0.0002342462,-5.409925e-06,3,1
-0.0002170672,7.643307e-05,3,1
-0.0001851404,0.0001684862,3,1
-0.0001428413,0.0002689667,3,1
-0.0001088076,0.0003644232,3,1
-9.762509e-05,0.0004339493,3,1
-0.00010978,0.0004623107,3,1
-0.0001358725,0.0004444835,3,1
-0.0001682856,0.0003854917,3,1
-0.0002018331,0.0002997591,3,1
-0.0002394322,0.0002073819,3,1
-0.0002768693,0.0001269974,3,1
-0.0003063652,6.978839e-05,3,1
-0.0003115513,3.575467e-05,3,1
-0.0002852967,1.727922e-05,3,1
-0.0002287359,1.720949e-06,3,1
-0.0001558065,-1.853722e-05,3,1
-8.935975e-05,-4.495386e-05,3,1
-4.025397e-05,-7.104638e-05,3,1
-1.221667e-05,-9.065628e-05,3,1
-1.520357e-06,-9.827335e-05,3,1
2.207145e-06,-9.811128e-05,3,1
8.689758e-06,-9.794922e-05,3,1
1.906194e-05,-0.0001042698,3,1
3.13789e-05,-0.0001195039,3,1
3.93201e-05,-0.0001478653,3,1
3.510641e-05,-0.0001849783,3,1
1.711715e-05,-0.0002203085,3,1
-9.947754e-06,-0.0002431597,3,1
-3.182657e-05,-0.0002515871,3,1
-3.782299e-05,-0.0002494803,3,1
-2.664048e-05,-0.0002410529,3,1
-5.085794e-06,-0.0002285739,3,1
1.987227e-05,-0.0002117191,3,1
4.126489e-05,-0.0001885437,3,1
4.628891e-05,-0.0001618029,3,1
2.311357e-05,-0.0001361966,3,1
-2.323711e-05,-0.0001191798,3,1
-7.169464e-05,-0.0001105903,3,1
-9.389759e-05,-0.0001089697,3,1
-7.65566e-05,-0.0001133454,3,1
-2.0482e-05,-0.0001232314,3,1
5.698522e-05,-0.0001314967,3,1
0.0001321835,-0.0001318209,3,1
0.0001924718,-0.0001225832,3,1
0.000237526,-0.0001055663,3,1
0.0002707494,-8.368748e-05,3,1
0.0002950592,-6.116039e-05,3,1
0.00030689,-4.236082e-05,3,1
0.000299435,-2.550602e-05,3,1
0.0002705873,-8.813297e-06,3,1
0.0002273159,4.80019e-06,3,1
0.00018291,1.031041e-05,3,1
0.0001462832,5.772582e-06,3,1
0.0001227837,-4.275467e-06,3,1
0.000113546,-8.489166e-06,3,1
0.0001174356,2.531276e-06,3,1
0.0001244044,3.348575e-05,3,1
0.000121001,7.691926e-05,3,1
9.896015e-05,0.0001216493,3,1
5.909208e-05,0.0001595726,3,1
1.079661e-05,0.0001923098,3,1
-3.182657e-05,0.0002284504,3,1
-6.083626e-05,0.0002760976,3,1
-7.056019e-05,0.0003352514,3,1
-6.326724e-05,0.000393757,3,1
-4.657452e-05,0.0004365423,3,1
-2.615429e-05,0.0004540453,3,1
-3.858999e-07,0.0004475628,3,1
3.429608e-05,0.0004248736,3,1
7.983644e-05,0.0003982949,3,1
0.0001300767,0.0003796573,3,1
0.000170593,0.0003775505,3,1
0.0001882582,0.0003906778,3,1
0.0001773998,0.0004164462,3,1
0.0001493625,0.0004461041,3,1
0.000118408,0.0004725208,3,1
9.328786e-05,0.0004866205,3,1
6.687121e-05,0.0004749518,3,1
2.457216e-05,0.0004323286,3,1
-4.236082e-05,0.0003613439,3,1
-0.0001287416,0.0002694529,3,1
-0.0002183637,0.0001697827,3,1
-0.0002919414,7.076078e-05,3,1
-0.0003415334,-2.177852e-05,3,1
-0.0003676259,-9.811128e-05,3,1
-0.0003698948,-0.000147055,3,1
-0.000353202,-0.0001686097,3,1
-0.0003237062,-0.0001710407,3,1
-0.0002887001,-0.0001679614,3,1
-0.0002543422,-0.0001684476,3,1
-0.0002279256,-0.0001755785,3,1
-0.0002034537,-0.0001901644,3,1
-0.0001677994,-0.0002109087,3,1
-0.0001182074,-0.0002342462,3,1
-6.618442e-05,-0.0002561249,3,1
-2.583016e-05,-0.0002778417,3,1
-2.168618e-06,-0.0002963172,3,1
1.12828e-05,-0.0003099306,3,1
2.424803e-05,-0.0003167374,3,1
3.915804e-05,-0.0003220855,3,1
4.888196e-05,-0.000328244,3,1
4.547859e-05,-0.0003340784,3,1
3.18651e-05,-0.0003324577,3,1
2.149292e-05,-0.0003203028,3,1
2.554455e-05,-0.0003013411,3,1
4.807163e-05,-0.0002840002,3,1
8.388807e-05,-0.0002716832,3,1
0.0001240803,-0.0002647144,3,1
0.0001551968,-0.0002590421,3,1
0.0001675138,-0.0002489941,3,1
0.0001647587,-0.000231329,3,1
0.0001592484,-0.0002075054,3,1
0.0001637863,-0.000181737,3,1
0.0001887444,-0.0001572651,3,1
0.0002299089,-0.0001340898,3,1
0.0002733424,-0.0001088076,3,1
0.0003008936,-8.271508e-05,3,1
0.0002987867,-5.613637e-05,3,1
0.0002686426,-2.7937e-05,3,1
0.0002193747,3.503668e-06,3,1
0.0001613553,4.223728e-05,3,1
0.0001046324,8.712937e-05,3,1
5.066468e-05,0.0001313732,3,1
-7.100305e-07,0.0001665414,3,1
-3.830919e-05,0.0001898788,3,1
-4.738484e-05,0.0001966855,3,1
-1.788895e-05,0.0001908512,3,1
5.406805e-05,0.0001731861,3,1
0.0001618415,0.0001487142,3,1
0.000284525,0.0001244044,3,1
0.0003843572,0.0001062531,3,1
0.000426008,9.993253e-05,3,1
0.0003926226,0.0001057669,3,1
0.0002885766,0.0001198666,3,1
0.0001344524,0.0001338042,3,1
-3.571614e-05,0.0001363972,3,1
-0.0001831956,0.0001174356,3,1
-0.0002814071,7.659513e-05,3,1
-0.0003193304,2.522042e-05,3,1
-0.0003026377,-1.983374e-05,3,1
-0.0002379736,-4.252288e-05,3,1
-0.0001394379,-3.911951e-05,3,1
-3.231277e-05,-1.67545e-05,3,1
5.585077e-05,1.22552e-05,3,1
0.0001018773,3.55926e-05,3,1
0.0001004187,4.758544e-05,3,1
6.314371e-05,4.35338e-05,3,1
1.014835e-05,2.441009e-05,3,1
-3.782299e-05,3.017472e-06,3,1
-7.282909e-05,-1.237873e-05,3,1
-9.341139e-05,-1.837515e-05,3,1
-0.0001044318,-1.691656e-05,3,1
-0.0001156143,-1.075808e-05,3,1
-0.0001303623,2.623614e-07,3,1
-0.0001431655,2.133085e-05,3,1
-0.000149486,5.56887e-05,3,1
-0.0001457585,0.000105929,3,1
-0.0001374932,0.0001762653,3,1
-0.0001319829,0.0002681563,3,1
-0.0001352242,0.0003681507,3,1
-0.0001475412,0.0004462662,3,1
-0.0001673132,0.0004720346,3,1
-0.0001877334,0.0004336251,3,1
-0.0001997262,0.0003422202,3,1
-0.0001982676,0.00022764,3,1
-0.0001812508,0.0001180839,3,1
-0.0001532135,3.316162e-05,3,1
-0.000127283,-2.372331e-05,3,1
-0.0001079973,-6.132246e-05,3,1
-9.713889e-05,-8.692878e-05,3,1
-9.924574e-05,-0.0001036215,3,1
-0.0001117248,-0.0001041077,3,1
-0.000127121,-7.363943e-05,3,1
-0.0001365208,-2.654814e-06,3,1
-0.0001339277,0.0001049566,3,1
-0.0001182074,0.0002334744,3,1
-8.628052e-05,0.0003511338,3,1
-3.490581e-05,0.0004266563,3,1
2.732727e-05,0.0004368664,3,1
8.064677e-05,0.0003769022,3,1
0.0001025256,0.000257298,3,1
8.340187e-05,0.0001025256,3,1
2.635488e-05,-6.261898e-05,3,1
-5.192267e-05,-0.000216581,3,1
-0.0001253383,-0.0003373197,3,1
-0.0001653684,-0.000410249,3,1
-0.0001582375,-0.0004332623,3,1
-0.000112373,-0.0004180282,3,1
-4.916756e-05,-0.0003864254,3,1
9.338019e-06,-0.0003557951,3,1
5.001642e-05,-0.0003392644,3,1
6.508849e-05,-0.0003399127,3,1
5.747142e-05,-0.0003449367,3,1
4.061663e-05,-0.000340561,3,1
3.526847e-05,-0.0003194925,3,1
5.860588e-05,-0.0002805968,3,1
0.000123432,-0.0002258187,3,1
0.0002208333,-0.0001588858,3,1
0.0003240689,-8.935975e-05,3,1
0.0003999155,-2.583016e-05,3,1
0.000428277,2.862379e-05,3,1
0.0004104497,8.194328e-05,3,1
0.0003632887,0.0001443384,3,1
0.0003117519,0.000222616,3,1
0.0002718839,0.000311914,3,1
0.0002438466,0.0003884089,3,1
0.0002161334,0.000423415,3,1
0.0001824238,0.0004025085,3,1
0.0001449867,0.0003354135,3,1
0.0001112771,0.0002430362,3,1
8.810177e-05,0.0001521176,3,1
8.080883e-05,8.226741e-05,3,1
8.972242e-05,4.320967e-05,3,1
0.000115977,3.397195e-05,3,1
0.0001508211,4.288554e-05,3,1
0.0001756171,5.374392e-05,3,1
0.0001757791,5.309566e-05,3,1
0.0001428799,3.55926e-05,3,1
7.967438e-05,7.879432e-06,3,1
1.558884e-06,-1.837515e-05,3,1
-7.169464e-05,-3.506788e-05,3,1
-0.0001230693,-4.333321e-05,3,1
-0.0001467309,-4.949169e-05,3,1
-0.000144624,-6.278104e-05,3,1
-0.0001211246,-8.919769e-05,3,1
-8.158062e-05,-0.0001261486,3,1
-3.604027e-05,-0.0001648822,3,1
6.420843e-06,-0.0001971332,3,1
3.413401e-05,-0.0002220912,3,1
3.948217e-05,-0.0002400805,3,1
1.808955e-05,-0.0002506147,3,1
-3.004385e-05,-0.0002509389,3,1
-9.405965e-05,-0.0002417012,3,1
-0.000151917,-0.0002245222,3,1
-0.0001898403,-0.0002006986,3,1
-0.0002036158,-0.0001681235,3,1
-0.0001968091,-0.000122097,3,1
-0.0001747682,-6.035007e-05,3,1
-0.0001423551,1.695509e-05,3,1
-0.0001029732,0.0001052807,3,1
-5.840528e-05,0.000192796,3,1
-1.270286e-05,0.0002631324,3,1
3.056858e-05,0.0003109416,3,1
6.41161e-05,0.0003383307,3,1
7.335383e-05,0.0003530786,3,1
5.374392e-05,0.0003634508,3,1
1.355172e-05,0.0003717161,3,1
-2.615429e-05,0.0003765781,3,1
-5.127441e-05,0.0003704196,3,1
-5.64605e-05,0.0003493511,3,1
-4.738484e-05,0.0003135347,3,1
-3.26369e-05,0.0002715597,3,1
-2.307504e-05,0.0002315296,3,1
-2.42095e-05,0.0001966855,3,1
-3.360929e-05,0.0001658931,3,1
-5.127441e-05,0.0001318594,3,1
-7.218083e-05,8.502253e-05,3,1
-8.806324e-05,2.34377e-05,3,1
-9.827335e-05,-4.90055e-05,3,1
-0.0001057284,-0.0001208004,3,1
-0.0001089697,-0.0001783336,3,1
-0.0001003802,-0.0002104225,3,1
-7.590833e-05,-0.0002100984,3,1
-4.074016e-05,-0.0001815749,3,1
-3.303076e-06,-0.0001413827,3,1
2.327564e-05,-0.000107349,3,1
3.283749e-05,-8.854943e-05,3,1
2.829966e-05,-8.563225e-05,3,1
1.9224e-05,-9.503204e-05,3,1
1.306552e-05,-0.0001115627,3,1
1.338965e-05,-0.0001306864,3,1
2.39239e-05,-0.0001477033,3,1
4.466826e-05,-0.000159534,3,1
7.416415e-05,-0.0001656925,3,1
0.0001065772,-0.0001658546,3,1
0.0001336421,-0.0001629374,3,1
0.0001488763,-0.0001634236,3,1
0.0001524417,-0.0001715269,3,1
0.000150659,-0.0001861127,3,1
0.0001513072,-0.0002057227,3,1
0.0001644345,-0.0002316531,3,1
0.0001919856,-0.0002648765,3,1
0.0002227781,-0.0003029619,3,1
0.0002380122,-0.0003420196,3,1
0.0002315296,-0.0003799429,3,1
0.0002117576,-0.0004164075,3,1
0.0001979821,-0.0004465517,3,1
0.0001957132,-0.0004637306,3,1
0.000192796,-0.0004630823,3,1
0.0001765894,-0.0004421759,3,1
0.0001479039,-0.0004042526,3,1
0.0001146805,-0.0003553089,3,1
8.74535e-05,-0.0003045825,3,1
7.254349e-05,-0.0002558008,3,1
7.189524e-05,-0.000206533,3,1
7.935024e-05,-0.0001486757,3,1
8.210535e-05,-7.023606e-05,3,1
7.20573e-05,3.640293e-05,3,1
4.871989e-05,0.0001668655,3,1
1.841368e-05,0.0003130485,3,1
-1.67545e-05,0.0004707381,3,1
-5.662256e-05,0.0006297242,3,1
-9.859748e-05,0.0007679661,3,1
-0.0001340898,0.0008605054,3,1
-0.0001567789,0.0008891911,3,1
-0.0001639098,0.0008561297,3,1
-0.0001556445,0.0007760693,3,1
-0.0001339277,0.0006626236,3,1
-0.0001089697,0.0005331332,3,1
-9.179074e-05,0.0004072085,3,1
-8.676672e-05,0.0003041349,3,1
-9.2439e-05,0.0002414156,3,1
-0.0001065387,0.0002284504,3,1
-0.0001253383,0.0002607014,3,1
-0.000144624,0.0003198552,3,1
-0.0001590478,0.00038614,3,1
-0.0001648822,0.0004414042,3,1
-0.0001592099,0.0004710622,3,1
-0.0001459206,0.0004684692,3,1
-0.0001329553,0.0004371906,3,1
-0.0001266348,0.0003848434,3,1
-0.0001263107,0.0003200173,3,1
-0.0001251762,0.000252274,3,1
-0.0001178833,0.0001900409,3,1
-0.0001060525,0.0001368834,3,1
-9.130454e-05,9.474644e-05,3,1
-7.801519e-05,6.281957e-05,3,1
-7.65566e-05,4.045456e-05,3,1
-9.357346e-05,2.424803e-05,3,1
-0.0001305243,7.393236e-06,3,1
-0.0001822232,-1.497178e-05,3,1
-0.0002311669,-4.38194e-05,3,1
-0.0002569353,-7.18567e-05,3,1
-0.0002501286,-8.903562e-05,3,1
-0.0002160948,-9.551824e-05,3,1
-0.0001673132,-9.827335e-05,3,1
-0.0001118868,-0.0001076731,3,1
-4.868137e-05,-0.0001310105,3,1
2.197911e-05,-0.0001712027,3,1
9.280167e-05,-0.0002274394,3,1
0.0001519555,-0.0002940482,3,1
0.0001897167,-0.000362926,3,1
0.0001992786,-0.0004237005,3,1
0.0001783722,-0.0004677822,3,1
0.0001321835,-0.0004943609,3,1
7.594687e-05,-0.0005099192,3,1
3.299956e-05,-0.0005188328,3,1
1.906194e-05,-0.00052175,3,1
3.656499e-05,-0.0005180225,3,1
7.6271e-05,-0.0005057055,3,1
0.0001195424,-0.0004847991,3,1
0.0001462832,-0.0004528722,3,1
0.0001402868,-0.0004061974,3,1
9.928428e-05,-0.000345585,3,1
4.110282e-05,-0.0002771934,3,1
-6.220252e-06,-0.0002084778,3,1
-1.805102e-05,-0.0001431655,3,1
1.209313e-05,-8.303922e-05,3,1
7.432621e-05,-2.031993e-05,3,1
0.000145797,5.309566e-05,3,1
0.0002023578,0.0001475797,3,1
0.0002281262,0.0002631324,3,1
0.0002266676,0.0003848434,3,1
0.0002166196,0.0004807861,3,1
0.0002172679,0.0005198439,3,1
0.0002370398,0.0004901859,3,1
0.0002738286,0.000406074,3,1
0.000316776,0.0002947351,3,1
0.00035162,0.0001827479,3,1
0.0003665301,9.053275e-05,3,1
0.0003576164,2.619281e-05,3,1
0.0003310377,-1.043395e-05,3,1
0.0002936006,-2.696461e-05,3,1
0.0002527602,-3.182657e-05,3,1
0.0002140265,-3.344723e-05,3,1
0.0001761032,-3.717473e-05,3,1
0.0001360731,-4.592625e-05,3,1
9.296373e-05,-6.06742e-05,3,1
4.547859e-05,-7.882551e-05,3,1
-3.951337e-06,-9.389759e-05,3,1
-4.689865e-05,-9.66527e-05,3,1
-7.266703e-05,-7.817725e-05,3,1
-7.380149e-05,-3.198864e-05,3,1
-4.997789e-05,3.93201e-05,3,1
-1.351319e-05,0.0001274836,3,1
1.987227e-05,0.000217592,3,1
3.705119e-05,0.0002973281,3,1
2.39239e-05,0.000353889,3,1
-2.680255e-05,0.0003781987,3,1
-0.000117235,0.0003730126,3,1
-0.0002386219,0.0003529166,3,1
-0.0003663294,0.0003396272,3,1
-0.0004606514,0.0003438409,3,1
-0.0004852853,0.0003577785,3,1
-0.0004290486,0.0003666921,3,1
-0.0003044204,0.0003593992,3,1
-0.0001438137,0.0003279585,3,1
5.610517e-06,0.0002678322,3,1
9.912221e-05,0.00018291,3,1
0.0001179218,8.080883e-05,3,1
7.691926e-05,-2.356124e-05,3,1
8.041497e-06,-0.0001135075,3,1
-6.051213e-05,-0.0001776853,3,1
-0.0001143178,-0.0002157707,3,1
-0.0001499722,-0.0002274394,3,1
-0.0001632615,-0.0002160948,3,1
-0.0001478653,-0.0001945401,3,1
-0.0001029732,-0.0001750923,3,1
-3.766092e-05,-0.0001624512,3,1
3.105477e-05,-0.0001582375,3,1
8.194328e-05,-0.0001656925,3,1
0.0001007429,-0.00018433,3,1
7.967438e-05,-0.0002073433,3,1
2.359977e-05,-0.0002284118,3,1
-4.787104e-05,-0.0002426735,3,1
-0.0001068628,-0.0002476975,3,1
-0.000134738,-0.0002446183,3,1
-0.0001280934,-0.0002386219,3,1
-9.794922e-05,-0.0002293842,3,1
-6.942573e-05,-0.0002170672,3,1
-6.748094e-05,-0.0002058847,3,1
-0.0001044318,-0.0001971332,3,1
-0.0001721751,-0.0001888679,3,1
-0.0002533699,-0.0001791439,3,1
-0.000335537,-0.0001682856,3,1
-0.0004087905,-0.0001567789,3,1
-0.000452386,-0.0001472171,3,1
-0.0004403932,-0.0001376552,3,1
-0.0003588744,-0.0001267968,3,1
-0.0002138259,-0.0001156143,3,1
-3.425755e-05,-0.0001075111,3,1
0.0001389903,-0.0001031353,3,1
0.0002718839,-0.0001005423,3,1
0.0003459477,-9.341139e-05,3,1
0.0003644232,-8.044617e-05,3,1
0.0003464339,-6.472583e-05,3,1
0.0003133726,-5.127441e-05,3,1
0.0002806354,-3.960571e-05,3,1
0.0002545429,-2.89094e-05,3,1
0.0002388225,-1.594417e-05,3,1
0.0002383363,2.623614e-07,3,1
0.0002495189,2.035846e-05,3,1
0.0002629703,4.45062e-05,3,1
0.0002683184,6.800567e-05,3,1
0.0002652392,8.712937e-05,3,1
0.000264753,9.831188e-05,3,1
0.0002773941,0.0001052807,3,1
0.000297004,0.0001138702,3,1
0.0003046211,0.000125863,3,1
0.0002859836,0.0001354248,3,1
0.0002388225,0.0001402868,3,1
0.0001748067,0.0001415833,3,1
0.0001132219,0.0001451488,3,1
6.735741e-05,0.000153252,3,1
4.256141e-05,0.0001649207,3,1
3.18651e-05,0.0001770756,3,1
2.700314e-05,0.000185503,3,1
2.035846e-05,0.000187772,3,1
1.1769e-05,0.0001859892,3,1
3.017472e-06,0.0001842065,3,1
-3.951337e-06,0.0001861513,3,1
-4.275467e-06,0.0001934442,3,1
4.47606e-06,0.0002047888,3,1
2.295151e-05,0.0002182402,3,1
4.385793e-05,0.0002289366,3,1
5.406805e-05,0.0002318537,3,1
4.645098e-05,0.0002239125,3,1
2.133085e-05,0.0002099749,3,1
-1.643037e-05,0.0001945787,3,1
-5.759496e-05,0.000178048,3,1
-9.438378e-05,0.0001613553,3,1
-0.0001229073,0.0001430419,3,1
-0.0001477033,0.0001242423,3,1
-0.0001733096,0.0001078737,3,1
-0.0002006986,9.377406e-05,3,1
-0.000224036,8.04847e-05,3,1
-0.0002392702,7.092284e-05,3,1
-0.0002410529,6.606088e-05,3,1
-0.000228898,6.249545e-05,3,1
-0.0002105846,5.763349e-05,3,1
-0.0001951884,5.163707e-05,3,1
-0.0001874093,4.45062e-05,3,1
-0.0001861127,3.154097e-05,3,1
-0.0001893541,1.160693e-05,3,1
-0.0001914609,-1.318906e-05,3,1
-0.0001820611,-4.074016e-05,3,1
-0.0001588858,-6.731888e-05,3,1
-0.0001212866,-8.838737e-05,3,1
-8.174268e-05,-0.0001028112,3,1
-5.727083e-05,-0.0001101041,3,1
-6.035007e-05,-0.0001101041,3,1
-8.514606e-05,-0.0001071869,3,1
-0.0001107524,-0.0001068628,3,1
-0.0001219349,-0.0001117248,3,1
-0.0001151281,-0.0001203142,3,1
-9.162867e-05,-0.0001306864,3,1
-6.39155e-05,-0.0001376552,3,1
-4.738484e-05,-0.0001392759,3,1
-4.965376e-05,-0.0001365208,3,1
-6.48879e-05,-0.0001327933,3,1
-8.07703e-05,-0.0001318209,3,1
-8.320128e-05,-0.0001361966,3,1
-6.699475e-05,-0.0001451102,3,1
-3.522994e-05,-0.0001596961,3,1
3.179537e-06,-0.0001791439,3,1
3.867184e-05,-0.0001984297,3,1
6.346784e-05,-0.000211557,3,1
7.546067e-05,-0.0002152845,3,1
7.67572e-05,-0.0002113949,3,1
7.546067e-05,-0.0002037779,3,1
7.999851e-05,-0.000199078,3,1
9.604298e-05,-0.0002000504,3,1
0.0001261871,-0.0002044261,3,1
0.0001665414,-0.0002102605,3,1
0.0002044647,-0.0002198223,3,1
0.0002312055,-0.0002305186,3,1
0.0002438466,-0.0002342462,3,1
0.0002453052,-0.0002235498,3,1
0.0002483844,-0.0001955125,3,1
0.0002621599,-0.0001493239,3,1
0.0002829043,-8.514606e-05,3,1
0.0003021901,-7.192643e-06,3,1
0.0003140208,7.027458e-05,3,1
0.000316938,0.0001305629,3,1
0.0003128864,0.0001584381,3,1
0.0003052694,0.0001488763,3,1
0.0002892249,0.0001117633,3,1
0.0002576221,6.914012e-05,3,1
0.000210299,4.402e-05,3,1
0.0001548727,5.277153e-05,3,1
9.912221e-05,0.0001002567,3,1
5.082674e-05,0.0001765894,3,1
8.365628e-06,0.000267346,3,1
-3.555408e-05,0.0003645853,3,1
-8.514606e-05,0.0004710622,3,1
-0.000129714,0.000591801,3,1
-0.0001613168,0.0007326358,3,1
-0.0001733096,0.0008882187,3,1
-0.0001653684,0.001034888,3,1
-0.0001438137,0.001140555,3,1
-0.0001208004,0.001184474,3,1
-0.0001117248,0.001161947,3,1
-0.0001240417,0.001075242,3,1
-0.0001504584,0.0009345694,3,1
-0.0001750923,0.0007611593,3,1
-0.0001789819,0.0005841838,3,1
-0.0001481895,0.0004315182,3,1
-8.174268e-05,0.0003136967,3,1
8.527692e-06,0.0002229401,3,1
0.0001009049,0.0001459591,3,1
0.000168,7.043665e-05,3,1
0.0001963614,-8.327101e-06,3,1
0.0001882582,-8.676672e-05,3,1
0.0001582761,-0.000156941,3,1
0.0001261871,-0.0002071812,3,1
0.0001103047,-0.0002374874,3,1
0.0001174356,-0.0002556388,3,1
0.0001391524,-0.0002697385,3,1
0.0001600588,-0.0002809209,3,1
0.0001634622,-0.0002899966,3,1
0.0001414213,-0.0002971275,3,1
9.588091e-05,-0.0003021515,3,1
3.656499e-05,-0.0003047445,3,1
-2.356124e-05,-0.0003042584,3,1
-7.023606e-05,-0.0003003688,3,1
-9.29252e-05,-0.0002953447,3,1
-9.114248e-05,-0.0002929138,3,1
-7.347736e-05,-0.0002976137,3,1
-5.970181e-05,-0.0003117133,3,1
-7.072225e-05,-0.0003353749,3,1
-0.0001159385,-0.0003647087,3,1
-0.0001836818,-0.0003985804,3,1
-0.0002447804,-0.0004369898,3,1
-0.0002731418,-0.00047232,3,1
-0.0002580697,-0.000494523,3,1
-0.0002050744,-0.0004940368,3,1
-0.0001311726,-0.0004731304,3,1
-6.0188e-05,-0.0004413656,3,1
-1.270286e-05,-0.0004128421,3,1
3.665733e-06,-0.0003959873,3,1
-5.734056e-06,-0.0003901529,3,1
-2.988179e-05,-0.0003872358,3,1
-5.192267e-05,-0.0003799429,3,1
-6.326724e-05,-0.0003697327,3,1
-6.586029e-05,-0.0003622777,3,1
-6.423963e-05,-0.0003632501,3,1
-5.986387e-05,-0.0003752429,3,1
-4.949169e-05,-0.0003961493,3,1
-3.182657e-05,-0.0004154351,3,1
-1.075808e-05,-0.0004207833,3,1
7.069105e-06,-0.0004039285,3,1
1.889987e-05,-0.0003609812,3,1
3.299956e-05,-0.0002956689,3,1
5.779555e-05,-0.0002159328,3,1
9.361199e-05,-0.0001323071,3,1
0.0001265113,-5.257093e-05,3,1
0.0001402868,1.160693e-05,3,1
0.0001255389,4.790957e-05,3,1
9.101894e-05,5.601284e-05,3,1
5.050261e-05,4.256141e-05,3,1
1.614476e-05,2.39239e-05,3,1
-2.654814e-06,1.857574e-05,3,1
-8.720959e-07,3.380988e-05,3,1
2.035846e-05,7.6271e-05,3,1
5.325772e-05,0.0001459591,3,1
9.004655e-05,0.0002339606,3,1
0.0001175977,0.0003232586,3,1
0.0001299146,0.0003971604,3,1
0.0001300767,0.0004512903,3,1
0.0001244044,0.0004934272,3,1
0.0001150046,0.0005345919,3,1
0.0001000946,0.0005762426,3,1
7.610894e-05,0.00060428,3,1
4.888196e-05,0.0005984457,3,1
2.927205e-05,0.0005506363,3,1
2.084466e-05,0.0004660382,3,1
1.711715e-05,0.0003613439,3,1
6.582909e-06,0.000257298,3,1
-1.237873e-05,0.0001720516,3,1
-3.198864e-05,0.0001086841,3,1
-3.911951e-05,6.055066e-05,3,1
-2.145439e-05,1.257933e-05,3,1
1.873781e-05,-4.414354e-05,3,1
6.962632e-05,-0.0001067007,3,1
0.0001127357,-0.000159372,3,1
0.0001388282,-0.000184168,3,1
0.0001503349,-0.0001739578,3,1
0.000150659,-0.0001361966,3,1
0.0001393144,-8.255302e-05,3,1
0.0001153287,-1.934754e-05,3,1
8.323981e-05,4.82337e-05,3,1
4.871989e-05,0.0001171115,3,1
1.436204e-05,0.0001918236,3,1
-1.837515e-05,0.0002819319,3,1
-4.835724e-05,0.0003906778,3,1
-8.044617e-05,0.000500234,3,1
-0.0001206384,0.0005848321,3,1
-0.000166827,0.0006253485,3,1
-0.0002144742,0.0006209727,3,1
-0.0002519113,0.0005864528,3,1
-0.0002707109,0.0005401021,3,1
-0.0002650386,0.0004926169,3,1
-0.0002352185,0.0004438352,3,1
-0.0001895161,0.0003866261,3,1
-0.0001396,0.0003158036,3,1
-9.324933e-05,0.0002286124,3,1
-5.386745e-05,0.0001334801,3,1
-2.46957e-05,4.564065e-05,3,1
-6.544382e-06,-1.934754e-05,3,1
-5.479652e-07,-5.159854e-05,3,1
-6.058186e-06,-4.706071e-05,3,1
-1.837515e-05,-1.043395e-05,3,1
-3.425755e-05,4.742337e-05,3,1
-5.159854e-05,0.0001017153,3,1
-6.715681e-05,0.0001328318,3,1
-8.125649e-05,0.0001320215,3,1
-9.438378e-05,9.588091e-05,3,1
-0.0001058904,2.359977e-05,3,1
-0.0001138316,-7.769106e-05,3,1
-0.0001139937,-0.0001869231,3,1
-0.0001070249,-0.0002802727,3,1
-9.649064e-05,-0.0003446126,3,1
-8.871149e-05,-0.0003805911,3,1
-8.012204e-05,-0.0003940425,3,1
-6.667062e-05,-0.0003929081,3,1
-5.013995e-05,-0.0003848048,3,1
-3.036798e-05,-0.0003736223,3,1
-3.789272e-06,-0.0003585502,3,1
3.089271e-05,-0.0003384541,3,1
7.076078e-05,-0.0003170615,3,1
0.0001044704,-0.0002982619,3,1
0.0001198666,-0.0002833519,3,1
0.0001073875,-0.0002721694,3,1
7.772959e-05,-0.000266173,3,1
5.358185e-05,-0.0002640662,3,1
5.082674e-05,-0.0002621213,3,1
7.092284e-05,-0.0002606628,3,1
0.000106091,-0.0002577456,3,1
0.000150659,-0.0002519113,3,1
0.0002005751,-0.0002431597,3,1
0.0002493568,-0.0002342462,3,1
0.0002856594,-0.0002217671,3,1
0.000294573,-0.0002039399,3,1
0.0002739907,-0.0001825473,3,1
0.0002430362,-0.000159372,3,1
0.0002195368,-0.0001363587,3,1
0.000210299,-0.0001151281,3,1
0.0002125679,-9.146661e-05,3,1
0.0002273159,-6.375344e-05,3,1
0.000252274,-3.409549e-05,3,1
0.0002807975,-8.489166e-06,3,1
0.0002983005,8.041497e-06,3,1
0.0002955454,1.873781e-05,3,1
0.0002733424,2.81376e-05,3,1
0.0002436845,3.948217e-05,3,1
0.0002245608,5.19612e-05,3,1
0.0002263435,6.492643e-05,3,1
0.0002430362,7.967438e-05,3,1
0.0002584324,9.458438e-05,3,1
0.0002542187,0.0001117633,3,1
0.0002216436,0.0001300767,3,1
0.0001639484,0.0001462832,3,1
9.604298e-05,0.0001582761,3,1
2.959619e-05,0.0001662173,3,1
-2.84232e-05,0.0001702689,3,1
-7.833932e-05,0.0001683241,3,1
-0.0001248521,0.0001595726,3,1
-0.00016942,0.0001466074,3,1
-0.0002100984,0.0001334801,3,1
-0.000241377,0.0001224596,3,1
-0.0002575835,0.0001119254,3,1
-0.0002554767,0.0001031738,3,1
-0.000241377,9.458438e-05,3,1
-0.0002276015,8.437427e-05,3,1
-0.0002212809,7.351589e-05,3,1
-0.0002201465,6.46023e-05,3,1
-0.0002203085,5.876794e-05,3,1
-0.000224036,4.871989e-05,3,1
-0.0002321393,3.397195e-05,3,1
-0.0002433218,1.582063e-05,3,1
-0.0002567732,-6.544382e-06,3,1
-0.0002707109,-3.296103e-05,3,1
-0.0002815692,-5.856735e-05,3,1
-0.0002776796,-7.412562e-05,3,1
-0.0002507768,-7.477388e-05,3,1
-0.0002113949,-6.472583e-05,3,1
-0.0001780095,-5.127441e-05,3,1
-0.0001606685,-3.911951e-05,3,1
-0.000159534,-3.198864e-05,3,1
-0.0001655305,-3.053005e-05,3,1
-0.0001613168,-3.247483e-05,3,1
-0.000134576,-3.506788e-05,3,1
-8.725291e-05,-3.539201e-05,3,1
-3.539201e-05,-3.652646e-05,3,1
5.772582e-06,-3.976777e-05,3,1
2.570662e-05,-4.446767e-05,3,1
2.116879e-05,-5.516398e-05,3,1
-5.409925e-06,-7.153257e-05,3,1
-4.689865e-05,-9.114248e-05,3,1
-9.2439e-05,-0.0001065387,3,1
-0.0001332795,-0.0001117248,3,1
-0.0001632615,-0.0001071869,3,1
-0.000174282,-9.859748e-05,3,1
-0.0001566169,-9.2439e-05,3,1
-0.0001118868,-9.130454e-05,3,1
-5.581224e-05,-9.568031e-05,3,1
-6.220252e-06,-9.762509e-05,3,1
2.651694e-05,-8.790117e-05,3,1
4.272347e-05,-5.565017e-05,3,1
4.45062e-05,5.934648e-06,3,1
3.867184e-05,9.020862e-05,3,1
3.154097e-05,0.0001811273,3,1
2.700314e-05,0.0002613496,3,1
2.554455e-05,0.0003205035,3,1
3.008238e-05,0.0003487029,3,1
4.175109e-05,0.0003451374,3,1
5.763349e-05,0.0003125623,3,1
7.610894e-05,0.0002626462,3,1
9.620504e-05,0.0002096508,3,1
0.0001128978,0.0001686482,3,1
0.0001255389,0.000145797,3,1
0.0001331559,0.0001373696,3,1
0.0001401247,0.0001412592,3,1
0.0001459591,0.0001501728,3,1
0.0001496866,0.000158114,3,1
0.0001487142,0.0001639484,3,1
0.0001430419,0.000170593,3,1
0.0001351007,0.0001790204,3,1
0.0001266733,0.0001910133,3,1
0.0001198666,0.0002021958,3,1
0.0001174356,0.0002072198,3,1
0.0001224596,0.0002041406,3,1
0.0001362352,0.0001940925,3,1
0.0001564933,0.0001811273,3,1
0.0001816135,0.0001663793,3,1
0.000210299,0.0001516314,3,1
0.0002355812,0.0001344524,3,1
0.0002475741,0.0001187321,3,1
0.0002410915,0.0001057669,3,1
0.0002237505,9.896015e-05,3,1
0.0002033302,9.896015e-05,3,1
0.0001846927,0.0001046324,3,1
0.0001671896,0.0001127357,3,1
0.0001488763,0.0001180839,3,1
0.0001341283,0.0001154908,3,1
0.0001271595,0.0001046324,3,1
0.0001227837,8.761557e-05,3,1
0.0001116012,7.108491e-05,3,1
8.534666e-05,6.103686e-05,3,1
4.466826e-05,5.763349e-05,3,1
2.623614e-07,5.585077e-05,3,1
-2.955766e-05,5.374392e-05,3,1
-4.041603e-05,4.807163e-05,3,1
-4.187462e-05,3.60788e-05,3,1
-4.43056e-05,1.565857e-05,3,1
-4.770897e-05,-6.868513e-06,3,1
-3.879538e-05,-2.566809e-05,3,1
-8.327101e-06,-3.701266e-05,3,1
3.332369e-05,-4.090223e-05,3,1
6.071273e-05,-4.203669e-05,3,1
6.249545e-05,-4.527799e-05,3,1
4.693717e-05,-5.257093e-05,3,1
2.910999e-05,-6.213279e-05,3,1
1.095867e-05,-7.33153e-05,3,1
-1.075808e-05,-8.82253e-05,3,1
-4.009191e-05,-0.000107349,3,1
-7.444975e-05,-0.0001285796,3,1
-0.0001099421,-0.0001491618,3,1
-0.0001386276,-0.0001621271,3,1
-0.0001546721,-0.0001642339,3,1
-0.0001580754,-0.0001580754,3,1
-0.0001543479,-0.0001496481,3,1
-0.0001480274,-0.0001468929,3,1
-0.0001413827,-0.000152079,3,1
-0.0001363587,-0.0001621271,3,1
-0.0001329553,-0.000174282,3,1
-0.0001253383,-0.0001864369,3,1
-0.0001052422,-0.0001940539,3,1
-7.428769e-05,-0.0002006986,3,1
-3.879538e-05,-0.000209126,3,1
-9.137427e-06,-0.0002217671,3,1
9.106227e-07,-0.0002384598,3,1
-8.165035e-06,-0.0002556388,3,1
-2.388537e-05,-0.0002728177,3,1
-3.069211e-05,-0.0002979378,3,1
-1.805102e-05,-0.000328244,3,1
1.387585e-05,-0.0003544986,3,1
5.309566e-05,-0.0003671397,3,1
7.999851e-05,-0.000362926,3,1
7.870197e-05,-0.0003400748,3,1
5.098881e-05,-0.0003040963,3,1
6.744974e-06,-0.0002700626,3,1
-4.592625e-05,-0.0002491561,3,1
-9.584238e-05,-0.0002399184,3,1
-0.0001263107,-0.0002331117,3,1
-0.0001190177,-0.0002196603,3,1
-6.667062e-05,-0.0001909747,3,1
1.889987e-05,-0.000144624,3,1
0.0001114392,-8.222889e-05,3,1
0.0001808031,-8.489166e-06,3,1
0.0002049509,7.140904e-05,3,1
0.000177886,0.0001522796,3,1
0.0001158149,0.0002303951,3,1
5.017848e-05,0.0003034866,3,1
9.824215e-06,0.0003718782,3,1
6.258778e-06,0.0004363802,3,1
2.943412e-05,0.0004906721,3,1
5.747142e-05,0.0005234093,3,1
7.076078e-05,0.0005227611,3,1
5.99024e-05,0.0004848378,3,1
2.505836e-05,0.000418553,3,1
-2.485776e-05,0.0003407616,3,1
-7.33153e-05,0.0002749631,3,1
-9.778715e-05,0.0002360674,3,1
-8.919769e-05,0.000225047,3,1
-4.965376e-05,0.0002342847,3,1
7.555301e-06,0.0002538946,3,1
6.395404e-05,0.0002809595,3,1
0.0001012291,0.000314345,3,1
0.0001070634,0.0003503235,3,1
8.145709e-05,0.0003877606,3,1
4.418206e-05,0.0004271425,3,1
1.387585e-05,0.0004663623,3,1
-6.868513e-06,0.0004950479,3,1
-2.064406e-05,0.0005013684,3,1
-2.809907e-05,0.0004785172,3,1
-2.031993e-05,0.000425846,3,1
1.290346e-05,0.0003537269,3,1
6.476436e-05,0.0002752873,3,1
0.0001122495,0.0001992786,3,1
0.0001318594,0.0001320215,3,1
0.0001197045,7.594687e-05,3,1
8.875003e-05,3.364782e-05,3,1
5.455425e-05,3.341602e-06,3,1
2.846173e-05,-1.886135e-05,3,1
7.879432e-06,-3.895745e-05,3,1
-1.99958e-05,-5.937768e-05,3,1
-6.521203e-05,-7.801519e-05,3,1
-0.0001178833,-9.438378e-05,3,1
-0.0001540238,-0.00010978,3,1
-0.0001592099,-0.0001253383,3,1
-0.0001332795,-0.0001418689,3,1
-8.903562e-05,-0.0001608306,3,1
-4.576419e-05,-0.0001784957,3,1
-1.075808e-05,-0.0001950263,3,1
1.808955e-05,-0.0002073433,3,1
4.207521e-05,-0.0002143121,3,1
5.747142e-05,-0.0002194982,3,1
6.379197e-05,-0.0002263049,3,1
6.233338e-05,-0.0002360289,3,1
5.325772e-05,-0.0002457528,3,1
3.915804e-05,-0.0002530457,3,1
2.133085e-05,-0.0002577456,3,1
1.720949e-06,-0.000258718,3,1
-1.529591e-05,-0.0002598524,3,1
-2.7937e-05,-0.0002605007,3,1
-3.814712e-05,-0.0002614731,3,1
-4.85193e-05,-0.0002598524,3,1
-6.051213e-05,-0.0002567732,3,1
-7.412562e-05,-0.0002559629,3,1
-8.611845e-05,-0.000256287,3,1
-9.227693e-05,-0.0002556388,3,1
-9.519411e-05,-0.000253694,3,1
-9.2439e-05,-0.0002489941,3,1
-8.303922e-05,-0.0002423494,3,1
-6.958779e-05,-0.0002358668,3,1
-5.872941e-05,-0.0002329496,3,1
-5.370539e-05,-0.0002340841,3,1
-5.257093e-05,-0.0002366771,3,1
-4.576419e-05,-0.000236353,3,1
-2.696461e-05,-0.000231329,3,1
5.86492e-07,-0.0002217671,3,1
2.732727e-05,-0.000209126,3,1
4.547859e-05,-0.0001971332,3,1
5.504044e-05,-0.0001885437,3,1
5.666109e-05,-0.0001810887,3,1
5.714729e-05,-0.0001715269,3,1
6.346784e-05,-0.0001616409,3,1
7.562274e-05,-0.0001533756,3,1
8.923623e-05,-0.0001451102,3,1
9.928428e-05,-0.0001340898,3,1
0.0001056048,-0.0001199901,3,1
0.0001119254,-0.0001029732,3,1
0.0001227837,-8.579432e-05,3,1
0.0001354248,-7.023606e-05,3,1
0.0001406109,-5.451572e-05,3,1
0.0001370455,-3.539201e-05,3,1
0.0001266733,-9.785688e-06,3,1
0.0001148425,2.084466e-05,3,1
0.0001083599,4.904402e-05,3,1
0.000108522,7.384002e-05,3,1
0.000115977,0.0001033359,3,1
0.0001271595,0.0001474177,3,1
0.0001393144,0.0002047888,3,1
0.0001488763,0.0002594049,3,1
0.0001529279,0.000292142,3,1
0.0001545486,0.0002973281,3,1
0.0001539003,0.00027707,3,1
0.0001493625,0.0002378501,3,1
0.0001375317,0.0001900409,3,1
0.0001195424,0.0001511452,3,1
9.717743e-05,0.0001410971,3,1
6.978839e-05,0.0001645966,3,1
3.299956e-05,0.0002137024,3,1
-1.853722e-05,0.0002741528,3,1
-7.979791e-05,0.000339303,3,1
-0.0001355484,0.0004028327,3,1
-0.0001728234,0.0004611762,3,1
-0.0001851404,0.0005059062,3,1
-0.0001736337,0.0005332953,3,1
-0.0001430034,0.0005516087,3,1
-0.0001063766,0.0005713807,3,1
-7.477388e-05,0.0006071971,3,1
-6.91016e-05,0.0006658648,3,1
-9.924574e-05,0.000740415,3,1
-0.0001582375,0.0008159374,3,1
-0.0002248464,0.0008802774,3,1
-0.0002694143,0.00092128,3,1
-0.0002708729,0.000928573,3,1
-0.0002280877,0.0008901635,3,1
-0.0001590478,0.0007977861,3,1
-8.660465e-05,0.0006592202,3,1
-2.745081e-05,0.000495372,3,1
1.322759e-05,0.0003229345,3,1
3.672706e-05,0.0001553589,3,1
4.742337e-05,2.855407e-06,3,1
5.293359e-05,-0.0001230693,3,1
5.439218e-05,-0.0002117191,3,1
4.758544e-05,-0.0002598524,3,1
2.846173e-05,-0.0002720074,3,1
-7.030578e-06,-0.0002579077,3,1
-5.483985e-05,-0.0002310048,3,1
-0.0001031353,-0.0002049123,3,1
-0.000134576,-0.0001883817,3,1
-0.0001410586,-0.0001830335,3,1
-0.0001227452,-0.0001880575,3,1
-8.02841e-05,-0.0002037779,3,1
-2.226472e-05,-0.0002344082,3,1
4.02925e-05,-0.0002796244,3,1
9.53947e-05,-0.0003319715,3,1
0.0001297526,-0.0003810773,3,1
0.0001362352,-0.0004180282,3,1
0.000113384,-0.000437476,3,1
7.027458e-05,-0.0004413656,3,1
2.084466e-05,-0.0004347209,3,1
-1.983374e-05,-0.0004261314,3,1
-4.203669e-05,-0.0004206212,3,1
-4.300908e-05,-0.0004215936,3,1
-2.534396e-05,-0.0004313175,3,1
3.827799e-06,-0.0004465517,3,1
3.170304e-05,-0.0004590307,3,1
4.953022e-05,-0.000459841,3,1
5.714729e-05,-0.0004471999,3,1
5.779555e-05,-0.0004262935,3,1
5.957827e-05,-0.0004047388,3,1
6.849186e-05,-0.0003839945,3,1
8.259155e-05,-0.0003626019,3,1
9.669123e-05,-0.0003399127,3,1
0.000105929,-0.0003165753,3,1
0.0001122495,-0.0002989102,3,1
0.0001188942,-0.0002872415,3,1
0.0001239182,-0.0002754107,3,1
0.0001197045,-0.0002569353,3,1
0.0001033359,-0.000231329,3,1
8.129502e-05,-0.0001997262,3,1
6.606088e-05,-0.0001673132,3,1
6.816773e-05,-0.0001353863,3,1
8.372601e-05,-0.0001042698,3,1
0.0001022015,-7.55842e-05,3,1
0.0001166253,-4.965376e-05,3,1
0.000123432,-2.745081e-05,3,1
0.0001163011,-8.813297e-06,3,1
9.328786e-05,9.175954e-06,3,1
6.751948e-05,2.943412e-05,3,1
5.358185e-05,5.034055e-05,3,1
6.03886e-05,6.914012e-05,3,1
7.935024e-05,8.907416e-05,3,1
9.231547e-05,0.0001094944,3,1
8.680524e-05,0.0001302388,3,1
6.362991e-05,0.0001524417,3,1
2.878586e-05,0.0001748067,3,1
-1.286493e-05,0.0001932822,3,1
-5.710876e-05,0.0002047888,3,1
-9.519411e-05,0.0002081922,3,1
-0.0001141558,0.0002064095,3,1
-0.0001096179,0.0001997648,3,1
-8.482193e-05,0.0001892305,3,1
-4.770897e-05,0.0001759412,3,1
7.485573e-07,0.0001641104,3,1
5.811968e-05,0.0001582761,3,1
0.0001099806,0.0001600588,3,1
0.0001435281,0.0001618415,3,1
0.0001558451,0.0001574657,3,1
0.0001511452,0.0001409351,3,1
0.0001315353,0.0001128978,3,1
9.960841e-05,7.886404e-05,3,1
6.152305e-05,4.126489e-05,3,1
2.165498e-05,-2.168618e-06,3,1
-1.545797e-05,-4.949169e-05,3,1
-3.895745e-05,-9.584238e-05,3,1
-4.560212e-05,-0.0001336036,3,1
-3.652646e-05,-0.0001572651,3,1
-2.177852e-05,-0.0001679614,3,1
-8.975362e-06,-0.0001687718,3,1
-2.238346e-07,-0.0001613168,3,1
-1.034161e-06,-0.000149486,3,1
-1.853722e-05,-0.0001381414,3,1
-5.59743e-05,-0.0001360346,3,1
-0.0001062146,-0.0001464067,3,1
-0.0001566169,-0.0001626133,3,1
-0.0001945401,-0.0001770371,3,1
-0.0002159328,-0.0001801163,3,1
-0.0002233878,-0.0001655305,3,1
-0.0002219292,-0.0001319829,3,1
-0.0002152845,-8.255302e-05,3,1
-0.0002005366,-2.404744e-05,3,1
-0.000174282,3.98063e-05,3,1
-0.0001441378,0.0001039842,3,1
-0.0001177212,0.000168162,3,1
-9.827335e-05,0.0002376881,3,1
-8.44978e-05,0.0003125623,3,1
-7.882551e-05,0.0003845193,3,1
-8.741498e-05,0.0004420525,3,1
-0.0001081593,0.0004721967,3,1
-0.0001331174,0.0004645796,3,1
-0.0001480274,0.0004182289,3,1
-0.0001418689,0.0003384927,3,1
-0.0001144799,0.0002454672,3,1
-7.218083e-05,0.000158114,3,1
-2.226472e-05,9.231547e-05,3,1
2.927205e-05,5.487838e-05,3,1
8.307774e-05,4.693717e-05,3,1
0.0001339663,5.909208e-05,3,1
0.0001694586,7.546067e-05,3,1
0.0001822617,8.226741e-05,3,1
0.0001759412,7.57848e-05,3,1
0.0001613553,6.087479e-05,3,1
0.0001441764,4.256141e-05,3,1
0.0001255389,2.797553e-05,3,1
0.0001106288,2.084466e-05,3,1
0.0001041462,2.246531e-05,3,1
0.0001086841,3.462021e-05,3,1
0.0001201907,5.649903e-05,3,1
0.000130725,8.648112e-05,3,1
0.0001305629,0.0001224596,3,1
0.0001190562,0.0001620036,3,1
0.0001015532,0.0002047888,3,1
8.518459e-05,0.0002491947,3,1
7.416415e-05,0.0002885766,3,1
6.800567e-05,0.0003109416,3,1
6.930219e-05,0.0003140208,3,1
8.567078e-05,0.0003004074,3,1
0.0001188942,0.0002756114,3,1
0.0001636242,0.0002462775,3,1
0.0002068957,0.0002174299,3,1
0.0002326641,0.0001937684,3,1
0.0002308813,0.0001795066,3,1
0.0002041406,0.0001688103,3,1
0.000163138,0.0001576278,3,1
0.0001206769,0.0001404489,3,1
8.680524e-05,0.000118408,3,1
6.508849e-05,9.361199e-05,3,1
5.682316e-05,7.384002e-05,3,1
6.184718e-05,6.314371e-05,3,1
7.270556e-05,5.747142e-05,3,1
7.789165e-05,5.277153e-05,3,1
7.027458e-05,4.709924e-05,3,1
4.693717e-05,4.304761e-05,3,1
7.555301e-06,4.35338e-05,3,1
-4.349527e-05,4.969229e-05,3,1
-9.600444e-05,5.730935e-05,3,1
-0.0001402483,6.281957e-05,3,1
-0.0001653684,6.119892e-05,3,1
-0.0001728234,5.325772e-05,3,1
-0.0001653684,3.834771e-05,3,1
-0.0001481895,1.274139e-05,3,1
-0.0001313347,-2.0482e-05,3,1
-0.0001183694,-5.078821e-05,3,1
-0.0001079973,-7.039812e-05,3,1
-0.0001055663,-8.125649e-05,3,1
-0.0001154523,-8.935975e-05,3,1
-0.000129714,-9.811128e-05,3,1
-0.0001368449,-0.0001075111,3,1
-0.0001360346,-0.0001175591,3,1
-0.0001357104,-0.0001251762,3,1
-0.0001412206,-0.0001306864,3,1
-0.0001502963,-0.0001360346,3,1
-0.0001567789,-0.0001430034,3,1
-0.0001567789,-0.0001514308,3,1
-0.0001477033,-0.0001645581,3,1
-0.0001316588,-0.0001789819,3,1
-0.0001156143,-0.0001888679,3,1
-0.0001005423,-0.0001940539,3,1
-9.049421e-05,-0.0001989159,3,1
-8.628052e-05,-0.0002070192,3,1
-8.352541e-05,-0.0002177155,3,1
-7.542214e-05,-0.0002279256,3,1
-5.532604e-05,-0.0002361909,3,1
-2.275091e-05,-0.0002475355,3,1
1.436204e-05,-0.0002630937,3,1
3.98063e-05,-0.0002788141,3,1
4.483033e-05,-0.0002877277,3,1
2.910999e-05,-0.0002912931,3,1
5.610517e-06,-0.0002971275,3,1
-1.335113e-05,-0.0003099306,3,1
-1.821308e-05,-0.0003337542,3,1
-5.409925e-06,-0.0003634122,3,1
2.716521e-05,-0.0003901529,3,1
7.708133e-05,-0.0004045768,3,1
0.0001328318,-0.0004008493,3,1
0.0001785342,-0.0003817256,3,1
0.0002005751,-0.0003551469,3,1
0.0001926339,-0.0003301888,3,1
0.0001610312,-0.0003086341,3,1
0.000121001,-0.0002883759,3,1
9.101894e-05,-0.0002605007,3,1
8.405014e-05,-0.0002172293,3,1
0.0001043083,-0.000149486,3,1
0.0001436902,-5.824322e-05,3,1
0.0001887444,5.228533e-05,3,1
0.0002271538,0.0001773998,3,1
0.0002511395,0.0003201794,3,1
0.000259729,0.0004786793,3,1
0.0002551911,0.0006404206,3,1
0.0002454672,0.000779959,3,1
0.0002367157,0.0008703915,3,1
0.0002354192,0.0008958358,3,1
0.0002453052,0.0008566159,3,1
0.0002615117,0.0007684522,3,1
0.0002790148,0.0006506307,3,1
0.0002903593,0.0005229231,3,1
0.0002854973,0.0004038051,3,1
0.0002628082,0.0003073762,3,1
0.000232502,0.0002393087,3,1
0.0002054371,0.0001981441,3,1
0.0001833962,0.0001759412,3,1
0.0001623277,0.0001647587,3,1
0.0001391524,0.0001576278,3,1
0.0001116012,0.0001501728,3,1
7.67572e-05,0.0001399627,3,1
3.299956e-05,0.0001287802,3,1
-1.853722e-05,0.0001151667,3,1
-7.444975e-05,9.458438e-05,3,1
-0.0001318209,6.978839e-05,3,1
-0.0001828714,4.82337e-05,3,1
-0.0002232257,3.364782e-05,3,1
-0.0002561249,2.473423e-05,3,1
-0.0002849726,1.954813e-05,3,1
-0.000310741,1.776542e-05,3,1
-0.000328082,1.825161e-05,3,1
-0.000328244,1.97102e-05,3,1
-0.0003079858,1.695509e-05,3,1
-0.0002775176,1.12828e-05,3,1
-0.0002515871,1.234753e-06,3,1
-0.0002348944,-1.367526e-05,3,1
-0.0002245222,-3.409549e-05,3,1
-0.0002113949,-5.775702e-05,3,1
-0.0001912988,-8.547019e-05,3,1
-0.0001723372,-0.0001154523,3,1
-0.0001658546,-0.0001465688,3,1
-0.0001763888,-0.0001736337,3,1
-0.0002057227,-0.0001896782,3,1
-0.0002493182,-0.0001901644,3,1
-0.0002916173,-0.0001827094,3,1
-0.0003219235,-0.0001780095,3,1
-0.0003348887,-0.0001827094,3,1
-0.0003314853,-0.0001959987,3,1
-0.0003045825,-0.0002133397,3,1
-0.0002481838,-0.0002300324,3,1
-0.0001642339,-0.0002439701,3,1
-6.602235e-05,-0.000253856,3,1
2.311357e-05,-0.000258718,3,1
7.789165e-05,-0.0002614731,3,1
9.037068e-05,-0.0002621213,3,1
7.67572e-05,-0.0002585559,3,1
5.811968e-05,-0.0002473734,3,1
4.693717e-05,-0.0002280877,3,1
4.596478e-05,-0.0002086398,3,1
5.439218e-05,-0.00019924,3,1
7.465034e-05,-0.0002029675,3,1
0.0001083599,-0.0002170672,3,1
0.0001492004,-0.0002342462,3,1
0.0001801549,-0.0002472114,3,1
0.0001859892,-0.0002515871,3,1
0.0001642725,-0.0002481838,3,1
0.0001232699,-0.0002395943,3,1
7.951231e-05,-0.0002318152,3,1
4.855783e-05,-0.0002284118,3,1
3.850978e-05,-0.0002258187,3,1
4.790957e-05,-0.0002219292,3,1
7.108491e-05,-0.0002162569,3,1
0.0001073875,-0.0002100984,3,1
0.0001547106,-0.0002023193,3,1
0.000210137,-0.0001922712,3,1
0.0002619979,-0.0001851404,3,1
0.0002926282,-0.00018433,3,1
0.0002876042,-0.0001870851,3,1
0.0002466017,-0.0001848162,3,1
0.000178048,-0.00016942,3,1
9.798775e-05,-0.0001361966,3,1
2.327564e-05,-8.465986e-05,3,1
-3.522994e-05,-2.210265e-05,3,1
-7.299116e-05,4.369587e-05,3,1
-8.465986e-05,0.0001116012,3,1
-6.472583e-05,0.0001817755,3,1
-1.059602e-05,0.0002592428,3,1
6.83298e-05,0.0003431926,3,1
0.0001500107,0.0004307079,3,1
0.000210137,0.0005263265,3,1
0.0002360674,0.0006261588,3,1
0.0002354192,0.0007149707,3,1
0.000227478,0.0007802831,3,1
0.0002281262,0.0008110755,3,1
0.0002430362,0.0008011895,3,1
0.0002611876,0.0007532181,3,1
0.0002600531,0.0006763991,3,1
0.0002258573,0.0005811046,3,1
0.0001584381,0.0004765725,3,1
6.816773e-05,0.0003746333,3,1
-2.0482e-05,0.0002861456,3,1
-7.428769e-05,0.0002193747,3,1
-7.218083e-05,0.0001846927,3,1
-1.610624e-05,0.0001864754,3,1
6.541262e-05,0.0002269918,3,1
0.00013818,0.0002991108,3,1
0.0001785342,0.0003840331,3,1
0.0001759412,0.0004543695,3,1
0.0001376938,0.0004869446,3,1
8.275361e-05,0.0004676588,3,1
2.667901e-05,0.0003989431,3,1
-2.356124e-05,0.0003004074,3,1
-6.39155e-05,0.0002015475,3,1
-9.357346e-05,0.0001188942,3,1
-0.0001128592,5.179914e-05,3,1
-0.0001310105,-9.461558e-06,3,1
-0.0001566169,-7.785312e-05,3,1
-0.0001981056,-0.0001551583,3,1
-0.000251263,-0.000233922,3,1
-0.0003042584,-0.000301017,3,1
-0.0003368335,-0.0003515814,3,1
-0.0003386162,-0.0003872358,3,1
-0.0003134961,-0.000410087,3,1
-0.0002775176,-0.0004238625,3,1
-0.0002446183,-0.0004262935,3,1
-0.0002180396,-0.0004123559,3,1
-0.000196647,-0.0003833462,3,1
-0.0001840059,-0.0003450988,3,1
-0.0001875713,-0.0003006929,3,1
-0.0002053985,-0.0002454286,3,1
-0.0002316531,-0.0001747682,3,1
-0.0002543422,-8.676672e-05,3,1
-0.0002626076,1.355172e-05,3,1
-0.0002498044,0.000113384,3,1
-0.0002122053,0.0002013854,3,1
-0.0001580754,0.0002717218,3,1
-0.0001036215,0.0003239069,3,1
-6.180866e-05,0.0003546993,3,1
-4.187462e-05,0.0003611819,3,1
-4.722278e-05,0.0003375204,3,1
-7.18567e-05,0.0002775562,3,1
-0.0001060525,0.0001830721,3,1
-0.000137007,6.606088e-05,3,1
-0.0001475412,-5.613637e-05,3,1
-0.0001238797,-0.0001655305,3,1
-7.33153e-05,-0.0002522354,3,1
-1.788895e-05,-0.0003149546,3,1
3.056858e-05,-0.0003564434,3,1
6.492643e-05,-0.0003765395,3,1
8.486046e-05,-0.0003791325,3,1
0.0001018773,-0.0003702189,3,1
0.0001265113,-0.0003577399,3,1
0.0001618415,-0.0003457471,3,1
0.0002081922,-0.0003344025,3,1
0.0002594049,-0.0003211132,3,1
0.000304297,-0.0003055549,3,1
0.0003324963,-0.0002901587,3,1
0.0003378445,-0.0002739521,3,1
0.0003154794,-0.0002515871,3,1
0.0002715597,-0.0002173914,3,1
0.0002224539,-0.0001658546,3,1
0.0001820997,-9.276313e-05,3,1
0.0001586002,6.420843e-06,3,1
0.0001509831,0.0001318594,3,1
0.0001527658,0.0002726942,3,1
0.0001634622,0.000403643,3,1
0.0001832341,0.0004909963,3,1
0.0002128921,0.0005136854,3,1
0.0002461155,0.0004671726,3,1
0.0002717218,0.0003675024,3,1
0.0002876042,0.0002441707,3,1
0.0002940868,0.0001338042,3,1
0.0002927903,5.779555e-05,3,1
0.0002867939,2.116879e-05,3,1
0.0002718839,1.079661e-05,3,1
0.0002448189,1.257933e-05,3,1
0.0002055991,1.727922e-05,3,1
0.0001621656,2.311357e-05,3,1
0.0001227837,3.073064e-05,3,1
9.26396e-05,4.288554e-05,3,1
7.432621e-05,6.119892e-05,3,1
6.589881e-05,7.90261e-05,3,1
6.444023e-05,9.328786e-05,3,1
7.108491e-05,9.928428e-05,3,1
8.729144e-05,9.53947e-05,3,1
0.0001057669,8.550872e-05,3,1
0.0001171115,7.140904e-05,3,1
0.0001188942,5.504044e-05,3,1
0.000118408,3.640293e-05,3,1
0.0001211631,1.630683e-05,3,1
0.0001226217,-4.761664e-06,3,1
0.0001140322,-2.712668e-05,3,1
9.004655e-05,-4.787104e-05,3,1
5.001642e-05,-6.342931e-05,3,1
-1.844488e-06,-6.845333e-05,3,1
-5.629844e-05,-6.537409e-05,3,1
-0.0001007043,-6.197072e-05,3,1
-0.000129714,-6.569822e-05,3,1
-0.0001522411,-7.963584e-05,3,1
-0.0001759026,-9.875954e-05,3,1
-0.000204102,-0.0001156143,3,1
-0.0002319772,-0.0001243659,3,1
-0.0002554767,-0.0001255003,3,1
-0.0002692523,-0.0001224211,3,1
-0.0002674695,-0.0001177212,3,1
-0.0002460769,-0.000117235,3,1
-0.0002109087,-0.0001209625,3,1
-0.0001702304,-0.0001256624,3,1
-0.0001340898,-0.0001274451,3,1
-0.0001078352,-0.0001232314,3,1
-9.827335e-05,-0.0001110765,3,1
-0.0001068628,-8.984595e-05,3,1
-0.0001256624,-6.180866e-05,3,1
-0.0001449482,-3.490581e-05,3,1
-0.0001579134,-1.853722e-05,3,1
-0.0001608306,-1.983374e-05,3,1
-0.0001577513,-4.300908e-05,3,1
-0.0001538618,-8.611845e-05,3,1
-0.0001580754,-0.0001421931,3,1
-0.0001699062,-0.0001998883,3,1
-0.0001789819,-0.0002481838,3,1
-0.0001780095,-0.0002789762,3,1
-0.0001687718,-0.0002916173,3,1
-0.0001509446,-0.0002887001,3,1
-0.0001259865,-0.0002755728,3,1
-9.486997e-05,-0.0002601766,3,1
-6.569822e-05,-0.0002475355,3,1
-4.754691e-05,-0.0002379736,3,1
-4.300908e-05,-0.0002293842,3,1
-4.85193e-05,-0.0002211189,3,1
-5.840528e-05,-0.0002104225,3,1
-6.342931e-05,-0.000191623,3,1
-5.435365e-05,-0.0001632615,3,1
-2.631635e-05,-0.0001251762,3,1
1.857574e-05,-7.639453e-05,3,1
6.995045e-05,-1.610624e-05,3,1
0.0001122495,5.487838e-05,3,1
0.0001323456,0.0001331559,3,1
0.0001292664,0.0002156472,3,1
0.000113546,0.0003015418,3,1
0.000105929,0.0003900295,3,1
0.000118408,0.000478031,3,1
0.0001448246,0.0005563086,3,1
0.0001699448,0.000611735,3,1
0.0001749688,0.0006263209,3,1
0.0001527658,0.0005906665,3,1
0.0001120874,0.0005073649,3,1
6.914012e-05,0.0003955397,3,1
4.288554e-05,0.0002790148,3,1
4.483033e-05,0.0001809652,3,1
7.708133e-05,0.0001188942,3,1
0.0001273216,9.652917e-05,3,1
0.0001822617,0.000105929,3,1
0.0002329882,0.0001295905,3,1
0.0002749631,0.0001508211,3,1
0.0003046211,0.0001595726,3,1
0.0003156415,0.0001540623,3,1
0.0003023522,0.000138342,3,1
0.0002657254,0.000118408,3,1
0.0002184023,9.21534e-05,3,1
0.0001688103,5.374392e-05,3,1
0.0001227837,2.207145e-06,3,1
7.837785e-05,-5.2733e-05,3,1
3.299956e-05,-0.0001011905,3,1
-9.461558e-06,-0.0001337657,3,1
-4.252288e-05,-0.0001421931,3,1
-6.569822e-05,-0.000127121,3,1
-8.303922e-05,-9.2439e-05,3,1
-9.276313e-05,-4.300908e-05,3,1
-9.341139e-05,1.436204e-05,3,1
-8.514606e-05,7.140904e-05,3,1
-7.315322e-05,0.0001231079,3,1
-6.893953e-05,0.0001663793,3,1
-7.736692e-05,0.000202844,3,1
-9.438378e-05,0.0002355812,3,1
-0.0001125351,0.0002710735,3,1
-0.0001238797,0.000311914,3,1
-0.0001248521,0.0003574544,3,1
-0.0001170729,0.0004054258,3,1
-0.0001018388,0.0004504799,3,1
-8.482193e-05,0.0004796517,3,1
-7.850138e-05,0.0004770586,3,1
-9.600444e-05,0.0004399457,3,1
-0.0001394379,0.0003722023,3,1
-0.0001985918,0.000287118,3,1
-0.000248832,0.0001987924,3,1
-0.0002679557,0.0001224596,3,1
-0.0002527216,6.119892e-05,3,1
-0.0002175534,1.290346e-05,3,1
-0.0001789819,-2.550602e-05,3,1
-0.0001426792,-5.662256e-05,3,1
-0.0001088076,-8.417367e-05,3,1
-7.963584e-05,-0.0001149661,3,1
-5.483985e-05,-0.0001530514,3,1
-3.474375e-05,-0.000196647,3,1
-1.562004e-05,-0.0002397564,3,1
3.827799e-06,-0.00027849,3,1
1.889987e-05,-0.0003099306,3,1
2.522042e-05,-0.0003321336,3,1
2.473423e-05,-0.000343154,3,1
2.489629e-05,-0.0003485022,3,1
2.927205e-05,-0.0003553089,3,1
3.786152e-05,-0.000365357,3,1
4.758544e-05,-0.0003734602,3,1
5.714729e-05,-0.0003757291,3,1
6.508849e-05,-0.0003690845,3,1
7.238143e-05,-0.0003536883,3,1
7.853991e-05,-0.000328244,3,1
8.04847e-05,-0.0002940482,3,1
7.821578e-05,-0.0002514251,3,1
8.307774e-05,-0.0001997262,3,1
0.0001000946,-0.0001358725,3,1
0.0001248906,-5.516398e-05,3,1
0.0001459591,3.850978e-05,3,1
0.0001487142,0.0001351007,3,1
0.0001268354,0.0002161334,3,1
7.935024e-05,0.0002655633,3,1
1.371378e-05,0.0002738286,3,1
-5.419158e-05,0.0002436845,3,1
-0.0001031353,0.0001893926,3,1
-0.0001167488,0.0001287802,3,1
-9.29252e-05,7.659513e-05,3,1
-4.80331e-05,4.239934e-05,3,1
-3.951337e-06,3.040651e-05,3,1
3.591673e-05,3.510641e-05,3,1
7.951231e-05,5.066468e-05,3,1
0.0001315353,6.930219e-05,3,1
0.0001885823,8.696731e-05,3,1
0.0002367157,9.993253e-05,3,1
0.0002655633,0.0001056048,3,1
0.0002767458,0.0001043083,3,1
0.0002769079,9.879808e-05,3,1
0.0002670219,9.199134e-05,3,1
0.0002454672,8.74535e-05,3,1
0.0002098128,8.567078e-05,3,1
0.0001626518,8.323981e-05,3,1
0.0001167873,7.740546e-05,3,1
8.680524e-05,6.719535e-05,3,1
7.448828e-05,5.698522e-05,3,1
7.319176e-05,4.920609e-05,3,1
7.805372e-05,4.094075e-05,3,1
8.405014e-05,3.13789e-05,3,1
8.826383e-05,1.9224e-05,3,1
8.680524e-05,3.989864e-06,3,1
8.161915e-05,-1.821308e-05,3,1
7.448828e-05,-5.176061e-05,3,1
6.800567e-05,-9.2439e-05,3,1
6.217132e-05,-0.000127283,3,1
5.066468e-05,-0.0001434896,3,1
2.732727e-05,-0.000137169,3,1
-7.354709e-06,-0.0001157764,3,1
-4.787104e-05,-9.081835e-05,3,1
-9.033215e-05,-6.942573e-05,3,1
-0.0001391138,-5.240886e-05,3,1
-0.0001971332,-3.328516e-05,3,1
-0.0002643903,-7.192643e-06,3,1
-0.0003293785,3.024445e-05,3,1
-0.0003737844,7.870197e-05,3,1
-0.0003784843,0.0001329939,3,1
-0.0003378059,0.0001864754,3,1
-0.0002658489,0.0002281262,3,1
-0.0001877334,0.000252436,3,1
-0.000127283,0.0002547049,3,1
-0.0001026491,0.0002302331,3,1
-0.0001219349,0.0001817755,3,1
-0.0001807646,0.0001205148,3,1
-0.0002570974,6.622294e-05,3,1
-0.0003198166,4.142696e-05,3,1
-0.0003434782,5.374392e-05,3,1
-0.0003285682,9.150514e-05,3,1
-0.0002862691,0.000133318,3,1
-0.0002321393,0.0001589243,3,1
-0.000176875,0.0001598967,3,1
-0.0001261486,0.0001360731,3,1
-8.255302e-05,8.956036e-05,3,1
-4.85193e-05,2.732727e-05,3,1
-2.907146e-05,-3.766092e-05,3,1
-2.275091e-05,-9.19528e-05,3,1
-2.566809e-05,-0.0001274451,3,1
-2.550602e-05,-0.0001460826,3,1
-1.318906e-05,-0.0001546721,3,1
1.274139e-05,-0.0001616409,3,1
4.499239e-05,-0.0001705545,3,1
7.400208e-05,-0.0001794681,3,1
8.923623e-05,-0.0001882196,3,1
9.004655e-05,-0.000196647,3,1
8.84259e-05,-0.0002075054,3,1
0.0001046324,-0.0002183637,3,1
0.0001492004,-0.0002280877,3,1
0.0002137024,-0.0002335979,3,1
0.000279663,-0.0002342462,3,1
0.000324393,-0.0002287359,3,1
0.0003362238,-0.0002188499,3,1
0.0003183966,-0.0002088019,3,1
0.0002867939,-0.000201509,3,1
0.0002590807,-0.0001956746,3,1
0.0002438466,-0.0001909747,3,1
0.0002402811,-0.0001862748,3,1
0.0002380122,-0.0001809267,3,1
0.0002308813,-0.0001737958,3,1
0.0002206712,-0.0001605064,3,1
0.0002072198,-0.0001413827,3,1
0.0001914995,-0.0001203142,3,1
0.0001785342,-9.973194e-05,3,1
0.0001746447,-7.590833e-05,3,1
0.0001759412,-4.560212e-05,3,1
0.0001785342,-1.173047e-05,3,1
0.000187772,1.679302e-05,3,1
0.0002046267,3.688912e-05,3,1
0.0002211574,4.871989e-05,3,1
0.0002302331,5.1475e-05,3,1
0.0002289366,5.19612e-05,3,1
0.0002171058,5.714729e-05,3,1
0.0001983062,7.076078e-05,3,1
0.0001761032,8.907416e-05,3,1
0.0001535762,0.0001054428,3,1
0.0001302388,0.0001180839,3,1
0.0001080358,0.0001274836,3,1
8.46984e-05,0.0001347766,3,1
6.119892e-05,0.0001398006,3,1
4.223728e-05,0.0001443384,3,1
3.364782e-05,0.0001511452,3,1
3.170304e-05,0.0001602208,3,1
2.797553e-05,0.0001715654,3,1
1.938607e-05,0.0001793446,3,1
5.448452e-06,0.0001824238,3,1
-7.840905e-06,0.0001814514,3,1
-1.497178e-05,0.0001822617,3,1
-1.383732e-05,0.0001889064,3,1
-8.327101e-06,0.0002015475,3,1
-8.651231e-06,0.0002159713,3,1
-2.339918e-05,0.0002216436,3,1
-5.240886e-05,0.0002081922,3,1
-9.130454e-05,0.0001689724,3,1
-0.0001324691,0.000106091,3,1
-0.0001695821,3.218923e-05,3,1
-0.0001987538,-4.090223e-05,3,1
-0.0002201465,-0.000104756,3,1
-0.0002373254,-0.0001598582,3,1
-0.0002546664,-0.0002117191,3,1
-0.0002724935,-0.0002583939,3,1
-0.0002844864,-0.0002938862,3,1
-0.0002814071,-0.0003154408,3,1
-0.0002598524,-0.00032322,3,1
-0.0002177155,-0.0003212752,3,1
-0.0001621271,-0.0003141443,3,1
-0.0001070249,-0.0003026377,3,1
-6.504996e-05,-0.0002864312,3,1
-4.511593e-05,-0.0002639041,3,1
-5.208474e-05,-0.0002342462,3,1
-7.963584e-05,-0.0001974573,3,1
-0.0001128592,-0.0001543479,3,1
-0.0001389517,-9.973194e-05,3,1
-0.0001499722,-2.809907e-05,3,1
-0.0001438137,7.238143e-05,3,1
-0.0001233935,0.0002125679,3,1
-9.746302e-05,0.0003931088,3,1
-6.991193e-05,0.0005939078,3,1
-4.414354e-05,0.0007760693,3,1
-2.631635e-05,0.0009050734,3,1
-1.902341e-05,0.0009579068,3,1
-1.837515e-05,0.0009290591,3,1
-1.772689e-05,0.000832306,3,1
-1.545797e-05,0.0006888782,3,1
-1.545797e-05,0.0005206542,3,1
-2.42095e-05,0.000346596,3,1
-3.976777e-05,0.0001869616,3,1
-5.921561e-05,6.022653e-05,3,1
-7.931171e-05,-2.809907e-05,3,1
-9.697683e-05,-7.931171e-05,3,1
-0.0001128592,-0.0001050801,3,1
-0.000122259,-0.000117235,3,1
-0.0001214487,-0.0001258245,3,1
-0.0001041077,-0.0001324691,3,1
-7.039812e-05,-0.0001378173,3,1
-1.691656e-05,-0.0001433275,3,1
5.957827e-05,-0.0001454344,3,1
0.000150659,-0.0001383035,3,1
0.000237526,-0.0001182074,3,1
0.0003007315,-8.984595e-05,3,1
0.000331686,-6.245691e-05,3,1
0.0003299033,-4.38194e-05,3,1
0.000304297,-3.360929e-05,3,1
0.0002619979,-2.971972e-05,3,1
0.0002132162,-2.647842e-05,3,1
0.0001663793,-2.356124e-05,3,1
0.0001312112,-1.902341e-05,3,1
0.0001140322,-1.464765e-05,3,1
0.0001179218,-9.623623e-06,3,1
0.0001370455,-4.599598e-06,3,1
0.000160707,-3.951337e-06,3,1
0.0001809652,-7.192643e-06,3,1
0.0001923098,-1.173047e-05,3,1
0.0001918236,-1.545797e-05,3,1
0.0001824238,-1.902341e-05,3,1
0.0001684862,-1.983374e-05,3,1
0.0001483901,-1.934754e-05,3,1
0.0001188942,-1.707863e-05,3,1
7.67572e-05,-1.237873e-05,3,1
2.927205e-05,-6.220252e-06,3,1
-8.975362e-06,4.151929e-06,3,1
-2.89094e-05,2.230325e-05,3,1
-2.826114e-05,5.001642e-05,3,1
-8.975362e-06,8.696731e-05,3,1
2.39239e-05,0.0001297526,3,1
6.087479e-05,0.0001739964,3,1
9.182927e-05,0.0002132162,3,1
0.0001069013,0.000244981,3,1
9.896015e-05,0.0002619979,3,1
6.622294e-05,0.0002602152,3,1
1.338965e-05,0.0002389846,3,1
-4.706071e-05,0.0001981441,3,1
-0.0001052422,0.0001430419,3,1
-0.000159534,9.037068e-05,3,1
-0.0002109087,5.131294e-05,3,1
-0.0002608248,2.457216e-05,3,1
-0.0003078238,5.448452e-06,3,1
-0.0003463953,-1.173047e-05,3,1
-0.0003674638,-3.279896e-05,3,1
-0.00036795,-5.953974e-05,3,1
-0.0003533641,-9.179074e-05,3,1
-0.0003287302,-0.0001263107,3,1
-0.0002904828,-0.000152079,3,1
-0.0002259808,-0.0001682856,3,1
-0.0001316588,-0.0001791439,3,1
-2.242678e-05,-0.0001869231,3,1
7.837785e-05,-0.0001925954,3,1
0.0001466074,-0.0001961608,3,1
0.0001633001,-0.0001997262,3,1
0.000120839,-0.0002042641,3,1
2.846173e-05,-0.0002086398,3,1
-9.681477e-05,-0.0002125294,3,1
-0.000228898,-0.0002167431,3,1
-0.0003436402,-0.000221443,3,1
-0.0004162455,-0.000223874,3,1
-0.0004326141,-0.0002212809,3,1
-0.0003891806,-0.0002112329,3,1
-0.0002956689,-0.0001976194,3,1
-0.0001773612,-0.0001844921,3,1
-6.991193e-05,-0.0001731475,3,1
1.241726e-05,-0.0001626133,3,1
7.853991e-05,-0.0001515928,3,1
0.000140773,-0.0001357104,3,1
0.0002018716,-0.0001133454,3,1
0.0002538946,-8.611845e-05,3,1
0.0002830664,-5.970181e-05,3,1
0.0002777182,-3.992984e-05,3,1
0.0002388225,-3.036798e-05,3,1
0.0001824238,-3.328516e-05,3,1
0.0001278078,-4.608832e-05,3,1
9.118101e-05,-6.148453e-05,3,1
7.805372e-05,-7.137051e-05,3,1
8.259155e-05,-7.412562e-05,3,1
9.490851e-05,-6.926366e-05,3,1
0.0001104668,-6.002594e-05,3,1
0.0001295905,-4.738484e-05,3,1
0.00015309,-3.231277e-05,3,1
0.0001832341,-1.594417e-05,3,1
0.0002208333,7.485573e-07,3,1
0.0002594049,1.582063e-05,3,1
0.0002854973,2.586868e-05,3,1
0.0002874421,2.667901e-05,3,1
0.0002704253,2.230325e-05,3,1
0.0002485465,2.278944e-05,3,1
0.000234933,3.705119e-05,3,1
0.0002303951,6.281957e-05,3,1
0.0002271538,8.956036e-05,3,1
0.0002219677,0.0001078737,3,1
0.0002124059,0.0001172735,3,1
0.0002023578,0.0001229458,3,1
0.00019782,0.0001313732,3,1
0.0002007372,0.0001409351,3,1
0.000200251,0.0001462832,3,1
0.0001791825,0.0001423936,3,1
0.000120839,0.000128456,3,1
2.651694e-05,0.0001067393,3,1
-7.979791e-05,8.097089e-05,3,1
-0.0001626133,5.860588e-05,3,1
-0.0001984297,4.499239e-05,3,1
-0.0001861127,4.191315e-05,3,1
-0.0001366828,4.288554e-05,3,1
-6.942573e-05,3.883391e-05,3,1
-6.382317e-06,2.003433e-05,3,1
3.445814e-05,-1.497178e-05,3,1
4.547859e-05,-6.342931e-05,3,1
3.364782e-05,-0.000119666,3,1
1.274139e-05,-0.0001799543,3,1
-2.168618e-06,-0.0002418632,3,1
-6.382317e-06,-0.0002972895,3,1
-3.789272e-06,-0.000333106,3,1
-6.176923e-08,-0.00033813,3,1
1.002961e-07,-0.0003123616,3,1
-1.20546e-05,-0.0002590421,3,1
-3.992984e-05,-0.0001849783,3,1
-8.482193e-05,-9.568031e-05,3,1
-0.0001404103,3.341602e-06,3,1
-0.0001974573,0.0001067393,3,1
-0.0002481838,0.0002115956,3,1
-0.0002875656,0.0003183966,3,1
-0.0003136581,0.0004315182,3,1
-0.0003253268,0.0005545259,3,1
-0.0003269475,0.0006835299,3,1
-0.0003191683,0.0008054032,3,1
-0.0003050687,0.0009011839,3,1
-0.0002791382,0.0009611481,3,1
-0.0002344082,0.0009862683,3,1
-0.0001723372,0.0009932371,3,1
-0.0001112386,0.00100053,3,1
-7.623246e-05,0.001005716,3,1
-7.299116e-05,0.0009851338,3,1
-8.579432e-05,0.0009102596,3,1
-9.324933e-05,0.0007686144,3,1
-9.000802e-05,0.0005741358,3,1
-7.817725e-05,0.0003593992,3,1
-6.634648e-05,0.0001573037,3,1
-6.375344e-05,-2.654814e-06,3,1
-7.201877e-05,-0.0001130213,3,1
-8.838737e-05,-0.0001827094,3,1
-0.0001058904,-0.000224036,3,1
-0.0001101041,-0.0002439701,3,1
-8.903562e-05,-0.000248832,3,1
-4.333321e-05,-0.0002420253,3,1
1.306552e-05,-0.0002301945,3,1
6.589881e-05,-0.0002217671,3,1
0.0001069013,-0.0002258187,3,1
0.0001363972,-0.0002465631,3,1
0.0001626518,-0.000278652,3,1
0.0001895547,-0.0003152788,3,1
0.0002122438,-0.0003454229,3,1
0.0002255332,-0.0003668155,3,1
0.0002307193,-0.0003848048,3,1
0.000230071,-0.0004032803,3,1
0.0002211574,-0.0004193247,3,1
0.0002060853,-0.0004318037,3,1
0.0001905271,-0.0004402311,3,1
0.0001764274,-0.0004415277,3,1
0.0001660552,-0.0004285624,3,1
0.0001608691,-0.0003987424,3,1
0.0001628139,-0.000353202,3,1
0.000178048,-0.0002977757,3,1
0.0002099749,-0.0002425115,3,1
0.000254867,-0.0001950263,3,1
0.0003025142,-0.0001601823,3,1
0.0003383307,-0.0001404103,3,1
0.0003504856,-0.0001336036,3,1
0.0003422202,-0.0001318209,3,1
0.0003190449,-0.0001267968,3,1
0.0002882525,-0.0001180453,3,1
0.0002574601,-0.0001065387,3,1
0.000232502,-9.730096e-05,3,1
0.000215161,-9.535618e-05,3,1
0.0002025199,-0.0001007043,3,1
0.0001882582,-0.0001065387,3,1
0.0001718896,-0.000104918,3,1
0.0001508211,-9.389759e-05,3,1
0.0001269974,-7.60704e-05,3,1
0.0001009049,-5.289507e-05,3,1
7.610894e-05,-2.89094e-05,3,1
5.390598e-05,-5.57199e-06,3,1
3.948217e-05,1.355172e-05,3,1
3.526847e-05,3.056858e-05,3,1
4.110282e-05,4.628891e-05,3,1
5.001642e-05,6.006447e-05,3,1
5.487838e-05,6.978839e-05,3,1
5.212327e-05,7.384002e-05,3,1
4.207521e-05,7.140904e-05,3,1
2.01964e-05,6.136099e-05,3,1
-2.210265e-05,4.645098e-05,3,1
-8.547019e-05,2.878586e-05,3,1
-0.000159534,1.371378e-05,3,1
-0.0002319772,3.179537e-06,3,1
-0.0002904828,-1.358292e-06,3,1
-0.000320789,-7.100305e-07,3,1
-0.0003156029,2.623614e-07,3,1
-0.0002783279,-2.81688e-06,3,1
-0.000224036,-1.124428e-05,3,1
-0.0001741199,-1.99958e-05,3,1
-0.0001425172,-2.534396e-05,3,1
-0.000137169,-2.42095e-05,3,1
-0.0001551583,-1.756482e-05,3,1
-0.0001877334,-7.840905e-06,3,1
-0.0002335979,7.485573e-07,3,1
-0.0002942103,6.258778e-06,3,1
-0.0003674638,9.175954e-06,3,1
-0.0004392588,1.387585e-05,3,1
-0.0004885266,2.116879e-05,3,1
-0.0005010056,2.76514e-05,3,1
-0.0004760476,2.943412e-05,3,1
-0.0004215936,2.700314e-05,3,1
-0.0003395886,2.246531e-05,3,1
-0.0002394322,1.387585e-05,3,1
-0.0001353863,-6.706447e-06,3,1
-4.608832e-05,-4.268495e-05,3,1
2.165498e-05,-9.033215e-05,3,1
6.670914e-05,-0.0001379794,3,1
9.199134e-05,-0.0001713648,3,1
0.0001004187,-0.0001846542,3,1
9.118101e-05,-0.0001814128,3,1
6.83298e-05,-0.0001674752,3,1
3.413401e-05,-0.0001491618,3,1
-6.544382e-06,-0.0001327933,3,1
-4.706071e-05,-0.000122097,3,1
-7.574627e-05,-0.0001195039,3,1
-7.850138e-05,-0.0001235555,3,1
-5.192267e-05,-0.0001303623,3,1
-8.327101e-06,-0.0001357104,3,1
3.640293e-05,-0.0001314967,3,1
7.351589e-05,-0.000114804,3,1
0.0001017153,-8.725291e-05,3,1
0.0001226217,-4.932962e-05,3,1
0.0001389903,3.179537e-06,3,1
0.0001547106,6.930219e-05,3,1
0.0001736723,0.0001448246,3,1
0.0001940925,0.0002184023,3,1
0.0002104611,0.0002765838,3,1
0.0002185644,0.0003088348,3,1
0.0002239125,0.0003172622,3,1
0.0002312055,0.0003039728,3,1
0.0002401191,0.0002731804,3,1
0.0002487085,0.0002331503,3,1
0.0002508154,0.0001916615,3,1
0.0002430362,0.000155683,3,1
0.0002229401,0.0001295905,3,1
0.000195389,0.0001150046,3,1
0.0001647587,0.000111115,3,1
0.000138342,0.0001205148,3,1
0.0001268354,0.0001423936,3,1
0.0001352628,0.000170431,3,1
0.0001592484,0.0001984683,3,1
0.000187934,0.0002248849,3,1
0.0002091646,0.0002417397,3,1
0.0002185644,0.0002430362,3,1
0.0002187264,0.0002315296,3,1
0.000210137,0.0002159713,3,1
0.000192796,0.0002044647,3,1
0.0001639484,0.0002007372,3,1
0.0001247285,0.0002005751,3,1
8.388807e-05,0.000195389,3,1
4.72613e-05,0.0001761032,3,1
1.792748e-05,0.0001441764,3,1
-9.299493e-06,0.0001046324,3,1
-3.992984e-05,6.654708e-05,3,1
-7.396356e-05,3.688912e-05,3,1
-0.0001092938,1.873781e-05,3,1
-0.0001442999,1.306552e-05,3,1
-0.0001759026,1.533444e-05,3,1
-0.0002008607,1.873781e-05,3,1
-0.0002191741,1.744129e-05,3,1
-0.0002290601,1.387585e-05,3,1
-0.000223874,1.663096e-05,3,1
-0.0001998883,3.202716e-05,3,1
-0.0001637477,5.698522e-05,3,1
-0.0001264727,8.242948e-05,3,1
-9.551824e-05,0.0001038221,3,1
-7.396356e-05,0.0001247285,3,1
-5.970181e-05,0.0001519555,3,1
-5.192267e-05,0.000180479,3,1
-5.2733e-05,0.0002068957,3,1
-5.953974e-05,0.0002302331,3,1
-6.91016e-05,0.0002469258,3,1
-7.574627e-05,0.0002585945,3,1
-7.752899e-05,0.0002736666,3,1
-7.65566e-05,0.0002924662,3,1
-7.574627e-05,0.000314345,3,1
-7.542214e-05,0.0003290929,3,1
-7.250496e-05,0.0003227724,3,1
-6.780507e-05,0.0002830664,3,1
-6.731888e-05,0.0002104611,3,1
-7.882551e-05,0.0001193804,3,1
-0.0001037836,2.846173e-05,3,1
-0.000137169,-4.868137e-05,3,1
-0.0001802784,-0.000107349,3,1
-0.0002452666,-0.0001472171,3,1
-0.00032322,-0.000169258,3,1
-0.0003875599,-0.0001765509,3,1
-0.0004070078,-0.0001752544,3,1
-0.000365519,-0.0001686097,3,1
-0.0002723315,-0.000161965,3,1
-0.0001571031,-0.0001606685,3,1
-5.710876e-05,-0.0001676373,3,1
5.124321e-06,-0.0001825473,3,1
2.992031e-05,-0.0002045882,3,1
3.316162e-05,-0.0002355427,3,1
3.121684e-05,-0.0002739521,3,1
3.283749e-05,-0.0003152788,3,1
4.645098e-05,-0.0003514194,3,1
7.562274e-05,-0.0003767015,3,1
0.0001198666,-0.0003901529,3,1
0.0001702689,-0.0003948528,3,1
0.0002130541,-0.0003969597,3,1
0.0002378501,-0.0003992286,3,1
0.0002381743,-0.0004019837,3,1
0.0002166196,-0.000405063,3,1
0.0001876099,-0.0004057112,3,1
0.0001699448,-0.0004003631,3,1
0.0001757791,-0.0003857772,3,1
0.0002086784,-0.0003585502,3,1
0.0002516257,-0.0003168994,3,1
0.0002840388,-0.0002653627,3,1
0.0002968419,-0.0002081536,3,1
0.0002960316,-0.0001483515,3,1
0.0002955454,-8.660465e-05,3,1
0.0003008936,-1.99958e-05,3,1
0.0003102934,5.390598e-05,3,1
0.000319207,0.0001362352,3,1
0.0003222862,0.0002196988,3,1
0.0003162898,0.0002918179,3,1
0.0003033245,0.0003357376,3,1
0.0002833905,0.0003433547,3,1
0.0002590807,0.0003136967,3,1
0.0002326641,0.0002555152,3,1
0.0002059233,0.0001803169,3,1
0.0001756171,0.0001039842,3,1
0.000140773,4.061663e-05,3,1
0.0001031738,2.207145e-06,3,1
6.622294e-05,-8.002969e-06,3,1
3.413401e-05,4.638125e-06,3,1
1.727922e-05,2.424803e-05,3,1
2.295151e-05,4.191315e-05,3,1
5.406805e-05,5.390598e-05,3,1
0.000101067,6.168512e-05,3,1
0.0001485521,6.978839e-05,3,1
0.0001837203,8.810177e-05,3,1
0.000195389,0.0001201907,3,1
0.0001788584,0.0001637863,3,1
0.0001339663,0.0002196988,3,1
7.011252e-05,0.0002830664,3,1
-1.196227e-06,0.0003472443,3,1
-7.169464e-05,0.0004068843,3,1
-0.000137169,0.0004637693,3,1
-0.0001921092,0.0005136854,3,1
-0.000226467,0.0005516087,3,1
-0.0002386219,0.0005660325,3,1
-0.0002319772,0.0005460985,3,1
-0.0002175534,0.0004866205,3,1
-0.0002097743,0.0003955397,3,1
-0.0002178775,0.0002837146,3,1
-0.0002467252,0.0001675138,3,1
-0.0002977757,6.022653e-05,3,1
-0.0003695707,-2.955766e-05,3,1
-0.0004517378,-9.778715e-05,3,1
-0.0005211017,-0.0001433275,3,1
-0.0005612939,-0.0001699062,3,1
-0.0005611319,-0.0001833576,3,1
-0.0005152673,-0.0001908126,3,1
-0.0004264556,-0.0001972953,3,1
-0.0003115513,-0.000206533,3,1
-0.0001927574,-0.0002182017,3,1
-9.600444e-05,-0.0002250084,3,1
-4.106429e-05,-0.0002220912,3,1
-2.988179e-05,-0.0002104225,3,1
-4.138842e-05,-0.0001919471,3,1
-4.868137e-05,-0.0001702304,3,1
-3.766092e-05,-0.0001451102,3,1
-1.25408e-05,-0.0001131834,3,1
9.175954e-06,-7.056019e-05,3,1
2.068259e-05,-1.934754e-05,3,1
1.760335e-05,3.510641e-05,3,1
2.531276e-06,8.405014e-05,3,1
-1.189254e-05,0.0001156529,3,1
-1.286493e-05,0.0001175977,3,1
3.341602e-06,8.79397e-05,3,1
3.364782e-05,3.98063e-05,3,1
6.849186e-05,-9.299493e-06,3,1
9.669123e-05,-5.305713e-05,3,1
0.0001132219,-9.29252e-05,3,1
0.0001224596,-0.0001324691,3,1
0.0001313732,-0.0001650443,3,1
0.0001425557,-0.0001865989,3,1
0.0001561692,-0.0001959987,3,1
0.0001668655,-0.0001985918,3,1
0.0001667035,-0.0002029675,3,1
0.0001464453,-0.0002149604,3,1
0.000108522,-0.0002321393,3,1
6.281957e-05,-0.0002502906,3,1
1.695509e-05,-0.0002640662,3,1
-2.0482e-05,-0.0002720074,3,1
-3.830919e-05,-0.0002723315,3,1
-2.518189e-05,-0.0002647144,3,1
1.906194e-05,-0.0002523975,3,1
8.696731e-05,-0.0002408908,3,1
0.0001649207,-0.0002321393,3,1
0.0002451431,-0.0002225774,3,1
0.0003179104,-0.0002057227,3,1
0.0003816021,-0.0001778474,3,1
0.0004324906,-0.0001379794,3,1
0.0004585832,-9.341139e-05,3,1
0.0004474007,-5.370539e-05,3,1
0.000393757,-2.129233e-05,3,1
0.00030689,6.258778e-06,3,1
0.0002088404,3.008238e-05,3,1
0.0001227837,5.763349e-05,3,1
6.168512e-05,0.0001028497,3,1
2.781346e-05,0.0001827479,3,1
1.22552e-05,0.0002957075,3,1
3.989864e-06,0.0004141773,3,1
5.448452e-06,0.0005046097,3,1
2.684107e-05,0.0005404262,3,1
7.270556e-05,0.0005123889,3,1
0.0001302388,0.0004384871,3,1
0.0001773998,0.0003425444,3,1
0.0001961994,0.0002464396,3,1
0.0001856651,0.0001660552,3,1
0.0001600588,0.0001083599,3,1
0.0001370455,7.562274e-05,3,1
0.0001187321,6.735741e-05,3,1
9.896015e-05,7.756752e-05,3,1
6.962632e-05,9.409818e-05,3,1
3.073064e-05,0.0001094944,3,1
-1.335113e-05,0.0001205148,3,1
-6.051213e-05,0.0001252147,3,1
-0.0001081593,0.0001268354,3,1
-0.0001472171,0.0001338042,3,1
-0.0001700683,0.0001526038,3,1
-0.0001789819,0.0001837203,3,1
-0.0001846542,0.0002235884,3,1
-0.0001914609,0.0002611876,3,1
-0.0001985918,0.0002903593,3,1
-0.000201509,0.0003059176,3,1
-0.0001972953,0.0003034866,3,1
-0.0001909747,0.0002782044,3,1
-0.0001869231,0.0002234263,3,1
-0.0001862748,0.0001401247,3,1
-0.0001869231,3.867184e-05,3,1
-0.0001901644,-6.602235e-05,3,1
-0.0001945401,-0.000159372,3,1
-0.0001994021,-0.0002292221,3,1
-0.0002023193,-0.0002677937,3,1
-0.0002045882,-0.0002739521,3,1
-0.0002097743,-0.0002588801,3,1
-0.0002188499,-0.0002382978,3,1
-0.0002217671,-0.0002254946,3,1
-0.0002102605,-0.0002324634,3,1
-0.0001853024,-0.0002617972,3,1
-0.0001559686,-0.0003049066,3,1
-0.0001353863,-0.000350447,3,1
-0.0001339277,-0.0003917736,3,1
-0.0001478653,-0.0004245108,3,1
-0.0001677994,-0.0004421759,3,1
-0.0001784957,-0.0004332623,3,1
-0.0001712027,-0.0004016596,3,1
-0.0001441378,-0.0003569296,3,1
-0.0001063766,-0.0003066893,3,1
-7.137051e-05,-0.0002561249,3,1
-5.419158e-05,-0.0002104225,3,1
-5.710876e-05,-0.0001686097,3,1
-6.310517e-05,-0.0001248521,3,1
-5.013995e-05,-7.120844e-05,3,1
-6.868513e-06,-5.734056e-06,3,1
5.682316e-05,7.481241e-05,3,1
0.0001187321,0.0001692965,3,1
0.0001652449,0.0002710735,3,1
0.0001945787,0.0003666921,3,1
0.0002145127,0.0004488593,3,1
0.0002297469,0.0005128751,3,1
0.0002360674,0.00055955,3,1
0.0002286124,0.000582077,3,1
0.0002099749,0.0005738117,3,1
0.0001916615,0.000532485,3,1
0.0001795066,0.0004595556,3,1
0.0001699448,0.0003624784,3,1
0.0001568175,0.0002555152,3,1
0.0001396385,0.0001569795,3,1
0.0001237561,8.453633e-05,3,1
0.000113546,5.017848e-05,3,1
0.0001172735,4.985435e-05,3,1
0.0001391524,7.189524e-05,3,1
0.0001715654,9.993253e-05,3,1
0.0002023578,0.0001239182,3,1
0.0002256952,0.0001422316,3,1
0.0002352571,0.0001553589,3,1
0.0002258573,0.0001597346,3,1
0.000195389,0.0001474177,3,1
0.0001535762,0.0001154908,3,1
0.0001177597,6.525056e-05,3,1
9.750156e-05,6.096713e-06,3,1
8.810177e-05,-4.38194e-05,3,1
8.04847e-05,-7.444975e-05,3,1
7.011252e-05,-8.093236e-05,3,1
6.281957e-05,-6.569822e-05,3,1
6.395404e-05,-3.733679e-05,3,1
7.740546e-05,-6.544382e-06,3,1
0.0001039842,1.954813e-05,3,1
0.0001389903,3.737532e-05,3,1
0.0001728619,4.35338e-05,3,1
0.0001921477,4.191315e-05,3,1
0.0001910133,3.575467e-05,3,1
0.0001739964,2.959619e-05,3,1
0.0001466074,2.635488e-05,3,1
0.0001140322,2.133085e-05,3,1
8.680524e-05,1.290346e-05,3,1
7.059871e-05,4.638125e-06,3,1
5.99024e-05,-1.520357e-06,3,1
4.515445e-05,-4.437533e-06,3,1
1.338965e-05,-6.058186e-06,3,1
-4.835724e-05,-8.975362e-06,3,1
-0.0001415448,-1.20546e-05,3,1
-0.0002527216,-1.448558e-05,3,1
-0.0003587123,-1.772689e-05,3,1
-0.0004392588,-2.534396e-05,3,1
-0.0004744269,-4.317115e-05,3,1
-0.0004562756,-7.493595e-05,3,1
-0.0003899909,-0.0001185315,3,1
-0.0002964792,-0.0001634236,3,1
-0.0002029675,-0.0002031296,3,1
-0.0001331174,-0.0002308428,3,1
-9.29252e-05,-0.0002491561,3,1
-7.60704e-05,-0.0002634179,3,1
-6.667062e-05,-0.0002758969,3,1
-6.035007e-05,-0.0002851347,3,1
-5.905355e-05,-0.0002916173,3,1
-6.764301e-05,-0.0002990722,3,1
-9.098041e-05,-0.0003104168,3,1
-0.0001261486,-0.0003290543,3,1
-0.0001592099,-0.0003502849,3,1
-0.0001736337,-0.0003640605,3,1
-0.0001635857,-0.0003595226,3,1
-0.0001329553,-0.0003347266,3,1
-9.535618e-05,-0.0002946965,3,1
-6.375344e-05,-0.0002441321,3,1
-4.268495e-05,-0.0001896782,3,1
-3.053005e-05,-0.0001314967,3,1
-2.599222e-05,-6.845333e-05,3,1
-2.437157e-05,6.420843e-06,3,1
-2.339918e-05,0.0001007429,3,1
-1.740276e-05,0.0002164575,3,1
-7.100305e-07,0.0003376824,3,1
2.522042e-05,0.0004409181,3,1
5.260946e-05,0.0004984512,3,1
7.513654e-05,0.0004974789,3,1
9.101894e-05,0.0004388112,3,1
0.0001002567,0.0003373583,3,1
0.0001041462,0.0002145127,3,1
0.0001004187,9.604298e-05,3,1
8.84259e-05,3.179537e-06,3,1
7.319176e-05,-5.419158e-05,3,1
6.606088e-05,-7.914964e-05,3,1
7.351589e-05,-8.02841e-05,3,1
9.604298e-05,-7.007399e-05,3,1
0.0001286181,-5.743289e-05,3,1
0.000165569,-5.095028e-05,3,1
0.0001968476,-5.338126e-05,3,1
0.0002145127,-6.326724e-05,3,1
0.0002133783,-7.671866e-05,3,1
0.0002018716,-8.838737e-05,3,1
0.0001945787,-9.438378e-05,3,1
0.0001989545,-9.000802e-05,3,1
0.0002085163,-6.958779e-05,3,1
0.0002012234,-3.63644e-05,3,1
0.0001539003,2.04508e-06,3,1
5.957827e-05,3.672706e-05,3,1
-6.180866e-05,6.735741e-05,3,1
-0.0001749302,9.701536e-05,3,1
-0.0002480217,0.000128456,3,1
-0.0002605007,0.0001657311,3,1
-0.0002096122,0.0002093267,3,1
-0.0001139937,0.0002566497,3,1
-7.516774e-06,0.0003000832,3,1
7.951231e-05,0.000331686,3,1
0.0001346145,0.0003443271,3,1
0.0001600588,0.0003384927,3,1
0.0001652449,0.0003221241,3,1
0.0001645966,0.000304297,3,1
0.0001618415,0.0002910076,3,1
0.0001551968,0.0002843629,3,1
0.0001423936,0.0002838767,3,1
0.0001172735,0.0002900352,3,1
7.837785e-05,0.0003007315,3,1
2.878586e-05,0.0003127243,3,1
-1.886135e-05,0.0003198552,3,1
-5.354332e-05,0.0003136967,3,1
-6.942573e-05,0.0002944109,3,1
-6.829127e-05,0.0002628082,3,1
-5.710876e-05,0.0002187264,3,1
-4.219875e-05,0.0001613553,3,1
-2.988179e-05,9.588091e-05,3,1
-2.291298e-05,2.894792e-05,3,1
-2.323711e-05,-3.053005e-05,3,1
-2.955766e-05,-7.542214e-05,3,1
-3.555408e-05,-0.0001036215,3,1
-3.360929e-05,-0.0001212866,3,1
-2.258885e-05,-0.0001374932,3,1
-3.303076e-06,-0.00015451,3,1
1.436204e-05,-0.0001721751,3,1
1.468618e-05,-0.0001901644,3,1
-6.868513e-06,-0.0002094502,3,1
-4.252288e-05,-0.0002308428,3,1
-8.125649e-05,-0.0002499665,3,1
-0.0001162626,-0.0002652006,3,1
-0.0001428413,-0.0002775176,3,1
-0.0001592099,-0.0002875656,3,1
-0.0001632615,-0.0002977757,3,1
-0.0001525652,-0.0003100927,3,1
-0.0001302002,-0.0003246786,3,1
-0.0001039456,-0.0003348887,3,1
-7.671866e-05,-0.0003348887,3,1
-4.90055e-05,-0.0003217614,3,1
-2.583016e-05,-0.0002966413,3,1
-1.270286e-05,-0.0002666592,3,1
-1.010982e-05,-0.0002425115,3,1
-1.578211e-05,-0.0002248464,3,1
-3.053005e-05,-0.0002079916,3,1
-5.483985e-05,-0.0001877334,3,1
-8.384954e-05,-0.0001645581,3,1
-0.000104756,-0.0001384655,3,1
-0.0001143178,-0.0001031353,3,1
-0.0001159385,-5.176061e-05,3,1
-0.0001092938,2.181705e-05,3,1
-8.158062e-05,0.0001116012,3,1
-9.299493e-06,0.0001997648,3,1
0.0001137081,0.0002705873,3,1
0.0002576221,0.0003080245,3,1
0.0003736609,0.0003046211,3,1
0.000423415,0.0002585945,3,1
0.0003948915,0.0001817755,3,1
0.0003064038,9.377406e-05,3,1
0.0001947408,1.776542e-05,3,1
0.0001041462,-3.069211e-05,3,1
6.071273e-05,-4.722278e-05,3,1
6.184718e-05,-4.025397e-05,3,1
8.810177e-05,-1.902341e-05,3,1
0.0001187321,7.879432e-06,3,1
0.00013818,3.218923e-05,3,1
0.0001477418,4.661304e-05,3,1
0.0001563313,5.163707e-05,3,1
0.0001731861,5.098881e-05,3,1
0.0002023578,5.341979e-05,3,1
0.0002396328,6.184718e-05,3,1
0.0002707494,7.691926e-05,3,1
0.0002812837,9.847395e-05,3,1
0.0002665357,0.0001227837,3,1
0.0002346088,0.0001474177,3,1
0.0001981441,0.0001670276,3,1
0.0001654069,0.0001793446,3,1
0.0001349386,0.0001820997,3,1
0.0001039842,0.0001801549,3,1
7.043665e-05,0.000175455,3,1
4.304761e-05,0.0001686482,3,1
3.056858e-05,0.0001634622,3,1
3.429608e-05,0.000160545,3,1
4.628891e-05,0.000158114,3,1
5.390598e-05,0.0001568175,3,1
4.304761e-05,0.000155521,3,1
7.393236e-06,0.0001548727,3,1
-4.738484e-05,0.0001522796,3,1
-0.0001032974,0.0001443384,3,1
-0.0001441378,0.000133318,3,1
-0.000159534,0.0001213252,3,1
-0.0001530514,0.0001124116,3,1
-0.0001389517,0.0001116012,3,1
-0.0001313347,0.0001187321,3,1
-0.0001329553,0.0001304008,3,1
