EMG1,EMG2,class,user
-9.130454e-05,-0.0001783336,3,1
-7.33153e-05,-0.000174444,3,1
-4.009191e-05,-0.0001449482,3,1
3.341602e-06,-8.903562e-05,3,1
4.304761e-05,-1.67545e-05,3,1
5.747142e-05,5.309566e-05,3,1
3.834771e-05,0.0001197045,3,1
-2.330684e-06,0.0001994406,3,1
-4.462973e-05,0.0003096451,3,1
-6.796714e-05,0.0004486972,3,1
-5.59743e-05,0.0006000663,3,1
-7.840905e-06,0.0007350668,3,1
6.022653e-05,0.0008193408,3,1
0.0001232699,0.0008237166,3,1
0.0001691344,0.000738146,3,1
0.0001974959,0.0005793219,3,1
0.0002112714,0.0003848434,3,1
0.0002156472,0.0001947408,3,1
0.0002141886,4.045456e-05,3,1
0.0002067336,-6.164659e-05,3,1
0.0001944166,-0.0001109144,3,1
0.0001848548,-0.0001138316,3,1
0.0001842065,-8.271508e-05,3,1
0.0001934442,-2.696461e-05,3,1
0.0002091646,4.191315e-05,3,1
0.0002260194,0.0001141943,3,1
0.0002370398,0.0001859892,3,1
0.0002396328,0.0002564877,3,1
0.0002294227,0.0003323342,3,1
0.0002078681,0.0004141773,3,1
0.0001808031,0.0004896998,3,1
0.0001563313,0.0005332953,3,1
0.0001393144,0.0005263265,3,1
0.0001346145,0.0004699278,3,1
0.0001435281,0.0003783608,3,1
0.0001597346,0.0002668598,3,1
0.000170593,0.0001517934,3,1
0.0001772377,5.098881e-05,3,1
0.0001895547,-2.84232e-05,3,1
0.0002133783,-8.158062e-05,3,1
0.0002457913,-0.0001109144,3,1
0.0002739907,-0.0001256624,3,1
0.0002838767,-0.0001318209,3,1
0.0002675081,-0.0001324691,3,1
0.0002253711,-0.0001352242,3,1
0.0001623277,-0.0001405724,3,1
8.178122e-05,-0.0001468929,3,1
-1.480971e-05,-0.0001528894,3,1
-0.0001214487,-0.0001574272,3,1
-0.0002217671,-0.0001551583,3,1
-0.0002980999,-0.0001481895,3,1
-0.0003436402,-0.0001399241,3,1
-0.0003601709,-0.0001323071,3,1
-0.0003543365,-0.0001242038,3,1
-0.0003311612,-0.0001138316,3,1
-0.0002974516,-0.0001007043,3,1
-0.0002629317,-8.871149e-05,3,1
-0.0002323013,-8.303922e-05,3,1
-0.0002084778,-8.952183e-05,3,1
-0.0001927574,-0.0001076731,3,1
-0.000184168,-0.0001374932,3,1
-0.0001783336,-0.0001765509,3,1
-0.0001647201,-0.0002172293,3,1
-0.0001324691,-0.0002519113,3,1
-8.222889e-05,-0.0002765452,3,1
-2.7937e-05,-0.0002919414,3,1
9.66215e-06,-0.0003002067,3,1
2.01964e-05,-0.000303286,3,1
1.002961e-07,-0.0003042584,3,1
-4.317115e-05,-0.0003036101,3,1
-9.405965e-05,-0.0003002067,3,1
-0.0001391138,-0.0002922655,3,1
-0.0001710407,-0.0002809209,3,1
-0.0001806025,-0.0002679557,3,1
-0.0001648822,-0.0002553146,3,1
-0.0001245279,-0.0002426735,3,1
-6.926366e-05,-0.0002311669,3,1
-1.20546e-05,-0.0002194982,3,1
3.494434e-05,-0.0002062088,3,1
6.184718e-05,-0.0001898403,3,1
6.492643e-05,-0.000166827,3,1
4.580272e-05,-0.0001311726,3,1
1.095867e-05,-7.428769e-05,3,1
-3.296103e-05,9.106227e-07,3,1
-8.044617e-05,8.259155e-05,3,1
-0.0001203142,0.0001529279,3,1
-0.000147055,0.0001958752,3,1
-0.0001647201,0.0002023578,3,1
-0.0001736337,0.0001667035,3,1
-0.0001724993,8.84259e-05,3,1
-0.0001575893,-1.934754e-05,3,1
-0.0001258245,-0.000134738,3,1
-7.65566e-05,-0.000241377,3,1
-1.043395e-05,-0.00033813,3,1
6.638502e-05,-0.000424997,3,1
0.0001372076,-0.0004977643,3,1
0.0001783722,-0.0005463839,3,1
0.0001749688,-0.0005593491,3,1
0.0001271595,-0.000524343,3,1
5.390598e-05,-0.0004361795,3,1
-1.237873e-05,-0.0003037722,3,1
-3.717473e-05,-0.0001509446,3,1
-1.520357e-06,-3.789272e-06,3,1
9.393612e-05,0.0001145184,3,1
0.0002245608,0.0001958752,3,1
0.0003534027,0.0002483844,3,1
0.0004512903,0.0002910076,3,1
0.0005067165,0.0003397893,3,1
0.0005161164,0.0004031568,3,1
0.000482893,0.000478031,3,1
0.0004170944,0.0005542018,3,1
0.0003324963,0.00061919,3,1
0.0002543808,0.0006632718,3,1
0.000200251,0.0006895264,3,1
0.0001725378,0.0007031399,3,1
0.000160545,0.0007105949,3,1
0.0001524417,0.0007128638,3,1
0.0001433661,0.0007060571,3,1
0.0001354248,0.0006835299,3,1
0.0001304008,0.0006381517,3,1
0.0001378558,0.0005653843,3,1
0.000168,0.0004696036,3,1
0.0002185644,0.0003603715,3,1
0.0002707494,0.0002529222,3,1
0.000294573,0.0001628139,3,1
0.0002689667,0.0001041462,3,1
0.0001880961,8.534666e-05,3,1
6.800567e-05,0.0001064152,3,1
-6.569822e-05,0.0001564933,3,1
-0.0001838438,0.0002237505,3,1
-0.0002674695,0.0002940868,3,1
-0.0003071755,0.0003532407,3,1
-0.0003016653,0.0003968363,3,1
-0.0002601766,0.0004329769,3,1
-0.0002036158,0.0004670106,3,1
-0.0001587237,0.0004942376,3,1
-0.0001428413,0.0004945617,3,1
-0.0001577513,0.0004524247,3,1
-0.0001930815,0.0003623164,3,1
-0.0002337599,0.0002331503,3,1
-0.0002640662,8.875003e-05,3,1
-0.0002752487,-4.527799e-05,3,1
-0.0002684419,-0.0001522411,3,1
-0.0002493182,-0.0002276015,3,1
-0.0002245222,-0.0002739521,3,1
-0.0002000504,-0.0002961551,3,1
-0.0001840059,-0.0003003688,3,1
-0.0001780095,-0.000293562,3,1
-0.0001763888,-0.0002799486,3,1
-0.0001724993,-0.0002643903,3,1
-0.0001624512,-0.0002532078,3,1
-0.0001431655,-0.000251263,3,1
-0.0001131834,-0.0002579077,3,1
-7.542214e-05,-0.0002707109,3,1
-3.928157e-05,-0.0002867553,3,1
-1.788895e-05,-0.0003042584,3,1
-1.934754e-05,-0.0003224097,3,1
-4.203669e-05,-0.0003384541,3,1
-7.526008e-05,-0.0003462333,3,1
-0.0001018388,-0.0003407231,3,1
-0.0001086455,-0.0003235441,3,1
-8.417367e-05,-0.0003006929,3,1
-2.988179e-05,-0.0002848105,3,1
4.126489e-05,-0.0002812451,3,1
0.0001091703,-0.0002890242,3,1
0.0001571416,-0.0002993964,3,1
0.0001772377,-0.0003074997,3,1
0.0001654069,-0.0003138202,3,1
0.000125863,-0.0003262992,3,1
6.914012e-05,-0.0003551469,3,1
1.12828e-05,-0.0004032803,3,1
-3.247483e-05,-0.0004600031,3,1
-5.111234e-05,-0.0005031124,3,1
-4.106429e-05,-0.0005181845,3,1
-9.947754e-06,-0.0005013297,3,1
3.008238e-05,-0.0004574101,3,1
6.573675e-05,-0.0003937184,3,1
8.777764e-05,-0.0003206269,3,1
9.31258e-05,-0.0002501286,3,1
8.259155e-05,-0.0001896782,3,1
5.763349e-05,-0.0001394379,3,1
2.068259e-05,-9.697683e-05,3,1
-2.923353e-05,-6.261898e-05,3,1
-8.190475e-05,-3.26369e-05,3,1
-0.0001216107,-5.409925e-06,3,1
-0.0001279313,1.565857e-05,3,1
-8.482193e-05,2.927205e-05,3,1
3.341602e-06,3.413401e-05,3,1
0.000111115,3.656499e-05,3,1
0.0002075439,4.077869e-05,3,1
0.0002691288,5.341979e-05,3,1
0.0002923041,8.161915e-05,3,1
0.0002942489,0.0001313732,3,1
0.0002929524,0.000202844,3,1
0.0002916559,0.0002880904,3,1
0.0002842008,0.0003794953,3,1
0.0002621599,0.0004733311,3,1
0.0002237505,0.0005603603,3,1
0.000173024,0.0006234037,3,1
0.0001226217,0.0006412309,3,1
9.085688e-05,0.0006003904,3,1
9.26396e-05,0.0005055821,3,1
0.000128294,0.0003778746,3,1
0.0001757791,0.0002508154,3,1
0.0002137024,0.0001466074,3,1
0.0002271538,7.497447e-05,3,1
0.000210299,3.445814e-05,3,1
0.0001603829,1.468618e-05,3,1
7.691926e-05,7.555301e-06,3,1
-2.89094e-05,8.365628e-06,3,1
-0.0001266348,2.01964e-05,3,1
-0.0001856265,4.742337e-05,3,1
-0.0001953505,9.280167e-05,3,1
-0.000169258,0.0001487142,3,1
-0.0001334415,0.0001979821,3,1
-0.0001076731,0.0002227781,3,1
-9.746302e-05,0.0002153231,3,1
-9.29252e-05,0.0001803169,3,1
-8.125649e-05,0.0001295905,3,1
-5.921561e-05,7.870197e-05,3,1
-3.26369e-05,3.316162e-05,3,1
-1.140634e-05,-5.409925e-06,3,1
8.365628e-06,-3.360929e-05,3,1
3.786152e-05,-4.689865e-05,3,1
7.448828e-05,-4.511593e-05,3,1
0.0001013911,-3.344723e-05,3,1
0.0001031738,-1.805102e-05,3,1
7.481241e-05,-4.599598e-06,3,1
1.857574e-05,4.80019e-06,3,1
-5.435365e-05,8.689758e-06,3,1
-0.0001287416,6.420843e-06,3,1
-0.0001927574,-1.520357e-06,3,1
-0.0002404046,-1.221667e-05,3,1
-0.0002650386,-2.323711e-05,3,1
-0.0002630937,-2.988179e-05,3,1
-0.0002368392,-3.198864e-05,3,1
-0.0001958367,-2.971972e-05,3,1
-0.0001504584,-2.583016e-05,3,1
-0.0001079973,-2.42095e-05,3,1
-6.197072e-05,-2.631635e-05,3,1
-7.030578e-06,-3.150244e-05,3,1
5.61749e-05,-3.782299e-05,3,1
0.0001081979,-4.657452e-05,3,1
0.0001197045,-6.002594e-05,3,1
7.108491e-05,-8.02841e-05,3,1
-3.555408e-05,-0.0001052422,3,1
-0.00016942,-0.0001318209,3,1
-0.0002895104,-0.0001549962,3,1
-0.0003711913,-0.0001712027,3,1
-0.0004071698,-0.0001830335,3,1
-0.0004008493,-0.0001951884,3,1
-0.0003548227,-0.0002128535,3,1
-0.0002682799,-0.000238784,3,1
-0.0001522411,-0.0002684419,3,1
-3.522994e-05,-0.0002943724,3,1
5.277153e-05,-0.0003110651,3,1
0.0001030118,-0.0003177098,3,1
0.0001252147,-0.0003139823,3,1
0.0001365593,-0.0002971275,3,1
0.0001490383,-0.0002642282,3,1
0.000168162,-0.0002097743,3,1
0.0001926339,-0.0001368449,3,1
0.000217754,-5.2733e-05,3,1
0.0002388225,3.850978e-05,3,1
0.0002538946,0.0001376938,3,1
0.0002676702,0.0002446569,3,1
0.0002866318,0.0003606957,3,1
0.000309483,0.0004815964,3,1
0.0003264999,0.0006008766,3,1
0.0003279585,0.0007060571,3,1
0.0003130485,0.000779959,3,1
0.0002854973,0.00081221,3,1
0.0002568118,0.0008002172,3,1
0.0002339606,0.0007475458,3,1
0.0002203471,0.000656303,3,1
0.0002090025,0.0005342677,3,1
0.0001945787,0.0003994293,3,1
0.0001751309,0.000277232,3,1
0.0001503349,0.0001872858,3,1
0.000118408,0.0001349386,3,1
8.210535e-05,0.000108522,3,1
4.515445e-05,8.923623e-05,3,1
9.175954e-06,6.006447e-05,3,1
-2.858527e-05,1.014835e-05,3,1
-7.201877e-05,-5.532604e-05,3,1
-0.000119666,-0.0001238797,3,1
-0.0001603444,-0.0001797922,3,1
-0.0001812508,-0.0002138259,3,1
-0.0001746061,-0.0002188499,3,1
-0.0001391138,-0.000194216,3,1
-8.968389e-05,-0.0001408965,3,1
-5.937768e-05,-6.796714e-05,3,1
-7.428769e-05,1.014835e-05,3,1
-0.0001336036,7.351589e-05,3,1
-0.0002143121,0.0001080358,3,1
-0.0002789762,0.0001088461,3,1
-0.0003013411,7.448828e-05,3,1
-0.0002846485,1.760335e-05,3,1
-0.0002528836,-4.398147e-05,3,1
-0.0002245222,-9.762509e-05,3,1
-0.0001953505,-0.000134738,3,1
-0.000147055,-0.0001515928,3,1
-6.731888e-05,-0.0001465688,3,1
3.024445e-05,-0.0001191798,3,1
0.0001128978,-7.412562e-05,3,1
0.0001529279,-1.270286e-05,3,1
0.000145797,5.828175e-05,3,1
0.0001052807,0.0001312112,3,1
5.682316e-05,0.000202844,3,1
1.987227e-05,0.0002663737,3,1
3.503668e-06,0.0003052694,3,1
9.013889e-06,0.0003010556,3,1
4.013043e-05,0.000252436,3,1
8.891209e-05,0.0001761032,3,1
0.0001338042,9.199134e-05,3,1
0.0001475797,1.614476e-05,3,1
0.0001240803,-3.944364e-05,3,1
7.52986e-05,-6.667062e-05,3,1
2.246531e-05,-6.877746e-05,3,1
-2.826114e-05,-6.521203e-05,3,1
-7.882551e-05,-7.639453e-05,3,1
-0.0001316588,-0.0001086455,3,1
-0.0001801163,-0.0001527273,3,1
-0.0002063709,-0.0001953505,3,1
-0.0001979435,-0.0002295462,3,1
-0.0001533756,-0.0002548284,3,1
-8.44978e-05,-0.0002788141,3,1
-1.351319e-05,-0.0003053928,3,1
3.478228e-05,-0.0003342404,3,1
5.050261e-05,-0.0003598467,3,1
3.964424e-05,-0.0003755671,3,1
1.889987e-05,-0.0003757291,3,1
7.23117e-06,-0.0003626019,3,1
1.630683e-05,-0.0003407231,3,1
5.260946e-05,-0.0003160891,3,1
0.0001116012,-0.0002922655,3,1
0.0001759412,-0.0002656868,3,1
0.0002265056,-0.0002370013,3,1
0.000252274,-0.0002062088,3,1
0.000252274,-0.000176875,3,1
0.0002255332,-0.0001491618,3,1
0.0001812893,-0.000122097,3,1
0.0001331559,-9.146661e-05,3,1
9.361199e-05,-5.743289e-05,3,1
7.189524e-05,-2.501983e-05,3,1
6.735741e-05,1.883015e-06,3,1
7.351589e-05,1.938607e-05,3,1
8.583286e-05,2.522042e-05,3,1
9.68533e-05,8.527692e-06,3,1
0.0001041462,-2.89094e-05,3,1
0.0001137081,-7.65566e-05,3,1
0.0001299146,-0.0001245279,3,1
0.0001487142,-0.0001622891,3,1
0.0001615174,-0.0001812508,3,1
0.0001642725,-0.0001762268,3,1
0.00015309,-0.0001442999,3,1
0.0001269974,-8.547019e-05,3,1
9.004655e-05,-8.651231e-06,3,1
4.709924e-05,7.270556e-05,3,1
6.582909e-06,0.0001446626,3,1
-2.210265e-05,0.0001942546,3,1
-3.166451e-05,0.0002141886,3,1
-1.805102e-05,0.0002043026,3,1
1.468618e-05,0.0001772377,3,1
5.536457e-05,0.000148228,3,1
8.356394e-05,0.0001268354,3,1
8.648112e-05,0.0001187321,3,1
6.654708e-05,0.000121001,3,1
3.98063e-05,0.0001253768,3,1
2.505836e-05,0.0001274836,3,1
2.473423e-05,0.0001237561,3,1
2.878586e-05,0.0001116012,3,1
2.975825e-05,9.296373e-05,3,1
2.295151e-05,6.573675e-05,3,1
3.665733e-06,2.732727e-05,3,1
-3.312309e-05,-1.918548e-05,3,1
-7.979791e-05,-6.602235e-05,3,1
-0.0001190177,-0.0001024871,3,1
-0.0001387897,-0.0001229073,3,1
-0.000142031,-0.0001266348,3,1
-0.0001381414,-0.0001139937,3,1
-0.0001349001,-8.190475e-05,3,1
-0.0001363587,-2.728874e-05,3,1
-0.0001514308,4.564065e-05,3,1
-0.0001856265,0.0001316974,3,1
-0.0002340841,0.000220185,3,1
-0.0002796244,0.0002991108,3,1
-0.0003050687,0.0003524304,3,1
-0.0003096065,0.0003662059,3,1
-0.0003024756,0.0003405996,3,1
-0.0002958309,0.0002900352,3,1
-0.0002919414,0.0002469258,3,1
-0.0002849726,0.0002433604,3,1
-0.0002621213,0.0002830664,3,1
-0.0002162569,0.0003433547,3,1
-0.0001548341,0.0003918123,3,1
-9.065628e-05,0.0004020224,3,1
-3.522994e-05,0.0003691231,3,1
4.80019e-06,0.0003036487,3,1
2.570662e-05,0.000220185,3,1
2.651694e-05,0.0001305629,3,1
7.393236e-06,4.985435e-05,3,1
-2.307504e-05,-1.497178e-05,3,1
-5.483985e-05,-6.326724e-05,3,1
-7.801519e-05,-9.697683e-05,3,1
-8.952183e-05,-0.000119828,3,1
-9.341139e-05,-0.0001318209,3,1
-9.081835e-05,-0.0001319829,3,1
-8.125649e-05,-0.0001237176,3,1
-6.261898e-05,-0.0001118868,3,1
-3.63644e-05,-0.0001079973,3,1
-2.654814e-06,-0.0001188556,3,1
2.992031e-05,-0.0001379794,3,1
5.536457e-05,-0.0001517549,3,1
7.011252e-05,-0.0001507825,3,1
7.238143e-05,-0.0001323071,3,1
5.925414e-05,-0.000102325,3,1
3.040651e-05,-6.569822e-05,3,1
-6.220252e-06,-2.84232e-05,3,1
-3.717473e-05,3.341602e-06,3,1
-5.078821e-05,2.797553e-05,3,1
-4.365734e-05,4.547859e-05,3,1
-2.177852e-05,6.006447e-05,3,1
1.095867e-05,7.546067e-05,3,1
5.747142e-05,9.182927e-05,3,1
0.0001078737,0.0001017153,3,1
0.000145797,9.604298e-05,3,1
0.0001657311,7.027458e-05,3,1
0.0001777239,2.975825e-05,3,1
0.000202844,-1.788895e-05,3,1
0.0002535705,-6.164659e-05,3,1
0.0003224483,-9.373552e-05,3,1
0.000388733,-0.0001159385,3,1
0.0004323286,-0.0001310105,3,1
0.0004459421,-0.0001368449,3,1
0.0004414042,-0.000127121,3,1
0.0004300596,-9.843541e-05,3,1
0.0004156358,-5.338126e-05,3,1
0.0003965121,-7.100305e-07,3,1
0.0003752816,5.56887e-05,3,1
0.0003556717,0.0001182459,3,1
0.0003383307,0.0001819376,3,1
0.0003153174,0.0002339606,3,1
0.0002723701,0.000267184,3,1
0.0002044647,0.0002898731,3,1
0.0001107909,0.0003141829,3,1
-2.654814e-06,0.000339303,3,1
-0.0001157764,0.0003550234,3,1
-0.0002029675,0.0003491891,3,1
-0.0002433218,0.0003127243,3,1
-0.0002331117,0.0002466017,3,1
-0.0001883817,0.0001608691,3,1
-0.000134576,7.043665e-05,3,1
-9.794922e-05,-5.734056e-06,3,1
-9.422172e-05,-5.678463e-05,3,1
-0.0001188556,-8.417367e-05,3,1
-0.0001481895,-9.924574e-05,3,1
-0.0001541859,-0.0001104282,3,1
-0.0001282554,-0.0001195039,3,1
-8.158062e-05,-0.0001154523,3,1
-3.377136e-05,-8.644259e-05,3,1
-5.479652e-07,-2.275091e-05,3,1
1.403791e-05,7.659513e-05,3,1
1.387585e-05,0.0001932822,3,1
5.86492e-07,0.0002968419,3,1
-2.485776e-05,0.0003613439,3,1
-6.035007e-05,0.0003697714,3,1
-9.260107e-05,0.0003205035,3,1
-0.0001115627,0.000225209,3,1
-0.0001157764,0.0001047945,3,1
-0.0001102662,-1.99958e-05,3,1
-9.778715e-05,-0.0001337657,3,1
-7.801519e-05,-0.0002243602,3,1
-5.192267e-05,-0.0002864312,3,1
-2.485776e-05,-0.0003199787,3,1
-5.085794e-06,-0.0003238683,3,1
5.772582e-06,-0.0002961551,3,1
5.448452e-06,-0.0002340841,3,1
-2.81688e-06,-0.0001426792,3,1
-1.173047e-05,-3.68506e-05,3,1
-1.918548e-05,6.492643e-05,3,1
-2.372331e-05,0.00013818,3,1
-2.42095e-05,0.0001584381,3,1
-2.453363e-05,0.0001167873,3,1
-3.539201e-05,1.987227e-05,3,1
-6.602235e-05,-0.0001120489,3,1
-0.0001118868,-0.0002507768,3,1
-0.0001580754,-0.0003728119,3,1
-0.0001898403,-0.0004656754,3,1
-0.0002036158,-0.0005230465,3,1
-0.000204102,-0.0005449253,3,1
-0.000194216,-0.0005350393,3,1
-0.0001665028,-0.0005003574,3,1
-0.0001144799,-0.0004533584,3,1
-4.495386e-05,-0.0004058733,3,1
1.987227e-05,-0.000367788,3,1
6.298164e-05,-0.0003408851,3,1
8.259155e-05,-0.0003193304,3,1
8.307774e-05,-0.0002971275,3,1
6.751948e-05,-0.0002643903,3,1
3.786152e-05,-0.0002211189,3,1
3.503668e-06,-0.0001754164,3,1
-1.513384e-05,-0.0001340898,3,1
2.04508e-06,-8.871149e-05,3,1
5.795762e-05,-2.194059e-05,3,1
0.0001414213,7.335383e-05,3,1
0.0002352571,0.0001825859,3,1
0.0003237448,0.000282256,3,1
0.0003934329,0.0003572923,3,1
0.0004300596,0.0004002396,3,1
0.0004276287,0.0004065602,3,1
0.0003903536,0.0003793332,3,1
0.0003274723,0.0003263378,3,1
0.0002551911,0.0002628082,3,1
0.0001874478,0.0002039785,3,1
0.0001313732,0.0001603829,3,1
8.729144e-05,0.0001355869,3,1
5.358185e-05,0.0001257009,3,1
2.748934e-05,0.0001250527,3,1
3.503668e-06,0.0001294284,3,1
-2.485776e-05,0.0001321835,3,1
-6.148453e-05,0.0001305629,3,1
-0.0001104282,0.0001240803,3,1
-0.0001712027,0.0001192183,3,1
-0.0002347323,0.0001180839,3,1
-0.0002848105,0.0001177597,3,1
-0.0003026377,0.0001130598,3,1
-0.0002715212,0.0001015532,3,1
-0.0001903264,8.486046e-05,3,1
-8.465986e-05,7.157111e-05,3,1
1.533444e-05,7.011252e-05,3,1
9.069481e-05,9.21534e-05,3,1
0.0001351007,0.0001453108,3,1
0.000150659,0.0002260194,3,1
0.0001428799,0.000316776,3,1
0.0001172735,0.0003892192,3,1
8.372601e-05,0.0004179048,3,1
5.455425e-05,0.0003892192,3,1
4.077869e-05,0.0003067279,3,1
3.60788e-05,0.0001908512,3,1
2.894792e-05,7.189524e-05,3,1
9.986281e-06,-2.89094e-05,3,1
-1.724069e-05,-0.0001031353,3,1
-4.495386e-05,-0.0001489998,3,1
-7.299116e-05,-0.0001736337,3,1
-0.0001088076,-0.0001846542,3,1
-0.0001575893,-0.0001914609,3,1
-0.0002162569,-0.000201509,3,1
-0.0002771934,-0.0002151224,3,1
-0.0003297026,-0.0002297083,3,1
-0.0003627639,-0.0002428356,3,1
-0.0003720016,-0.0002532078,3,1
-0.0003549848,-0.000266011,3,1
-0.0003168994,-0.0002846485,3,1
-0.0002600145,-0.0003060411,3,1
-0.0001875713,-0.0003259751,3,1
-0.0001044318,-0.0003436402,3,1
-2.664048e-05,-0.0003600088,3,1
2.81376e-05,-0.0003750809,3,1
5.131294e-05,-0.0003933943,3,1
4.693717e-05,-0.0004152731,3,1
2.651694e-05,-0.0004335865,3,1
-1.358292e-06,-0.0004339106,3,1
-2.923353e-05,-0.0004006872,3,1
-4.462973e-05,-0.0003311612,3,1
-3.68506e-05,-0.0002357047,3,1
-5.409925e-06,-0.0001336036,3,1
4.82337e-05,-4.868137e-05,3,1
0.0001116012,2.531276e-06,3,1
0.000165569,1.906194e-05,3,1
0.0001958752,6.90704e-06,3,1
0.000202844,-2.258885e-05,3,1
0.000192958,-5.305713e-05,3,1
0.0001710792,-5.986387e-05,3,1
0.0001367214,-2.599222e-05,3,1
9.555677e-05,5.034055e-05,3,1
5.94162e-05,0.0001573037,3,1
3.575467e-05,0.0002764217,3,1
2.278944e-05,0.0003819262,3,1
2.359977e-05,0.000455666,3,1
4.645098e-05,0.000497803,3,1
9.863601e-05,0.0005224369,3,1
0.0001769136,0.0005436675,3,1
0.0002607014,0.0005678153,3,1
0.0003219621,0.0005953664,3,1
0.0003401134,0.0006201624,3,1
0.0003132105,0.0006295622,3,1
0.0002618358,0.0006060627,3,1
0.0002057612,0.000542371,3,1
0.0001553589,0.00044578,3,1
0.0001096565,0.0003414099,3,1
6.362991e-05,0.0002663737,3,1
2.165498e-05,0.0002503292,3,1
2.531276e-06,0.0003000832,3,1
2.457216e-05,0.0003952156,3,1
8.631905e-05,0.0005050959,3,1
0.0001589243,0.0006039558,3,1
0.0002021958,0.0006785059,3,1
0.0001939304,0.0007185361,3,1
0.0001393144,0.0007219395,3,1
6.233338e-05,0.0006929298,3,1
-1.059602e-05,0.0006337758,3,1
-6.06742e-05,0.0005465847,3,1
-8.222889e-05,0.0004375147,3,1
-8.368748e-05,0.000316776,3,1
-7.785312e-05,0.0001961994,3,1
-7.542214e-05,8.340187e-05,3,1
-8.206682e-05,-1.399939e-05,3,1
-9.730096e-05,-8.676672e-05,3,1
-0.000122259,-0.0001266348,3,1
-0.0001566169,-0.0001340898,3,1
-0.0001935677,-0.0001175591,3,1
-0.0002151224,-9.730096e-05,3,1
-0.0002122053,-9.341139e-05,3,1
-0.0001875713,-0.0001089697,3,1
-0.0001548341,-0.0001326312,3,1
-0.0001238797,-0.0001527273,3,1
-0.0001052422,-0.0001630995,3,1
-0.0001037836,-0.0001640719,3,1
-0.0001170729,-0.0001611547,3,1
-0.0001339277,-0.000159534,3,1
-0.0001426792,-0.000159372,3,1
-0.0001378173,-0.0001611547,3,1
-0.0001259865,-0.000169258,3,1
-0.0001188556,-0.0001870851,3,1
-0.0001208004,-0.0002169052,3,1
-0.0001214487,-0.0002554767,3,1
-0.0001110765,-0.0002937241,3,1
-9.098041e-05,-0.0003194925,3,1
-6.326724e-05,-0.000328244,3,1
-3.053005e-05,-0.0003264613,3,1
1.12828e-05,-0.0003246786,3,1
6.314371e-05,-0.0003267854,3,1
0.0001122495,-0.0003321336,3,1
0.0001430419,-0.0003386162,3,1
0.000145635,-0.000343154,3,1
0.0001237561,-0.0003425058,3,1
8.988449e-05,-0.0003392644,3,1
5.682316e-05,-0.0003400748,3,1
3.170304e-05,-0.0003478539,3,1
1.209313e-05,-0.0003579019,3,1
-8.489166e-06,-0.0003647087,3,1
-3.198864e-05,-0.0003666535,3,1
-5.062615e-05,-0.0003663294,3,1
-4.997789e-05,-0.0003638984,3,1
-2.404744e-05,-0.0003574158,3,1
2.149292e-05,-0.0003497987,3,1
7.513654e-05,-0.0003400748,3,1
0.0001213252,-0.0003275957,3,1
0.0001470936,-0.0003144685,3,1
0.0001514693,-0.0003050687,3,1
0.000145635,-0.0003053928,3,1
0.0001339663,-0.0003164132,3,1
0.0001197045,-0.000333106,3,1
0.0001005808,-0.0003465574,3,1
7.886404e-05,-0.000353202,3,1
5.811968e-05,-0.0003517435,3,1
4.369587e-05,-0.0003397507,3,1
2.894792e-05,-0.0003186821,3,1
2.369211e-06,-0.0002917793,3,1
-4.787104e-05,-0.0002582318,3,1
-0.000119828,-0.0002203085,3,1
-0.0002011848,-0.0001851404,3,1
-0.0002716832,-0.0001618029,3,1
-0.0003113892,-0.0001574272,3,1
-0.000295993,-0.0001723372,3,1
-0.0002209568,-0.0001948643,3,1
-9.908367e-05,-0.0002135018,3,1
5.277153e-05,-0.000221443,3,1
0.0002247229,-0.0002186879,3,1
0.0004094774,-0.0002102605,3,1
0.0005862907,-0.0001977815,3,1
0.0007159431,-0.0001804405,3,1
0.00076278,-0.0001556445,3,1
0.0007110811,-0.0001269589,3,1
0.0005778633,-9.892161e-05,3,1
0.0004020224,-7.380149e-05,3,1
0.0002295848,-4.722278e-05,3,1
9.652917e-05,-1.383732e-05,3,1
1.711715e-05,3.299956e-05,3,1
-1.221667e-05,0.000101067,3,1
-4.437533e-06,0.00019782,3,1
2.149292e-05,0.0003247172,3,1
4.418206e-05,0.0004772207,3,1
5.455425e-05,0.0006504686,3,1
4.904402e-05,0.0008355473,3,1
2.424803e-05,0.001026461,3,1
-2.745081e-05,0.001211701,3,1
-0.0001089697,0.001373443,3,1
-0.0002125294,0.001495154,3,1
-0.0003144685,0.001557388,3,1
-0.0003818876,0.001539884,3,1
-0.0003942046,0.001428545,3,1
-0.000355633,0.001229691,3,1
-0.0002875656,0.0009754099,3,1
-0.0002073433,0.0007031399,3,1
-0.0001274451,0.0004467524,3,1
-6.326724e-05,0.0002263435,3,1
-2.388537e-05,4.855783e-05,3,1
-9.137427e-06,-8.660465e-05,3,1
-1.027188e-05,-0.0001836818,3,1
-1.788895e-05,-0.0002566112,3,1
-2.210265e-05,-0.0003178718,3,1
-2.145439e-05,-0.0003728119,3,1
-1.788895e-05,-0.0004194868,3,1
-1.659243e-05,-0.0004554653,3,1
-2.501983e-05,-0.0004854474,3,1
-4.544006e-05,-0.000511864,3,1
-7.785312e-05,-0.0005329325,3,1
-0.0001190177,-0.0005463839,3,1
-0.0001632615,-0.0005462218,3,1
-0.0001961608,-0.0005300153,3,1
-0.0002008607,-0.0004935506,3,1
-0.0001802784,-0.0004288866,3,1
-0.0001480274,-0.0003292164,3,1
-0.0001242038,-0.0001853024,3,1
-0.0001235555,1.1769e-05,3,1
-0.0001496481,0.0002516257,3,1
-0.000196647,0.0004963444,3,1
-0.0002454286,0.0006903367,3,1
-0.0002656868,0.0007812555,3,1
-0.000231491,0.0007451148,3,1
-0.0001433275,0.0006023352,3,1
-2.518189e-05,0.0003948915,3,1
9.588091e-05,0.0001715654,3,1
0.0001916615,-2.388537e-05,3,1
0.0002412535,-0.0001629374,3,1
0.0002362295,-0.0002391081,3,1
0.000190365,-0.0002639041,3,1
0.0001279698,-0.0002546664,3,1
7.140904e-05,-0.0002321393,3,1
3.218923e-05,-0.0002126914,3,1
1.744129e-05,-0.0001974573,3,1
2.003433e-05,-0.0001699062,3,1
2.959619e-05,-0.0001083214,3,1
3.462021e-05,-5.57199e-06,3,1
2.910999e-05,0.0001294284,3,1
1.711715e-05,0.0002689667,3,1
1.452411e-05,0.0003801436,3,1
3.202716e-05,0.0004341113,3,1
6.46023e-05,0.000416122,3,1
9.490851e-05,0.0003297412,3,1
0.0001090082,0.0001999268,3,1
0.0001009049,6.200925e-05,3,1
8.226741e-05,-5.32192e-05,3,1
7.57848e-05,-0.0001277692,3,1
9.182927e-05,-0.0001611547,3,1
0.0001263492,-0.0001626133,3,1
0.0001671896,-0.0001465688,3,1
0.0002088404,-0.0001243659,3,1
0.000247412,-0.0001057284,3,1
0.0002819319,-9.405965e-05,3,1
0.0003162898,-8.595638e-05,3,1
0.0003508097,-7.850138e-05,3,1
0.0003822504,-6.877746e-05,3,1
0.0004044533,-6.116039e-05,3,1
0.0004117463,-6.164659e-05,3,1
0.0004013741,-7.299116e-05,3,1
0.0003678266,-8.838737e-05,3,1
0.0003101313,-0.0001007043,3,1
0.0002310434,-0.0001078352,3,1
0.0001375317,-0.0001143178,3,1
3.591673e-05,-0.0001214487,3,1
-6.051213e-05,-0.000129714,3,1
-0.0001248521,-0.000134576,3,1
-0.0001374932,-0.0001344139,3,1
-0.0001005423,-0.0001292278,3,1
-3.847125e-05,-0.0001212866,3,1
1.533444e-05,-0.0001149661,3,1
3.737532e-05,-0.000114804,3,1
2.505836e-05,-0.0001188556,3,1
-1.189254e-05,-0.0001235555,3,1
-5.953974e-05,-0.0001261486,3,1
-0.0001052422,-0.0001242038,3,1
-0.0001360346,-0.0001143178,3,1
-0.0001436516,-0.0001000561,3,1
-0.0001238797,-8.336335e-05,3,1
-8.482193e-05,-6.829127e-05,3,1
-5.095028e-05,-5.791909e-05,3,1
-5.208474e-05,-5.483985e-05,3,1
-9.827335e-05,-5.565017e-05,3,1
-0.0001775233,-5.565017e-05,3,1
-0.0002645523,-5.370539e-05,3,1
-0.0003298647,-5.013995e-05,3,1
-0.0003527159,-4.47918e-05,3,1
-0.0003262992,-3.717473e-05,3,1
-0.0002585559,-2.631635e-05,3,1
-0.00016942,-1.740276e-05,3,1
-8.158062e-05,-7.030578e-06,3,1
-1.25408e-05,1.095867e-05,3,1
2.619281e-05,3.575467e-05,3,1
2.81376e-05,6.298164e-05,3,1
-3.303076e-06,8.648112e-05,3,1
-5.467778e-05,0.0001017153,3,1
-0.0001151281,0.0001075496,3,1
-0.0001702304,0.0001020394,3,1
-0.0002096122,8.453633e-05,3,1
-0.0002253326,5.374392e-05,3,1
-0.0002097743,1.290346e-05,3,1
-0.0001609926,-3.198864e-05,3,1
-8.725291e-05,-6.991193e-05,3,1
-4.761664e-06,-9.260107e-05,3,1
5.957827e-05,-0.0001042698,3,1
8.486046e-05,-0.0001118868,3,1
6.314371e-05,-0.0001190177,3,1
6.096713e-06,-0.0001274451,3,1
-6.472583e-05,-0.0001352242,3,1
-0.0001266348,-0.0001423551,3,1
-0.0001650443,-0.0001517549,3,1
-0.0001788198,-0.0001642339,3,1
-0.0001778474,-0.0001747682,3,1
-0.000171851,-0.0001786577,3,1
-0.0001634236,-0.000174444,3,1
-0.0001514308,-0.0001630995,3,1
-0.0001316588,-0.0001485136,3,1
-0.0001007043,-0.0001350622,3,1
-5.581224e-05,-0.0001206384,3,1
1.558884e-06,-9.859748e-05,3,1
5.860588e-05,-6.586029e-05,3,1
0.0001033359,-2.761287e-05,3,1
0.0001318594,5.934648e-06,3,1
0.0001414213,3.218923e-05,3,1
0.0001344524,5.487838e-05,3,1
0.0001180839,8.145709e-05,3,1
0.0001120874,0.0001120874,3,1
0.0001278078,0.0001430419,3,1
0.0001624898,0.0001725378,3,1
0.0002036544,0.0002013854,3,1
0.0002352571,0.0002271538,3,1
0.000250005,0.0002477361,3,1
0.0002516257,0.000259729,3,1
0.0002448189,0.0002652392,3,1
0.000234933,0.0002665357,3,1
0.0002240746,0.0002688046,3,1
0.0002196988,0.0002720459,3,1
0.0002263435,0.0002778803,3,1
0.0002431983,0.0002867939,3,1
0.0002634565,0.0002957075,3,1
0.0002759355,0.0003004074,3,1
0.0002735045,0.0003018659,3,1
0.0002576221,0.0003072141,3,1
0.0002336365,0.000319207,3,1
0.0002090025,0.0003349273,3,1
0.0001880961,0.0003451374,3,1
0.0001697827,0.0003452995,3,1
0.0001480659,0.0003358997,3,1
0.0001156529,0.0003211517,3,1
7.157111e-05,0.000302028,3,1
1.711715e-05,0.00027707,3,1
-3.798505e-05,0.0002480603,3,1
-7.963584e-05,0.0002161334,3,1
-9.438378e-05,0.0001830721,3,1
-7.282909e-05,0.0001454729,3,1
-3.069211e-05,0.0001025256,3,1
8.851824e-06,5.228533e-05,3,1
2.862379e-05,3.179537e-06,3,1
2.570662e-05,-3.312309e-05,3,1
9.175954e-06,-4.722278e-05,3,1
-1.270286e-05,-4.122636e-05,3,1
-4.009191e-05,-2.339918e-05,3,1
-7.104638e-05,-3.465141e-06,3,1
-0.0001029732,1.306552e-05,3,1
-0.0001313347,1.938607e-05,3,1
-0.0001530514,1.193106e-05,3,1
-0.0001689338,-8.975362e-06,3,1
-0.0001746061,-3.782299e-05,3,1
-0.0001627754,-6.796714e-05,3,1
-0.0001302002,-9.762509e-05,3,1
-8.514606e-05,-0.0001251762,3,1
-4.949169e-05,-0.0001468929,3,1
-4.268495e-05,-0.0001611547,3,1
-6.958779e-05,-0.0001681235,3,1
-0.0001212866,-0.0001733096,3,1
-0.0001796301,-0.0001788198,3,1
-0.0002276015,-0.0001818991,3,1
-0.0002551526,-0.0001835197,3,1
-0.0002596904,-0.0001854645,3,1
-0.000246239,-0.0001887058,3,1
-0.0002178775,-0.0001872472,3,1
-0.0001823853,-0.000176713,3,1
-0.000149486,-0.0001624512,3,1
-0.0001289037,-0.0001548341,3,1
-0.0001230693,-0.0001571031,3,1
-0.0001327933,-0.0001660166,3,1
-0.0001511067,-0.0001721751,3,1
-0.0001650443,-0.0001679614,3,1
-0.0001627754,-0.0001512687,3,1
-0.0001402483,-0.0001287416,3,1
-0.0001055663,-0.0001092938,3,1
-6.634648e-05,-9.827335e-05,3,1
-2.647842e-05,-9.956988e-05,3,1
1.079661e-05,-0.0001091317,3,1
4.677511e-05,-0.0001195039,3,1
7.756752e-05,-0.0001259865,3,1
0.0001051186,-0.0001276072,3,1
0.0001351007,-0.0001266348,3,1
0.0001701068,-0.0001216107,3,1
0.0002073819,-0.0001162626,3,1
0.0002302331,-0.0001157764,3,1
0.0002237505,-0.0001186936,3,1
0.0001876099,-0.0001191798,3,1
0.0001349386,-0.0001161005,3,1
8.145709e-05,-0.0001068628,3,1
4.337174e-05,-8.871149e-05,3,1
3.332369e-05,-5.986387e-05,3,1
5.504044e-05,-2.129233e-05,3,1
0.0001012291,2.684107e-05,3,1
0.0001540623,8.648112e-05,3,1
0.0001955511,0.0001584381,3,1
0.0002072198,0.0002409294,3,1
0.000187772,0.0003276344,3,1
0.0001521176,0.0004094774,3,1
0.0001182459,0.0004726828,3,1
9.555677e-05,0.0005023408,3,1
8.84259e-05,0.0004921307,3,1
9.16672e-05,0.0004465904,3,1
9.944634e-05,0.0003741471,3,1
0.0001064152,0.000289549,3,1
0.0001128978,0.0002083542,3,1
0.0001112771,0.0001435281,3,1
9.085688e-05,0.0001057669,3,1
4.175109e-05,9.426025e-05,3,1
-3.198864e-05,0.0001022015,3,1
-0.0001154523,0.0001185701,3,1
-0.0001836818,0.0001342904,3,1
-0.000221443,0.0001462832,3,1
-0.0002185258,0.000160545,3,1
-0.0001741199,0.0001814514,3,1
-9.130454e-05,0.0002021958,3,1
1.808955e-05,0.0002148369,3,1
0.0001391524,0.0002112714,3,1
0.0002576221,0.000187934,3,1
0.0003517821,0.0001466074,3,1
0.0003901916,8.875003e-05,3,1
0.0003537269,2.197911e-05,3,1
0.0002530843,-4.252288e-05,3,1
0.0001240803,-9.29252e-05,3,1
6.582909e-06,-0.0001237176,3,1
-6.586029e-05,-0.0001361966,3,1
-7.931171e-05,-0.0001423551,3,1
-4.754691e-05,-0.000151917,3,1
-1.682422e-06,-0.0001663408,3,1
3.18651e-05,-0.0001780095,3,1
4.045456e-05,-0.0001820611,3,1
2.522042e-05,-0.0001796301,3,1
-4.923729e-06,-0.0001783336,3,1
-3.506788e-05,-0.0001780095,3,1
-5.69467e-05,-0.0001801163,3,1
-6.845333e-05,-0.0001838438,3,1
-7.542214e-05,-0.0001872472,3,1
-8.482193e-05,-0.0001925954,3,1
-0.000107349,-0.0002050744,3,1
-0.0001507825,-0.0002263049,3,1
-0.0002109087,-0.0002535319,3,1
-0.0002697385,-0.0002825416,3,1
-0.0003049066,-0.0003081479,3,1
-0.0003039342,-0.0003224097,3,1
-0.0002728177,-0.0003228959,3,1
-0.0002271153,-0.0003139823,3,1
-0.0001797922,-0.0003052308,3,1
-0.0001415448,-0.0003053928,3,1
-0.0001204763,-0.0003170615,3,1
-0.0001232314,-0.0003353749,3,1
-0.0001459206,-0.0003540124,3,1
-0.0001737958,-0.0003708672,3,1
-0.0001901644,-0.0003825359,3,1
-0.0001836818,-0.0003880461,3,1
-0.0001528894,-0.000382698,3,1
-0.0001007043,-0.0003614674,3,1
-2.874733e-05,-0.000318196,3,1
6.687121e-05,-0.0002540181,3,1
0.0001718896,-0.0001778474,3,1
0.0002555152,-9.892161e-05,3,1
0.000289549,-1.983374e-05,3,1
0.0002686426,6.703327e-05,3,1
0.0002124059,0.0001710792,3,1
0.0001592484,0.0002882525,3,1
0.0001375317,0.0003955397,3,1
0.0001566554,0.0004671726,3,1
0.0001996027,0.000482893,3,1
0.0002420638,0.0004349216,3,1
0.0002655633,0.0003370341,3,1
0.000259729,0.0002146748,3,1
0.0002260194,0.0001000946,3,1
0.0001769136,2.068259e-05,3,1
0.0001310491,-7.192643e-06,3,1
0.0001054428,1.987227e-05,3,1
0.0001096565,9.588091e-05,3,1
0.000143204,0.0002091646,3,1
0.0001905271,0.000339141,3,1
0.0002352571,0.0004589073,3,1
0.0002616738,0.0005478812,3,1
0.0002587566,0.0006015248,3,1
0.0002180782,0.0006355586,3,1
0.0001399627,0.0006733199,3,1
3.964424e-05,0.0007266394,3,1
-5.970181e-05,0.0007900069,3,1
-0.0001365208,0.0008447851,3,1
-0.0001791439,0.000866664,3,1
-0.0001780095,0.0008408955,3,1
-0.0001329553,0.0007666696,3,1
-6.407757e-05,0.0006561409,3,1
-1.682422e-06,0.0005235714,3,1
2.992031e-05,0.0003781987,3,1
2.214118e-05,0.0002287745,3,1
-1.578211e-05,8.356394e-05,3,1
-6.407757e-05,-4.074016e-05,3,1
-0.0001063766,-0.00012469,3,1
-0.0001303623,-0.0001575893,3,1
-0.0001305243,-0.0001498101,3,1
-0.0001036215,-0.0001216107,3,1
-5.176061e-05,-9.422172e-05,3,1
9.66215e-06,-8.125649e-05,3,1
5.811968e-05,-8.984595e-05,3,1
7.789165e-05,-0.0001250141,3,1
6.427817e-05,-0.0001875713,3,1
2.262738e-05,-0.000268604,3,1
-3.652646e-05,-0.0003519055,3,1
-0.0001024871,-0.0004232143,3,1
-0.0001618029,-0.0004719959,3,1
-0.0002002124,-0.0004925782,3,1
-0.0002102605,-0.0004849611,3,1
-0.0001968091,-0.0004561135,3,1
-0.0001724993,-0.0004180282,3,1
-0.0001457585,-0.0003831841,3,1
-0.0001203142,-0.0003510952,3,1
-9.551824e-05,-0.0003112272,3,1
-6.618442e-05,-0.0002540181,3,1
-3.117831e-05,-0.0001844921,3,1
4.80019e-06,-0.0001242038,3,1
3.397195e-05,-8.968389e-05,3,1
5.050261e-05,-8.692878e-05,3,1
4.969229e-05,-0.0001029732,3,1
2.781346e-05,-0.0001110765,3,1
-1.578211e-05,-8.757704e-05,3,1
-6.991193e-05,-2.583016e-05,3,1
-0.0001115627,5.844381e-05,3,1
-0.0001204763,0.0001347766,3,1
-9.146661e-05,0.0001689724,3,1
-3.733679e-05,0.0001347766,3,1
1.517237e-05,3.478228e-05,3,1
4.288554e-05,-9.843541e-05,3,1
3.251336e-05,-0.000221605,3,1
-1.67545e-05,-0.0003044204,3,1
-9.66527e-05,-0.000338292,3,1
-0.0001904885,-0.0003316474,3,1
-0.0002741142,-0.0002963172,3,1
-0.0003185201,-0.0002392702,3,1
-0.0003063652,-0.0001697442,3,1
-0.0002447804,-9.859748e-05,3,1
-0.0001614788,-3.555408e-05,3,1
-9.2439e-05,6.90704e-06,3,1
-6.278104e-05,2.489629e-05,3,1
-7.266703e-05,1.695509e-05,3,1
-9.762509e-05,-1.075808e-05,3,1
-0.0001010285,-4.90055e-05,3,1
-5.32192e-05,-9.049421e-05,3,1
4.953022e-05,-0.0001255003,3,1
0.0001845306,-0.0001504584,3,1
0.0003146691,-0.0001618029,3,1
0.0004070464,-0.0001562927,3,1
0.000443349,-0.0001313347,3,1
0.000428439,-8.417367e-05,3,1
0.0003822504,-1.529591e-05,3,1
0.0003287688,6.249545e-05,3,1
0.0002867939,0.0001328318,3,1
0.0002670219,0.0001788584,3,1
0.0002652392,0.0001918236,3,1
0.0002728562,0.0001765894,3,1
0.0002843629,0.000150659,3,1
0.0002929524,0.0001294284,3,1
0.0002906835,0.0001218114,3,1
0.0002713977,0.0001297526,3,1
0.0002380122,0.0001508211,3,1
0.0002033302,0.0001773998,3,1
0.0001806411,0.0002020337,3,1
0.0001722137,0.0002240746,3,1
0.0001696206,0.0002428742,3,1
0.0001600588,0.0002585945,3,1
0.0001406109,0.0002726942,3,1
0.0001206769,0.0002864697,3,1
0.00010366,0.000299597,3,1
8.907416e-05,0.0003109416,3,1
7.886404e-05,0.0003149933,3,1
7.465034e-05,0.0003099692,3,1
7.108491e-05,0.0002939248,3,1
6.654708e-05,0.0002654013,3,1
6.427817e-05,0.0002292607,3,1
6.055066e-05,0.0001942546,3,1
4.888196e-05,0.0001652449,3,1
2.943412e-05,0.000140773,3,1
6.420843e-06,0.0001143563,3,1
-1.156841e-05,8.113296e-05,3,1
-2.680255e-05,3.818565e-05,3,1
-4.090223e-05,-8.975362e-06,3,1
-5.500191e-05,-5.419158e-05,3,1
-7.396356e-05,-8.887356e-05,3,1
-9.730096e-05,-0.0001115627,3,1
-0.0001199901,-0.0001264727,3,1
-0.0001410586,-0.000142031,3,1
-0.0001598582,-0.0001648822,3,1
-0.0001750923,-0.0001921092,3,1
-0.0001810887,-0.0002083157,3,1
-0.000176713,-0.0002053985,3,1
-0.0001684476,-0.0001833576,3,1
-0.0001611547,-0.0001498101,3,1
-0.0001549962,-0.0001094559,3,1
-0.000144462,-6.44017e-05,3,1
-0.0001274451,-9.623623e-06,3,1
-0.0001109144,5.504044e-05,3,1
-0.0001020008,0.000118408,3,1
-0.0001050801,0.0001621656,3,1
-0.000117235,0.0001762653,3,1
-0.0001344139,0.0001597346,3,1
-0.0001556445,0.0001203528,3,1
-0.0001765509,6.427817e-05,3,1
-0.0001938919,-4.275467e-06,3,1
-0.0002042641,-7.526008e-05,3,1
-0.0002013469,-0.0001389517,3,1
-0.0001823853,-0.000191785,3,1
-0.0001543479,-0.0002335979,3,1
-0.0001279313,-0.0002655248,3,1
-0.0001117248,-0.0002867553,3,1
-0.0001068628,-0.0002950206,3,1
-0.0001112386,-0.0002875656,3,1
-0.000119666,-0.0002603387,3,1
-0.0001237176,-0.0002013469,3,1
-0.0001201522,-0.0001029732,3,1
-0.0001070249,2.829966e-05,3,1
-8.854943e-05,0.0001611932,3,1
-6.683268e-05,0.0002618358,3,1
-4.252288e-05,0.0003151553,3,1
-2.291298e-05,0.0003302274,3,1
-9.137427e-06,0.0003284447,3,1
3.179537e-06,0.0003260137,3,1
1.954813e-05,0.0003284447,3,1
3.60788e-05,0.0003279585,3,1
5.034055e-05,0.0003196932,3,1
6.168512e-05,0.0003049452,3,1
7.384002e-05,0.0002898731,3,1
8.680524e-05,0.0002801492,3,1
9.63671e-05,0.0002744769,3,1
0.0001020394,0.0002665357,3,1
0.0001116012,0.0002462775,3,1
0.0001292664,0.0002091646,3,1
0.0001569795,0.0001594105,3,1
0.0001867996,0.000106091,3,1
0.000210137,5.730935e-05,3,1
0.0002229401,1.290346e-05,3,1
0.0002255332,-3.231277e-05,3,1
0.0002229401,-7.509801e-05,3,1
0.0002227781,-0.0001146419,3,1
0.0002312055,-0.0001488377,3,1
0.0002480603,-0.0001697442,3,1
0.0002632944,-0.0001739578,3,1
0.0002595669,-0.0001660166,3,1
0.0002240746,-0.0001524032,3,1
0.000162976,-0.0001383035,3,1
9.733949e-05,-0.000127121,3,1
4.953022e-05,-0.0001114006,3,1
3.170304e-05,-8.854943e-05,3,1
4.515445e-05,-6.553616e-05,3,1
8.453633e-05,-5.629844e-05,3,1
0.000130887,-6.926366e-05,3,1
0.0001645966,-0.0001010285,3,1
0.0001701068,-0.0001410586,3,1
0.0001449867,-0.0001810887,3,1
9.944634e-05,-0.0002167431,3,1
5.244739e-05,-0.0002481838,3,1
1.22552e-05,-0.0002705488,3,1
-2.339918e-05,-0.0002767073,3,1
-5.872941e-05,-0.0002605007,3,1
-9.778715e-05,-0.000221605,3,1
-0.0001391138,-0.0001596961,3,1
-0.0001734716,-7.769106e-05,3,1
-0.0001930815,1.938607e-05,3,1
-0.0002023193,0.0001265113,3,1
-0.000201509,0.0002383363,3,1
-0.0001934057,0.0003483787,3,1
-0.0001770371,0.0004469145,3,1
-0.0001515928,0.0005232473,3,1
-0.0001167488,0.0005590637,3,1
-7.55842e-05,0.0005433434,3,1
-4.025397e-05,0.0004723587,3,1
-2.161646e-05,0.0003581026,3,1
-2.550602e-05,0.0002179161,3,1
-5.22468e-05,7.52986e-05,3,1
-9.081835e-05,-4.835724e-05,3,1
-0.0001233935,-0.0001386276,3,1
-0.0001413827,-0.0001893541,3,1
-0.0001451102,-0.0002018331,3,1
-0.0001397621,-0.0001859507,3,1
-0.0001327933,-0.0001587237,3,1
-0.0001295519,-0.0001308485,3,1
-0.0001276072,-0.0001062146,3,1
-0.0001277692,-8.806324e-05,3,1
-0.000137007,-8.417367e-05,3,1
-0.0001551583,-9.811128e-05,3,1
-0.0001741199,-0.0001258245,3,1
-0.0001797922,-0.0001603444,3,1
-0.0001674752,-0.0001924333,3,1
-0.0001430034,-0.0002193361,3,1
-0.0001162626,-0.0002376495,3,1
-9.179074e-05,-0.0002444563,3,1
-6.715681e-05,-0.0002376495,3,1
-3.571614e-05,-0.0002185258,3,1
6.420843e-06,-0.0001924333,3,1
4.953022e-05,-0.0001684476,3,1
7.821578e-05,-0.0001511067,3,1
8.615699e-05,-0.0001431655,3,1
8.064677e-05,-0.0001433275,3,1
7.918817e-05,-0.0001501342,3,1
9.814982e-05,-0.000159534,3,1
0.0001461212,-0.0001715269,3,1
0.0002104611,-0.0001848162,3,1
0.0002642668,-0.0001947022,3,1
0.0002842008,-0.00019924,3,1
0.0002660495,-0.0001958367,3,1
0.0002256952,-0.0001895161,3,1
0.000185503,-0.0001810887,3,1
0.0001603829,-0.0001697442,3,1
0.0001529279,-0.0001527273,3,1
0.0001550348,-0.0001311726,3,1
0.0001587623,-0.0001052422,3,1
0.0001598967,-7.995997e-05,3,1
0.0001579519,-5.953974e-05,3,1
0.0001543865,-4.284701e-05,3,1
0.0001474177,-2.356124e-05,3,1
0.0001323456,8.689758e-06,3,1
0.0001094944,5.94162e-05,3,1
8.42122e-05,0.0001304008,3,1
6.654708e-05,0.0002104611,3,1
6.103686e-05,0.0002829043,3,1
7.30297e-05,0.0003368721,3,1
0.0001004187,0.0003652335,3,1
0.0001312112,0.0003655576,3,1
0.0001483901,0.0003410858,3,1
0.0001436902,0.0003026763,3,1
0.0001138702,0.000267184,3,1
5.698522e-05,0.0002482223,3,1
-2.583016e-05,0.0002488706,3,1
-0.0001253383,0.0002607014,3,1
-0.0002147983,0.0002718839,3,1
-0.0002601766,0.0002773941,3,1
-0.0002405667,0.000282256,3,1
-0.0001572651,0.000294573,3,1
-3.571614e-05,0.0003195311,3,1
8.04847e-05,0.0003517821,3,1
0.0001584381,0.0003769022,3,1
0.0001921477,0.000378685,3,1
0.000195389,0.0003461098,3,1
0.0001833962,0.0002788527,3,1
0.0001633001,0.0001902029,3,1
0.0001281319,0.0001013911,3,1
7.319176e-05,3.024445e-05,3,1
2.693341e-06,-1.173047e-05,3,1
-6.877746e-05,-2.89094e-05,3,1
-0.0001199901,-3.26369e-05,3,1
-0.0001287416,-2.761287e-05,3,1
-9.114248e-05,-1.756482e-05,3,1
-2.09682e-05,-1.010982e-05,3,1
5.585077e-05,-1.934754e-05,3,1
0.0001185701,-5.240886e-05,3,1
0.0001597346,-0.0001021629,3,1
0.0001785342,-0.0001540238,3,1
0.0001775618,-0.0001921092,3,1
0.0001574657,-0.0002052365,3,1
0.0001231079,-0.0001887058,3,1
7.221937e-05,-0.0001407345,3,1
-1.520357e-06,-6.48879e-05,3,1
-0.0001045939,3.769945e-05,3,1
-0.0002274394,0.0001663793,3,1
-0.0003428299,0.0003111037,3,1
-0.0004196489,0.0004475628,3,1
-0.0004376381,0.0005540397,3,1
-0.0003964735,0.0006131936,3,1
-0.0003172236,0.0006175694,3,1
-0.0002256567,0.0005707325,3,1
-0.0001397621,0.0004913204,3,1
-6.197072e-05,0.0003991052,3,1
2.693341e-06,0.0003025142,3,1
4.223728e-05,0.0002012234,3,1
4.612685e-05,9.442231e-05,3,1
1.306552e-05,-1.286493e-05,3,1
-4.770897e-05,-0.000114804,3,1
-0.0001290658,-0.0002028055,3,1
-0.0002206326,-0.0002733039,3,1
-0.0003066893,-0.0003272716,3,1
-0.0003645466,-0.0003666535,3,1
-0.0003716775,-0.0003940425,3,1
-0.0003253268,-0.0004147869,3,1
-0.0002480217,-0.0004387725,3,1
-0.0001650443,-0.0004710235,3,1
-9.470791e-05,-0.0005151053,3,1
-4.138842e-05,-0.0005703696,3,1
-1.520357e-06,-0.0006345474,3,1
3.316162e-05,-0.0007071526,3,1
6.589881e-05,-0.0007782993,3,1
9.798775e-05,-0.0008332395,3,1
0.0001312112,-0.0008562527,3,1
0.0001623277,-0.0008436117,3,1
0.0001876099,-0.0007951541,3,1
0.0002054371,-0.0007189835,3,1
0.0002161334,-0.0006223925,3,1
0.000220023,-0.0005091089,3,1
0.0002190506,-0.0003711913,3,1
0.0002198609,-0.0001945401,3,1
0.0002256952,3.008238e-05,3,1
0.0002362295,0.0002939248,3,1
0.0002446569,0.000562143,3,1
0.0002454672,0.0007908173,3,1
0.0002383363,0.0009365142,3,1
0.0002232643,0.0009802718,3,1
0.0002043026,0.0009344073,3,1
0.0001812893,0.0008412196,3,1
0.0001579519,0.0007532181,3,1
0.0001440143,0.0007076777,3,1
0.0001451488,0.0007101087,3,1
0.0001553589,0.0007392805,3,1
0.0001639484,0.0007582422,3,1
0.0001642725,0.0007368495,3,1
0.0001573037,0.0006626236,3,1
0.0001495245,0.0005426951,3,1
0.0001430419,0.0004044533,3,1
0.0001344524,0.0002775562,3,1
0.0001146805,0.0001832341,3,1
7.886404e-05,0.0001266733,3,1
3.267542e-05,0.0001004187,3,1
-1.059602e-05,9.280167e-05,3,1
-4.203669e-05,9.409818e-05,3,1
-6.504996e-05,9.21534e-05,3,1
-8.579432e-05,7.416415e-05,3,1
-0.0001094559,3.299956e-05,3,1
-0.0001318209,-2.680255e-05,3,1
-0.0001408965,-9.341139e-05,3,1
-0.0001290658,-0.0001538618,3,1
-0.0001008664,-0.0002010227,3,1
-7.137051e-05,-0.0002331117,3,1
-5.192267e-05,-0.0002523975,3,1
-4.171256e-05,-0.0002629317,3,1
-3.425755e-05,-0.000271197,3,1
-3.004385e-05,-0.0002836761,3,1
-3.393342e-05,-0.0002982619,3,1
-4.949169e-05,-0.0003102548,3,1
-6.796714e-05,-0.0003160891,3,1
-7.720486e-05,-0.0003094444,3,1
-6.942573e-05,-0.0002921034,3,1
-5.386745e-05,-0.0002682799,3,1
-4.835724e-05,-0.0002449425,3,1
-6.521203e-05,-0.0002284118,3,1
-0.0001032974,-0.0002237119,3,1
-0.0001488377,-0.0002342462,3,1
-0.0001864369,-0.0002608248,3,1
-0.0002036158,-0.0003011791,3,1
-0.0001940539,-0.000345585,3,1
-0.0001614788,-0.0003804291,3,1
-0.0001157764,-0.0003945287,3,1
-7.023606e-05,-0.0003867496,3,1
-3.960571e-05,-0.0003627639,3,1
-3.328516e-05,-0.0003279199,3,1
-5.32192e-05,-0.0002851347,3,1
-9.162867e-05,-0.0002405667,3,1
-0.000137007,-0.0002010227,3,1
-0.0001784957,-0.0001715269,3,1
-0.000206533,-0.0001491618,3,1
-0.0002199844,-0.0001279313,3,1
-0.0002167431,-0.0001060525,3,1
-0.0001927574,-8.725291e-05,3,1
-0.0001452723,-7.817725e-05,3,1
-7.914964e-05,-7.931171e-05,3,1
-2.006553e-06,-8.174268e-05,3,1
7.52986e-05,-7.704279e-05,3,1
0.000150659,-6.359137e-05,3,1
0.0002258573,-4.495386e-05,3,1
0.000299435,-2.275091e-05,3,1
0.0003606957,-6.382317e-06,3,1
0.0003934329,-7.516774e-06,3,1
0.0003828986,-2.356124e-05,3,1
0.0003221241,-4.673658e-05,3,1
0.0002198609,-7.444975e-05,3,1
9.588091e-05,-0.0001105903,3,1
-2.242678e-05,-0.0001551583,3,1
-0.0001118868,-0.0002042641,3,1
-0.000159534,-0.0002446183,3,1
-0.0001624512,-0.0002616352,3,1
-0.0001230693,-0.0002452666,3,1
-4.80331e-05,-0.0001929195,3,1
5.925414e-05,-0.0001107524,3,1
0.000187772,-3.858999e-07,3,1
0.000316938,0.0001372076,3,1
0.0004120704,0.0002936006,3,1
0.0004475628,0.0004546936,3,1
0.000428277,0.00060428,3,1
0.0003864641,0.0007292324,3,1
0.0003487029,0.0008267959,3,1
0.0003239069,0.0008981046,3,1
0.0003047831,0.0009501277,3,1
0.0002765838,0.0009933992,3,1
0.0002326641,0.001027271,3,1
0.0001761032,0.001042505,3,1
0.0001218114,0.001027919,3,1
8.016057e-05,0.0009765443,3,1
5.811968e-05,0.0008880566,3,1
5.56887e-05,0.0007650489,3,1
6.46023e-05,0.0006136798,3,1
7.319176e-05,0.0004472386,3,1
7.011252e-05,0.0002793389,3,1
4.904402e-05,0.0001247285,3,1
1.403791e-05,-1.520357e-06,3,1
-1.967167e-05,-9.697683e-05,3,1
-4.090223e-05,-0.0001658546,3,1
-4.949169e-05,-0.000219012,3,1
-5.743289e-05,-0.0002640662,3,1
-7.785312e-05,-0.0003081479,3,1
-0.0001183694,-0.0003609812,3,1
-0.0001762268,-0.0004303451,3,1
-0.0002408908,-0.0005165638,3,1
-0.0002953447,-0.0006105618,3,1
-0.0003214373,-0.0006904599,3,1
-0.0003126857,-0.0007350279,3,1
-0.0002799486,-0.0007364865,3,1
-0.0002379736,-0.0006993735,3,1
-0.0001930815,-0.0006337371,3,1
-0.0001454344,-0.0005484907,3,1
-9.713889e-05,-0.0004502792,3,1
-5.467778e-05,-0.0003418575,3,1
-2.728874e-05,-0.0002147983,3,1
-2.42095e-05,-6.48879e-05,3,1
-4.414354e-05,9.377406e-05,3,1
-7.882551e-05,0.0002333123,3,1
-0.0001193418,0.0003313618,3,1
-0.0001596961,0.0003791712,3,1
-0.0001987538,0.0003828986,3,1
-0.0002350565,0.0003618301,3,1
-0.0002629317,0.0003334687,3,1
-0.0002689281,0.000309483,3,1
-0.0002421874,0.0002866318,3,1
-0.0001906506,0.0002495189,3,1
-0.0001391138,0.0001842065,3,1
-0.000112373,9.053275e-05,3,1
-0.0001183694,-8.489166e-06,3,1
-0.0001498101,-8.093236e-05,3,1
-0.0001874093,-0.0001071869,3,1
-0.0002136638,-8.628052e-05,3,1
-0.0002118811,-3.117831e-05,3,1
-0.0001781716,3.575467e-05,3,1
-0.0001201522,9.069481e-05,3,1
-6.245691e-05,0.0001200286,3,1
-2.453363e-05,0.0001276457,3,1
-1.25408e-05,0.0001273216,3,1
-1.464765e-05,0.0001410971,3,1
-1.20546e-05,0.0001842065,3,1
6.90704e-06,0.0002506533,3,1
4.126489e-05,0.0003124002,3,1
8.194328e-05,0.0003358997,3,1
0.0001187321,0.0003023522,3,1
0.0001404489,0.0002161334,3,1
0.0001474177,9.733949e-05,3,1
0.0001469315,-2.7937e-05,3,1
0.0001488763,-0.0001355484,3,1
0.0001603829,-0.0002110708,3,1
0.0001757791,-0.0002480217,3,1
0.0001837203,-0.000251263,3,1
0.000178048,-0.0002298704,3,1
0.0001611932,-0.0001972953,3,1
0.0001423936,-0.0001661787,3,1
0.000130725,-0.0001442999,3,1
0.0001321835,-0.0001331174,3,1
0.0001440143,-0.0001329553,3,1
0.0001590864,-0.0001383035,3,1
0.0001761032,-0.0001404103,3,1
0.0001966855,-0.0001363587,3,1
0.0002195368,-0.0001240417,3,1
0.000234933,-0.0001029732,3,1
0.0002329882,-6.991193e-05,3,1
0.0002167816,-2.826114e-05,3,1
0.0001989545,1.22552e-05,3,1
0.0001895547,4.223728e-05,3,1
0.0001872858,6.217132e-05,3,1
0.000180479,7.384002e-05,3,1
0.0001576278,7.951231e-05,3,1
0.0001171115,7.643307e-05,3,1
6.849186e-05,6.881599e-05,3,1
2.554455e-05,6.03886e-05,3,1
-7.100305e-07,5.649903e-05,3,1
-8.489166e-06,5.61749e-05,3,1
-8.720959e-07,5.455425e-05,3,1
1.452411e-05,5.1475e-05,3,1
3.380988e-05,4.742337e-05,3,1
5.131294e-05,4.45062e-05,3,1
6.444023e-05,4.304761e-05,3,1
7.059871e-05,3.93201e-05,3,1
7.059871e-05,2.927205e-05,3,1
6.719535e-05,1.322759e-05,3,1
6.136099e-05,-6.706447e-06,3,1
5.212327e-05,-2.955766e-05,3,1
4.628891e-05,-5.386745e-05,3,1
4.677511e-05,-7.623246e-05,3,1
4.531652e-05,-9.616651e-05,3,1
3.170304e-05,-0.000112211,3,1
3.017472e-06,-0.0001242038,3,1
-3.441962e-05,-0.0001344139,3,1
-7.153257e-05,-0.0001433275,3,1
-9.973194e-05,-0.0001522411,3,1
-0.0001152902,-0.0001588858,3,1
-0.0001151281,-0.0001647201,3,1
-9.924574e-05,-0.0001739578,3,1
-7.266703e-05,-0.0001912988,3,1
-3.879538e-05,-0.0002136638,3,1
-2.330684e-06,-0.0002350565,3,1
3.170304e-05,-0.0002478596,3,1
5.811968e-05,-0.0002517492,3,1
6.606088e-05,-0.0002483458,3,1
4.580272e-05,-0.0002381357,3,1
-3.789272e-06,-0.0002183637,3,1
-7.23429e-05,-0.0001838438,3,1
-0.0001418689,-0.0001352242,3,1
-0.0001888679,-8.060823e-05,3,1
-0.0002024813,-2.696461e-05,3,1
-0.0001890299,2.424803e-05,3,1
-0.0001686097,7.594687e-05,3,1
-0.0001577513,0.0001263492,3,1
-0.0001632615,0.0001688103,3,1
-0.0001872472,0.000200413,3,1
-0.0002308428,0.0002203471,3,1
-0.0002814071,0.0002279642,3,1
-0.0003105789,0.0002234263,3,1
-0.0002912931,0.0002057612,3,1
-0.0002188499,0.0001812893,3,1
-0.0001110765,0.0001563313,3,1
9.106227e-07,0.0001351007,3,1
8.939829e-05,0.0001161391,3,1
0.0001425557,9.507057e-05,3,1
0.0001595726,7.254349e-05,3,1
0.0001537382,5.017848e-05,3,1
0.0001417454,2.975825e-05,3,1
0.0001305629,1.403791e-05,3,1
0.0001232699,6.582909e-06,3,1
0.0001232699,6.096713e-06,3,1
0.0001297526,1.079661e-05,3,1
0.0001351007,1.906194e-05,3,1
0.0001352628,2.619281e-05,3,1
0.0001376938,2.76514e-05,3,1
0.0001445005,2.651694e-05,3,1
0.0001560072,3.13789e-05,3,1
0.0001709172,5.098881e-05,3,1
0.000185503,8.875003e-05,3,1
0.0001892305,0.0001385041,3,1
0.000177886,0.0001846927,3,1
0.0001469315,0.0002093267,3,1
0.000105929,0.0002075439,3,1
6.930219e-05,0.0001869616,3,1
4.888196e-05,0.0001610312,3,1
4.628891e-05,0.0001386662,3,1
6.006447e-05,0.0001263492,3,1
9.296373e-05,0.0001239182,3,1
0.0001420695,0.0001292664,3,1
0.0001932822,0.0001351007,3,1
0.0002329882,0.0001320215,3,1
0.0002470879,0.0001216493,3,1
0.0002297469,0.0001093323,3,1
0.0001840444,9.912221e-05,3,1
0.0001211631,9.037068e-05,3,1
5.666109e-05,8.437427e-05,3,1
4.47606e-06,8.453633e-05,3,1
-2.777494e-05,9.26396e-05,3,1
-3.960571e-05,0.0001051186,3,1
-3.328516e-05,0.0001192183,3,1
-1.545797e-05,0.0001329939,3,1
-6.544382e-06,0.0001415833,3,1
-2.388537e-05,0.0001422316,3,1
-6.699475e-05,0.0001302388,3,1
-0.0001186936,0.0001031738,3,1
-0.0001618029,6.362991e-05,3,1
-0.0001932436,1.614476e-05,3,1
-0.0002154466,-3.166451e-05,3,1
-0.0002340841,-7.60704e-05,3,1
-0.0002459149,-0.0001169109,3,1
-0.0002404046,-0.0001561307,3,1
-0.000209126,-0.0001903264,3,1
-0.0001524032,-0.0002149604,3,1
-8.417367e-05,-0.0002285739,3,1
-2.712668e-05,-0.0002345703,3,1
-1.682422e-06,-0.000233922,3,1
-1.286493e-05,-0.000231329,3,1
-5.159854e-05,-0.0002334358,3,1
-9.908367e-05,-0.0002451045,3,1
-0.0001360346,-0.0002596904,3,1
-0.0001554824,-0.000266173,3,1
-0.0001588858,-0.0002522354,3,1
-0.0001522411,-0.0002070192,3,1
-0.0001439758,-0.0001280934,3,1
-0.0001417068,-2.194059e-05,3,1
-0.0001486757,0.0001054428,3,1
-0.0001618029,0.0002451431,3,1
-0.0001755785,0.000373823,3,1
-0.0001802784,0.0004649037,3,1
-0.0001697442,0.0005005581,3,1
-0.0001434896,0.0004790034,3,1
-0.0001041077,0.0004086671,3,1
-5.548811e-05,0.000311914,3,1
-3.303076e-06,0.0002180782,3,1
4.094075e-05,0.0001495245,3,1
6.687121e-05,0.0001161391,3,1
7.659513e-05,0.0001190562,3,1
7.724339e-05,0.0001539003,3,1
6.930219e-05,0.0002171058,3,1
5.601284e-05,0.0003018659,3,1
4.126489e-05,0.0003884089,3,1
2.619281e-05,0.0004551798,3,1
1.014835e-05,0.0004791655,3,1
-5.085794e-06,0.0004498317,3,1
-1.25408e-05,0.0003684748,3,1
-3.14101e-06,0.0002475741,3,1
2.797553e-05,0.0001069013,3,1
7.821578e-05,-2.955766e-05,3,1
0.0001443384,-0.0001434896,3,1
0.0002211574,-0.0002266291,3,1
0.0003008936,-0.0002770314,3,1
0.0003642611,-0.0002979378,3,1
0.0003905157,-0.0002922655,3,1
0.0003734989,-0.0002707109,3,1
0.0003256896,-0.0002475355,3,1
0.0002650771,-0.0002316531,3,1
0.0002044647,-0.0002237119,3,1
0.0001535762,-0.0002201465,3,1
0.0001226217,-0.000213988,3,1
0.0001179218,-0.0001998883,3,1
0.0001380179,-0.0001830335,3,1
0.0001702689,-0.0001710407,3,1
0.000195227,-0.0001690959,3,1
0.0002025199,-0.0001780095,3,1
0.0001919856,-0.0001938919,3,1
0.0001689724,-0.0002113949,3,1
0.0001399627,-0.0002256567,3,1
0.0001107909,-0.0002321393,3,1
8.437427e-05,-0.000231329,3,1
6.427817e-05,-0.000226467,3,1
5.131294e-05,-0.0002193361,3,1
4.288554e-05,-0.000211557,3,1
3.753739e-05,-0.0002071812,3,1
3.867184e-05,-0.0002060468,3,1
4.499239e-05,-0.0002099363,3,1
5.1475e-05,-0.0002175534,3,1
5.212327e-05,-0.0002253326,3,1
4.418206e-05,-0.0002279256,3,1
2.781346e-05,-0.0002222533,3,1
4.47606e-06,-0.0002037779,3,1
-2.583016e-05,-0.00016942,3,1
-6.310517e-05,-0.000119666,3,1
-0.0001078352,-5.856735e-05,3,1
-0.0001579134,1.274139e-05,3,1
-0.0002032917,9.652917e-05,3,1
-0.0002305186,0.0001960373,3,1
-0.0002347323,0.0003073762,3,1
-0.0002191741,0.0004133669,3,1
-0.0001896782,0.0004921307,3,1
-0.0001535376,0.0005234093,3,1
-0.0001190177,0.0004990995,3,1
-9.551824e-05,0.0004255218,3,1
-8.498399e-05,0.0003209897,3,1
-8.919769e-05,0.000210299,3,1
-0.0001070249,0.0001177597,3,1
-0.0001383035,6.217132e-05,3,1
-0.0001810887,5.082674e-05,3,1
-0.0002308428,7.594687e-05,3,1
-0.0002799486,0.0001188942,3,1
-0.000315765,0.000162976,3,1
-0.0003300267,0.0001960373,3,1
-0.0003194925,0.0002115956,3,1
-0.0002895104,0.000210299,3,1
-0.0002407288,0.0001892305,3,1
-0.0001726613,0.0001461212,3,1
-8.919769e-05,8.437427e-05,3,1
-6.220252e-06,1.047248e-05,3,1
4.855783e-05,-7.056019e-05,3,1
5.61749e-05,-0.0001609926,3,1
1.987227e-05,-0.0002549905,3,1
-3.279896e-05,-0.0003394265,3,1
-6.991193e-05,-0.0004055492,3,1
-7.914964e-05,-0.0004509274,3,1
-6.180866e-05,-0.0004755614,3,1
-3.296103e-05,-0.0004807475,3,1
-9.785688e-06,-0.0004674581,3,1
-8.813297e-06,-0.0004360174,3,1
-4.268495e-05,-0.0003955011,3,1
-0.000112211,-0.0003566054,3,1
-0.0002000504,-0.0003238683,3,1
-0.0002700626,-0.0002946965,3,1
-0.000286107,-0.0002614731,3,1
-0.0002324634,-0.0002138259,3,1
-0.00012469,-0.0001410586,3,1
-2.330684e-06,-3.652646e-05,3,1
9.523264e-05,9.750156e-05,3,1
0.0001504969,0.0002448189,3,1
0.000165569,0.0003796573,3,1
0.0001582761,0.000478031,3,1
0.0001542244,0.0005214646,3,1
0.0001749688,0.000507527,3,1
0.0002235884,0.0004501558,3,1
0.0002901973,0.0003751195,3,1
0.0003577785,0.0003089969,3,1
0.0004057499,0.0002666978,3,1
0.0004203358,0.0002513016,3,1
0.0004034809,0.0002568118,3,1
0.0003668542,0.0002726942,3,1
0.0003256896,0.0002833905,3,1
0.0002897111,0.0002717218,3,1
0.0002621599,0.0002286124,3,1
0.0002477361,0.0001584381,3,1
0.0002556773,7.724339e-05,3,1
0.0002819319,3.665733e-06,3,1
0.000304297,-5.2733e-05,3,1
0.0002973281,-8.692878e-05,3,1
0.0002525981,-0.0001011905,3,1
0.0001803169,-0.0001020008,3,1
0.0001073875,-9.470791e-05,3,1
6.298164e-05,-8.676672e-05,3,1
6.265751e-05,-8.40116e-05,3,1
0.0001056048,-9.065628e-05,3,1
0.0001746447,-0.0001052422,3,1
0.0002409294,-0.0001178833,3,1
0.0002715597,-0.0001180453,3,1
0.0002446569,-0.0001029732,3,1
0.0001602208,-7.60704e-05,3,1
4.175109e-05,-3.555408e-05,3,1
-7.947377e-05,1.64689e-05,3,1
-0.0001840059,7.772959e-05,3,1
-0.0002554767,0.0001406109,3,1
-0.0002695764,0.000195227,3,1
-0.0002170672,0.0002357433,3,1
-0.0001245279,0.0002547049,3,1
-4.138842e-05,0.0002433604,3,1
-5.734056e-06,0.0001971717,3,1
-2.534396e-05,0.0001143563,3,1
-8.40116e-05,6.096713e-06,3,1
-0.0001546721,-0.000107349,3,1
-0.0002201465,-0.0002053985,3,1
-0.0002747625,-0.0002720074,3,1
-0.0003149546,-0.0003091203,3,1
-0.0003408851,-0.0003352128,3,1
-0.0003488263,-0.0003585502,3,1
-0.0003403989,-0.0003720016,3,1
-0.0003201407,-0.0003588744,3,1
-0.0002925897,-0.0003078238,3,1
-0.0002640662,-0.0002144742,3,1
-0.0002412149,-8.628052e-05,3,1
-0.0002279256,5.390598e-05,3,1
-0.0002222533,0.0001816135,3,1
-0.0002178775,0.0002751252,3,1
-0.0002096122,0.0003226103,3,1
-0.0001976194,0.0003269861,3,1
-0.0001828714,0.0003012177,3,1
-0.0001608306,0.0002589186,3,1
-0.000127283,0.0002258573,3,1
-8.692878e-05,0.0002239125,3,1
-5.500191e-05,0.000267346,3,1
-4.317115e-05,0.000351458,3,1
-5.32192e-05,0.0004546936,3,1
-7.23429e-05,0.0005454503,3,1
-8.660465e-05,0.0005995801,3,1
-8.660465e-05,0.000606711,3,1
-6.91016e-05,0.0005629533,3,1
-3.506788e-05,0.0004713863,3,1
9.500085e-06,0.0003402755,3,1
5.99024e-05,0.0001846927,3,1
0.0001143563,2.246531e-05,3,1
0.0001678379,-0.0001261486,3,1
0.0002143507,-0.0002404046,3,1
0.0002478982,-0.0003112272,3,1
0.0002644289,-0.0003441264,3,1
0.0002670219,-0.0003536883,3,1
0.0002631324,-0.0003548227,3,1
0.0002611876,-0.0003536883,3,1
0.0002631324,-0.0003515814,3,1
0.0002610255,-0.0003475298,3,1
0.000249843,-0.0003442885,3,1
0.0002354192,-0.0003442885,3,1
0.0002305572,-0.0003501228,3,1
0.0002440086,-0.0003577399,3,1
0.0002760976,-0.0003595226,3,1
0.000316938,-0.0003472056,3,1
0.0003470822,-0.000318196,3,1
0.0003461098,-0.0002708729,3,1
0.0003075383,-0.0002167431,3,1
0.0002401191,-0.0001734716,3,1
0.0001644345,-0.0001501342,3,1
0.0001020394,-0.0001374932,3,1
6.541262e-05,-0.0001206384,3,1
6.022653e-05,-8.741498e-05,3,1
8.518459e-05,-3.944364e-05,3,1
0.0001291043,1.679302e-05,3,1
0.0001749688,7.30297e-05,3,1
0.0002104611,0.0001242423,3,1
0.000225209,0.0001691344,3,1
0.0002162954,0.0002075439,3,1
0.000192796,0.0002378501,3,1
0.0001662173,0.0002568118,3,1
0.0001435281,0.0002561635,3,1
0.0001239182,0.0002357433,3,1
0.0001023635,0.0001986303,3,1
7.90261e-05,0.0001534141,3,1
5.293359e-05,0.0001062531,3,1
2.619281e-05,6.055066e-05,3,1
-7.100305e-07,1.873781e-05,3,1
-2.874733e-05,-2.0482e-05,3,1
-5.921561e-05,-5.289507e-05,3,1
-8.757704e-05,-7.120844e-05,3,1
-0.0001078352,-7.493595e-05,3,1
-0.0001162626,-7.444975e-05,3,1
-0.0001188556,-7.850138e-05,3,1
-0.00012469,-8.303922e-05,3,1
-0.0001394379,-7.769106e-05,3,1
-0.0001571031,-5.483985e-05,3,1
-0.0001671511,-1.545797e-05,3,1
-0.0001684476,3.964424e-05,3,1
-0.0001684476,0.0001072255,3,1
-0.0001770371,0.0001785342,3,1
-0.0001981056,0.0002407673,3,1
-0.0002290601,0.0002832284,3,1
-0.0002643903,0.0003012177,3,1
-0.0002906449,0.000299597,3,1
-0.0002972895,0.0002880904,3,1
-0.0002794623,0.00027707,3,1
-0.000233922,0.0002629703,3,1
-0.0001600202,0.0002394708,3,1
-6.294311e-05,0.0001999268,3,1
3.850978e-05,0.0001428799,3,1
0.0001154908,7.270556e-05,3,1
0.0001480659,-3.858999e-07,3,1
0.0001380179,-6.504996e-05,3,1
0.0001062531,-0.0001112386,3,1
7.286763e-05,-0.0001331174,3,1
4.272347e-05,-0.0001274451,3,1
1.22552e-05,-9.778715e-05,3,1
-1.983374e-05,-4.997789e-05,3,1
-5.095028e-05,1.241726e-05,3,1
-7.671866e-05,8.307774e-05,3,1
-9.762509e-05,0.0001467694,3,1
-0.0001128592,0.000185503,3,1
-0.0001263107,0.0001955511,3,1
-0.0001387897,0.0001911753,3,1
-0.0001483515,0.0001932822,3,1
-0.0001464067,0.0002080301,3,1
-0.0001269589,0.000225209,3,1
-9.211487e-05,0.0002284504,3,1
-5.289507e-05,0.0002067336,3,1
-2.015787e-05,0.0001662173,3,1
1.234753e-06,0.0001276457,3,1
1.679302e-05,0.0001067393,3,1
3.380988e-05,0.0001119254,3,1
5.56887e-05,0.0001347766,3,1
7.67572e-05,0.0001594105,3,1
9.199134e-05,0.0001644345,3,1
9.523264e-05,0.0001373696,3,1
8.550872e-05,7.643307e-05,3,1
5.925414e-05,-9.947754e-06,3,1
1.630683e-05,-0.0001026491,3,1
-3.830919e-05,-0.0001835197,3,1
-9.357346e-05,-0.0002425115,3,1
-0.0001308485,-0.0002768693,3,1
-0.0001358725,-0.0002903207,3,1
-0.000104918,-0.0002943724,3,1
-5.240886e-05,-0.0002925897,3,1
1.072688e-06,-0.0002888622,3,1
4.272347e-05,-0.0002828657,3,1
7.173317e-05,-0.000271197,3,1
9.409818e-05,-0.0002517492,3,1
0.0001150046,-0.0002224154,3,1
0.0001385041,-0.0001828714,3,1
0.0001633001,-0.0001408965,3,1
0.0001850168,-9.989401e-05,3,1
0.0001916615,-6.116039e-05,3,1
0.0001628139,-2.356124e-05,3,1
8.340187e-05,9.013889e-06,3,1
-3.830919e-05,3.413401e-05,3,1
-0.0001624512,4.77475e-05,3,1
-0.000236353,4.661304e-05,3,1
-0.0002167431,2.797553e-05,3,1
-0.0001015147,-1.196227e-06,3,1
5.585077e-05,-3.069211e-05,3,1
0.0001736723,-4.592625e-05,3,1
0.0002059233,-3.733679e-05,3,1
0.0001621656,-4.761664e-06,3,1
8.729144e-05,4.272347e-05,3,1
2.327564e-05,8.891209e-05,3,1
-1.513384e-05,0.0001200286,3,1
-3.587821e-05,0.0001302388,3,1
-5.2733e-05,0.0001227837,3,1
-6.472583e-05,9.928428e-05,3,1
-6.602235e-05,6.265751e-05,3,1
-5.240886e-05,2.165498e-05,3,1
-2.501983e-05,-1.691656e-05,3,1
9.66215e-06,-5.062615e-05,3,1
4.304761e-05,-7.396356e-05,3,1
6.055066e-05,-8.82253e-05,3,1
5.52025e-05,-9.535618e-05,3,1
3.267542e-05,-9.389759e-05,3,1
6.258778e-06,-7.801519e-05,3,1
-1.25408e-05,-4.738484e-05,3,1
-1.756482e-05,-1.367526e-05,3,1
-9.623623e-06,7.555301e-06,3,1
8.203562e-06,8.365628e-06,3,1
2.943412e-05,-8.651231e-06,3,1
4.077869e-05,-3.458168e-05,3,1
2.781346e-05,-5.046408e-05,3,1
-1.351319e-05,-3.879538e-05,3,1
-7.023606e-05,2.04508e-06,3,1
-0.0001209625,6.103686e-05,3,1
-0.0001561307,0.0001231079,3,1
-0.0001765509,0.0001772377,3,1
-0.0001856265,0.000217754,3,1
-0.0001830335,0.0002438466,3,1
-0.0001616409,0.0002585945,3,1
-0.0001251762,0.0002610255,3,1
-8.530812e-05,0.0002461155,3,1
-5.240886e-05,0.0002120818,3,1
-3.733679e-05,0.0001569795,3,1
-4.171256e-05,8.275361e-05,3,1
-6.342931e-05,-3.627206e-06,3,1
-8.790117e-05,-8.919769e-05,3,1
-8.952183e-05,-0.0001652063,3,1
-5.305713e-05,-0.0002258187,3,1
1.306552e-05,-0.0002671454,3,1
8.486046e-05,-0.0002864312,3,1
0.0001433661,-0.0002864312,3,1
0.0001803169,-0.0002767073,3,1
0.0001957132,-0.0002648765,3,1
0.0001911753,-0.0002561249,3,1
0.0001722137,-0.0002494803,3,1
0.000148228,-0.0002423494,3,1
0.0001266733,-0.0002263049,3,1
0.0001112771,-0.0001932436,3,1
0.0001078737,-0.0001426792,3,1
0.0001190562,-7.769106e-05,3,1
0.0001402868,-1.520357e-06,3,1
0.0001576278,8.032264e-05,3,1
0.0001611932,0.0001569795,3,1
0.0001569795,0.0002156472,3,1
0.0001524417,0.0002464396,3,1
0.0001537382,0.0002453052,3,1
0.0001634622,0.0002132162,3,1
0.0001871237,0.0001534141,3,1
0.0002303951,7.610894e-05,3,1
0.0002880904,-7.100305e-07,3,1
0.0003422202,-6.132246e-05,3,1
0.0003668542,-0.0001003802,3,1
0.000349027,-0.0001209625,3,1
0.0002926282,-0.0001240417,3,1
0.0002161334,-0.0001161005,3,1
0.0001391524,-0.0001055663,3,1
7.999851e-05,-9.600444e-05,3,1
4.855783e-05,-8.514606e-05,3,1
4.645098e-05,-6.958779e-05,3,1
6.962632e-05,-4.511593e-05,3,1
0.0001078737,-1.108221e-05,3,1
0.0001438522,2.441009e-05,3,1
0.0001647587,5.325772e-05,3,1
0.0001621656,7.52986e-05,3,1
0.0001334801,0.0001030118,3,1
8.388807e-05,0.0001467694,3,1
2.197911e-05,0.0002030061,3,1
-4.544006e-05,0.0002602152,3,1
-0.0001133454,0.0002992729,3,1
-0.000179306,0.000309483,3,1
-0.0002335979,0.0002939248,3,1
-0.0002609869,0.0002637806,3,1
-0.0002528836,0.0002336365,3,1
-0.0002156086,0.0002148369,3,1
-0.0001703924,0.0002072198,3,1
-0.0001430034,0.0002067336,3,1
-0.0001512687,0.0002064095,3,1
-0.0001934057,0.0002018716,3,1
-0.0002498044,0.0001934442,3,1
-0.0002982619,0.0001835583,3,1
-0.0003267854,0.0001723757,3,1
-0.0003253268,0.0001597346,3,1
-0.000290969,0.0001433661,3,1
-0.0002327876,0.0001219734,3,1
-0.0001684476,9.68533e-05,3,1
-0.0001141558,7.124698e-05,3,1
-6.81292e-05,4.904402e-05,3,1
-2.177852e-05,3.591673e-05,3,1
2.910999e-05,3.089271e-05,3,1
7.335383e-05,2.927205e-05,3,1
9.879808e-05,2.408596e-05,3,1
9.037068e-05,9.986281e-06,3,1
4.693717e-05,-1.286493e-05,3,1
-1.788895e-05,-3.879538e-05,3,1
-8.222889e-05,-6.002594e-05,3,1
-0.0001290658,-7.282909e-05,3,1
-0.0001485136,-7.979791e-05,3,1
-0.0001430034,-8.514606e-05,3,1
-0.0001224211,-9.470791e-05,3,1
-0.0001029732,-0.0001060525,3,1
-9.989401e-05,-0.000119828,3,1
-0.0001157764,-0.0001340898,3,1
-0.0001376552,-0.0001481895,3,1
-0.0001498101,-0.0001634236,3,1
-0.0001392759,-0.0001810887,3,1
-0.0001032974,-0.000201509,3,1
-5.64605e-05,-0.000221443,3,1
-2.372331e-05,-0.000238784,3,1
-2.437157e-05,-0.0002548284,3,1
-6.245691e-05,-0.0002674695,3,1
-0.000122097,-0.0002724935,3,1
-0.0001723372,-0.0002728177,3,1
-0.0001869231,-0.0002775176,3,1
-0.0001507825,-0.0002856209,3,1
-7.266703e-05,-0.000290969,3,1
2.39239e-05,-0.0002862691,3,1
0.0001124116,-0.0002695764,3,1
0.0001770756,-0.0002376495,3,1
0.0002174299,-0.0001925954,3,1
0.0002383363,-0.0001366828,3,1
0.0002448189,-7.33153e-05,3,1
0.0002404432,-2.81688e-06,3,1
0.0002278021,7.108491e-05,3,1
0.0002112714,0.0001425557,3,1
0.0001957132,0.0002072198,3,1
0.0001832341,0.0002631324,3,1
0.0001718896,0.0003023522,3,1
0.0001595726,0.000311914,3,1
0.0001449867,0.0002816078,3,1
0.0001375317,0.0002070577,3,1
0.0001414213,9.977047e-05,3,1
0.0001529279,-1.383732e-05,3,1
0.0001720516,-0.0001067007,3,1
0.0001981441,-0.0001609926,3,1
0.0002239125,-0.0001750923,3,1
0.0002384984,-0.0001549962,3,1
0.0002368777,-0.0001045939,3,1
0.0002213195,-3.377136e-05,3,1
0.0002007372,4.515445e-05,3,1
0.0001830721,0.0001185701,3,1
0.0001738343,0.0001785342,3,1
0.0001710792,0.0002224539,3,1
0.000170593,0.0002448189,3,1
0.0001652449,0.000252274,3,1
0.0001584381,0.0002532463,3,1
0.0001509831,0.0002616738,3,1
0.0001401247,0.0002906835,3,1
0.0001203528,0.0003452995,3,1
9.101894e-05,0.0004177427,3,1
5.179914e-05,0.0004932652,3,1
6.258778e-06,0.0005561466,3,1
-3.749886e-05,0.0006010387,3,1
-7.007399e-05,0.0006353966,3,1
-8.773911e-05,0.0006647304,3,1
-9.276313e-05,0.0006888782,3,1
-9.373552e-05,0.0006940642,3,1
-9.535618e-05,0.000663596,3,1
-9.875954e-05,0.0005867769,3,1
-9.503204e-05,0.000470576,3,1
-8.141856e-05,0.0003349273,3,1
-6.521203e-05,0.0002064095,3,1
-6.245691e-05,0.000111115,3,1
-8.465986e-05,5.844381e-05,3,1
-0.0001302002,4.612685e-05,3,1
-0.0001854645,5.925414e-05,3,1
-0.0002324634,6.83298e-05,3,1
-0.000251263,4.709924e-05,3,1
-0.0002348944,-1.25408e-05,3,1
-0.0001908126,-9.875954e-05,3,1
-0.0001374932,-0.0001895161,3,1
-9.746302e-05,-0.0002666592,3,1
-7.979791e-05,-0.0003248407,3,1
-7.882551e-05,-0.0003676259,3,1
-7.963584e-05,-0.0004011734,3,1
-7.104638e-05,-0.000427428,3,1
-4.884343e-05,-0.0004501171,3,1
-2.0482e-05,-0.0004734545,3,1
4.313994e-06,-0.000496954,3,1
1.808955e-05,-0.0005201293,3,1
1.695509e-05,-0.0005426564,3,1
1.072688e-06,-0.0005598353,3,1
-2.226472e-05,-0.0005646973,3,1
-4.333321e-05,-0.0005556216,3,1
-5.516398e-05,-0.0005339049,3,1
-5.565017e-05,-0.0005037607,3,1
-4.868137e-05,-0.0004645409,3,1
-4.252288e-05,-0.0004157593,3,1
-4.074016e-05,-0.0003564434,3,1
-4.511593e-05,-0.0002846485,3,1
-5.565017e-05,-0.0001951884,3,1
-6.958779e-05,-9.600444e-05,3,1
-8.595638e-05,-9.461558e-06,3,1
-0.0001037836,3.850978e-05,3,1
-0.0001212866,3.964424e-05,3,1
-0.000132145,3.827799e-06,3,1
-0.0001280934,-4.706071e-05,3,1
-0.0001055663,-8.952183e-05,3,1
-6.715681e-05,-0.0001052422,3,1
-2.275091e-05,-8.384954e-05,3,1
1.711715e-05,-3.020592e-05,3,1
5.115087e-05,3.624086e-05,3,1
7.886404e-05,9.426025e-05,3,1
9.879808e-05,0.000130725,3,1
0.0001090082,0.0001435281,3,1
0.0001120874,0.0001398006,3,1
0.0001138702,0.0001302388,3,1
0.0001143563,0.000130725,3,1
0.0001073875,0.0001503349,3,1
8.664318e-05,0.0001859892,3,1
5.649903e-05,0.0002316917,3,1
3.397195e-05,0.0002804733,3,1
3.429608e-05,0.0003190449,3,1
6.330578e-05,0.0003370341,3,1
0.0001117633,0.0003339549,3,1
0.0001611932,0.0003162898,3,1
0.000202844,0.0002952213,3,1
0.0002278021,0.0002775562,3,1
0.0002347709,0.0002634565,3,1
0.0002266676,0.0002495189,3,1
0.0002099749,0.0002354192,3,1
0.0001882582,0.0002184023,3,1
0.000163138,0.0001971717,3,1
0.0001349386,0.0001735102,3,1
0.0001018773,0.0001487142,3,1
6.41161e-05,0.0001198666,3,1
2.084466e-05,8.502253e-05,3,1
-2.258885e-05,4.515445e-05,3,1
-5.289507e-05,7.393236e-06,3,1
-5.354332e-05,-2.09682e-05,3,1
-2.161646e-05,-3.571614e-05,3,1
3.18651e-05,-4.138842e-05,3,1
8.631905e-05,-4.446767e-05,3,1
0.0001239182,-4.949169e-05,3,1
0.0001352628,-5.629844e-05,3,1
0.0001219734,-6.083626e-05,3,1
9.53947e-05,-6.326724e-05,3,1
6.606088e-05,-6.81292e-05,3,1
4.304761e-05,-7.963584e-05,3,1
3.008238e-05,-9.697683e-05,3,1
2.376183e-05,-0.0001149661,3,1
1.695509e-05,-0.0001310105,3,1
2.207145e-06,-0.0001491618,3,1
-2.680255e-05,-0.0001713648,3,1
-7.671866e-05,-0.000194216,3,1
-0.0001428413,-0.0002162569,3,1
-0.000209126,-0.0002353806,3,1
-0.000251101,-0.0002481838,3,1
-0.0002478596,-0.0002522354,3,1
-0.0001974573,-0.0002498044,3,1
-0.0001251762,-0.0002426735,3,1
-6.829127e-05,-0.0002316531,3,1
-4.949169e-05,-0.0002133397,3,1
-6.667062e-05,-0.0001818991,3,1
-9.713889e-05,-0.0001352242,3,1
-0.0001180453,-7.801519e-05,3,1
-0.0001178833,-1.902341e-05,3,1
-0.0001000561,3.60788e-05,3,1
-7.995997e-05,8.761557e-05,3,1
-7.33153e-05,0.0001464453,3,1
-8.190475e-05,0.000217592,3,1
-9.859748e-05,0.0003023522,3,1
-0.0001091317,0.0003948915,3,1
-0.0001029732,0.000475438,3,1
-7.671866e-05,0.0005148199,3,1
-3.279896e-05,0.0004919686,3,1
1.387585e-05,0.0004051016,3,1
3.964424e-05,0.0002765838,3,1
3.332369e-05,0.0001355869,3,1
-2.238346e-07,8.041497e-06,3,1
-4.706071e-05,-8.968389e-05,3,1
-9.551824e-05,-0.0001551583,3,1
-0.0001387897,-0.0001927574,3,1
-0.0001726613,-0.0002088019,3,1
-0.0001914609,-0.0002023193,3,1
-0.0001948643,-0.0001708786,3,1
-0.0001861127,-0.0001193418,3,1
-0.0001705545,-6.326724e-05,3,1
-0.0001540238,-1.416145e-05,3,1
-0.0001350622,2.295151e-05,3,1
-0.0001021629,4.385793e-05,3,1
-4.949169e-05,4.888196e-05,3,1
1.614476e-05,4.35338e-05,3,1
7.319176e-05,3.202716e-05,3,1
0.0001080358,1.857574e-05,3,1
0.0001164632,3.341602e-06,3,1
0.0001065772,-1.156841e-05,3,1
9.280167e-05,-2.161646e-05,3,1
8.340187e-05,-2.647842e-05,3,1
8.486046e-05,-2.809907e-05,3,1
0.0001002567,-2.501983e-05,3,1
0.0001323456,-1.529591e-05,3,1
0.0001752929,5.86492e-07,3,1
0.0002122438,2.084466e-05,3,1
0.000232502,4.288554e-05,3,1
0.0002368777,6.314371e-05,3,1
0.0002321778,7.756752e-05,3,1
0.0002331503,8.502253e-05,3,1
0.0002509774,8.777764e-05,3,1
0.0002791768,8.875003e-05,3,1
0.0003047831,8.858796e-05,3,1
0.0003201794,8.923623e-05,3,1
0.0003208276,9.134307e-05,3,1
0.0003077003,9.588091e-05,3,1
0.0002861456,0.0001023635,3,1
0.0002574601,0.0001099806,3,1
0.0002184023,0.0001172735,3,1
0.0001611932,0.0001224596,3,1
8.631905e-05,0.0001244044,3,1
8.851824e-06,0.0001222976,3,1
-5.629844e-05,0.0001151667,3,1
-0.0001071869,0.0001017153,3,1
-0.0001536997,8.032264e-05,3,1
-0.0001982676,5.260946e-05,3,1
-0.0002301945,2.133085e-05,3,1
-0.0002284118,-1.010982e-05,3,1
-0.000181737,-4.138842e-05,3,1
-0.0001028112,-7.088431e-05,3,1
-2.177852e-05,-9.486997e-05,3,1
3.656499e-05,-0.0001180453,3,1
7.059871e-05,-0.0001438137,3,1
8.648112e-05,-0.0001729855,3,1
9.361199e-05,-0.0001989159,3,1
9.63671e-05,-0.0002173914,3,1
8.502253e-05,-0.0002280877,3,1
4.871989e-05,-0.0002298704,3,1
-1.967167e-05,-0.0002193361,3,1
-0.0001146419,-0.0002005366,3,1
-0.0002138259,-0.0001754164,3,1
-0.0002911311,-0.0001459206,3,1
-0.0003230579,-0.0001091317,3,1
-0.0003036101,-5.872941e-05,3,1
-0.000238946,7.717366e-06,3,1
-0.0001512687,7.951231e-05,3,1
-7.671866e-05,0.0001422316,3,1
-4.641245e-05,0.0001845306,3,1
-6.359137e-05,0.0002083542,3,1
-0.0001026491,0.0002219677,3,1
-0.000134576,0.000235095,3,1
-0.0001413827,0.0002521119,3,1
-0.0001216107,0.0002645909,3,1
-8.109443e-05,0.0002639427,3,1
-3.231277e-05,0.0002482223,3,1
1.582063e-05,0.0002243987,3,1
5.666109e-05,0.0001963614,3,1
8.550872e-05,0.0001657311,3,1
0.0001028497,0.0001385041,3,1
0.000110953,0.0001187321,3,1
0.0001047945,0.0001022015,3,1
7.57848e-05,8.064677e-05,3,1
2.197911e-05,4.72613e-05,3,1
-4.527799e-05,1.558884e-06,3,1
-0.0001031353,-4.80331e-05,3,1
-0.0001285796,-8.984595e-05,3,1
-0.0001125351,-0.0001178833,3,1
-6.472583e-05,-0.0001329553,3,1
-6.706447e-06,-0.0001391138,3,1
3.93201e-05,-0.0001410586,3,1
5.811968e-05,-0.0001404103,3,1
5.163707e-05,-0.0001396,3,1
3.18651e-05,-0.0001404103,3,1
1.12828e-05,-0.0001392759,3,1
2.623614e-07,-0.0001373311,3,1
-8.720959e-07,-0.0001360346,3,1
4.80019e-06,-0.000132145,3,1
1.906194e-05,-0.0001274451,3,1
4.434413e-05,-0.000122097,3,1
8.226741e-05,-0.0001139937,3,1
0.0001352628,-0.0001018388,3,1
0.0001996027,-8.530812e-05,3,1
0.0002624841,-6.780507e-05,3,1
0.0003075383,-5.791909e-05,3,1
0.0003218,-6.229485e-05,3,1
0.0003023522,-8.222889e-05,3,1
0.0002556773,-0.0001126972,3,1
0.0001957132,-0.0001449482,3,1
0.0001412592,-0.00016942,3,1
0.0001120874,-0.0001835197,3,1
0.0001188942,-0.0001872472,3,1
0.0001671896,-0.000181737,3,1
0.000242388,-0.0001666649,3,1
0.0003149933,-0.0001397621,3,1
0.0003496752,-0.0001026491,3,1
0.000331848,-6.035007e-05,3,1
0.0002712356,-1.740276e-05,3,1
0.0001981441,2.39239e-05,3,1
0.0001428799,6.379197e-05,3,1
0.0001201907,0.000103498,3,1
0.0001253768,0.000143204,3,1
0.0001417454,0.000180479,3,1
0.0001564933,0.0002119197,3,1
0.0001611932,0.0002381743,3,1
0.0001513072,0.0002619979,3,1
0.0001247285,0.0002929524,3,1
8.453633e-05,0.000341572,3,1
3.786152e-05,0.0004125566,3,1
-1.367526e-05,0.0004992616,3,1
-7.007399e-05,0.0005815908,3,1
-0.0001337657,0.000634262,3,1
-0.0001985918,0.0006392861,3,1
-0.000256287,0.0005952043,3,1
-0.0003031239,0.0005130371,3,1
-0.0003423437,0.0004089912,3,1
-0.00036795,0.0003028383,3,1
-0.0003695707,0.0002111094,3,1
-0.0003342404,0.0001422316,3,1
-0.000266173,9.701536e-05,3,1
-0.0001794681,6.995045e-05,3,1
-9.227693e-05,5.56887e-05,3,1
-2.129233e-05,4.369587e-05,3,1
2.359977e-05,2.489629e-05,3,1
3.624086e-05,-4.437533e-06,3,1
1.954813e-05,-4.041603e-05,3,1
-1.99958e-05,-7.688073e-05,3,1
-7.720486e-05,-0.0001118868,3,1
-0.0001417068,-0.0001433275,3,1
-0.0002008607,-0.0001708786,3,1
-0.0002400805,-0.000194216,3,1
-0.0002475355,-0.0002117191,3,1
-0.0002277635,-0.0002229016,3,1
-0.0001956746,-0.0002285739,3,1
-0.000166989,-0.0002316531,3,1
-0.0001517549,-0.0002347323,3,1
-0.0001509446,-0.0002379736,3,1
-0.0001541859,-0.0002378116,3,1
-0.0001509446,-0.0002326255,3,1
-0.0001399241,-0.0002251705,3,1
-0.0001266348,-0.0002222533,3,1
-0.0001182074,-0.0002233878,3,1
-0.0001212866,-0.0002251705,3,1
-0.0001340898,-0.0002237119,3,1
-0.0001455964,-0.0002185258,3,1
-0.0001428413,-0.0002078295,3,1
-0.0001211246,-0.0001912988,3,1
-8.158062e-05,-0.0001726613,3,1
-2.404744e-05,-0.0001546721,3,1
4.418206e-05,-0.0001413827,3,1
0.0001150046,-0.0001394379,3,1
0.0001728619,-0.000151917,3,1
0.0002070577,-0.0001750923,3,1
0.0002111094,-0.0002023193,3,1
0.000185503,-0.0002250084,3,1
0.0001427178,-0.0002405667,3,1
9.717743e-05,-0.0002519113,3,1
6.087479e-05,-0.000261149,3,1
3.834771e-05,-0.000266173,3,1
2.457216e-05,-0.0002596904,3,1
1.371378e-05,-0.0002395943,3,1
5.286387e-06,-0.0002096122,3,1
3.341602e-06,-0.0001746061,3,1
1.565857e-05,-0.0001378173,3,1
4.888196e-05,-9.632857e-05,3,1
0.0001039842,-4.592625e-05,3,1
0.0001663793,1.290346e-05,3,1
0.00021273,7.853991e-05,3,1
0.0002341226,0.0001519555,3,1
0.0002397949,0.0002313675,3,1
0.0002433604,0.0003112658,3,1
0.0002568118,0.0003845193,3,1
0.0002807975,0.0004465904,3,1
0.0003096451,0.0004979651,3,1
0.000331686,0.0005378332,3,1
0.0003354135,0.0005626292,3,1
0.0003171001,0.0005718669,3,1
0.0002754493,0.0005676532,3,1
0.0002227781,0.0005519328,3,1
0.0001735102,0.0005240576,3,1
0.0001420695,0.0004809482,3,1
0.0001351007,0.0004221185,3,1
0.0001526038,0.0003556717,3,1
0.0001817755,0.000294573,3,1
0.0002065715,0.0002477361,3,1
0.0002130541,0.0002149989,3,1
0.0001937684,0.0001908512,3,1
0.0001475797,0.000168,3,1
8.631905e-05,0.0001394765,3,1
1.873781e-05,0.0001039842,3,1
-4.641245e-05,6.816773e-05,3,1
-0.0001026491,3.705119e-05,3,1
-0.0001488377,1.452411e-05,3,1
-0.0001895161,7.069105e-06,3,1
-0.0002310048,1.160693e-05,3,1
-0.0002771934,2.052053e-05,3,1
-0.0003209511,2.570662e-05,3,1
-0.0003470436,2.230325e-05,3,1
-0.0003501228,1.338965e-05,3,1
-0.0003352128,9.106227e-07,3,1
-0.0003194925,-9.461558e-06,3,1
-0.0003198166,-8.975362e-06,3,1
-0.0003428299,1.630683e-05,3,1
-0.000380267,7.173317e-05,3,1
-0.0004074939,0.0001433661,3,1
-0.0003940425,0.0002005751,3,1
-0.000325651,0.0002198609,3,1
-0.0002131776,0.000192958,3,1
-9.179074e-05,0.000128456,3,1
1.002961e-07,4.158902e-05,3,1
4.02925e-05,-5.078821e-05,3,1
3.624086e-05,-0.0001357104,3,1
1.533444e-05,-0.0002102605,3,1
3.665733e-06,-0.0002746004,3,1
1.031041e-05,-0.000328244,3,1
2.522042e-05,-0.000372974,3,1
3.364782e-05,-0.0004083043,3,1
2.667901e-05,-0.0004295348,3,1
4.151929e-06,-0.000435045,3,1
-2.664048e-05,-0.0004288866,3,1
-5.159854e-05,-0.0004149489,3,1
-6.148453e-05,-0.0003948528,3,1
-5.22468e-05,-0.0003737844,3,1
-2.437157e-05,-0.0003520676,3,1
1.306552e-05,-0.0003326198,3,1
4.77475e-05,-0.0003123616,3,1
6.800567e-05,-0.000285945,3,1
6.816773e-05,-0.0002548284,3,1
5.649903e-05,-0.0002259808,3,1
4.191315e-05,-0.0002026434,3,1
2.975825e-05,-0.0001836818,3,1
2.116879e-05,-0.0001611547,3,1
1.64689e-05,-0.0001263107,3,1
1.954813e-05,-7.574627e-05,3,1
3.478228e-05,-1.059602e-05,3,1
6.298164e-05,6.281957e-05,3,1
9.766362e-05,0.0001354248,3,1
0.0001269974,0.0001983062,3,1
0.0001410971,0.0002538946,3,1
0.0001385041,0.0003149933,3,1
0.0001295905,0.0003900295,3,1
0.0001231079,0.0004715484,3,1
0.0001239182,0.0005412365,3,1
0.0001297526,0.0005765668,3,1
0.0001386662,0.0005616568,3,1
0.0001470936,0.0004968306,3,1
0.0001600588,0.0003992672,3,1
0.0001833962,0.0002965178,3,1
0.0002141886,0.0002094887,3,1
0.0002410915,0.0001470936,3,1
0.0002551911,0.0001080358,3,1
0.0002482223,8.437427e-05,3,1
0.0002145127,6.41161e-05,3,1
0.000150659,3.705119e-05,3,1
6.346784e-05,6.744974e-06,3,1
-1.902341e-05,-1.756482e-05,3,1
-6.472583e-05,-2.7937e-05,3,1
-5.467778e-05,-2.680255e-05,3,1
3.017472e-06,-2.015787e-05,3,1
7.400208e-05,-1.99958e-05,3,1
0.0001231079,-3.279896e-05,3,1
0.0001304008,-5.581224e-05,3,1
0.0001013911,-8.012204e-05,3,1
5.471631e-05,-9.713889e-05,3,1
1.209313e-05,-0.0001039456,3,1
-1.967167e-05,-0.0001016767,3,1
-4.965376e-05,-9.730096e-05,3,1
-9.146661e-05,-9.811128e-05,3,1
-0.0001460826,-0.0001041077,3,1
-0.0002019951,-0.000112373,3,1
-0.0002470493,-0.000119828,3,1
-0.0002731418,-0.0001255003,3,1
-0.0002765452,-0.0001276072,3,1
-0.0002519113,-0.0001290658,3,1
-0.0001982676,-0.0001285796,3,1
-0.0001143178,-0.0001266348,3,1
-1.20546e-05,-0.0001227452,3,1
8.032264e-05,-0.0001173971,3,1
0.0001352628,-0.0001107524,3,1
0.0001435281,-0.0001062146,3,1
0.0001103047,-0.0001036215,3,1
5.390598e-05,-0.0001015147,3,1
-5.89612e-06,-9.535618e-05,3,1
-5.970181e-05,-8.255302e-05,3,1
-0.0001032974,-6.845333e-05,3,1
-0.0001391138,-5.937768e-05,3,1
-0.0001684476,-5.354332e-05,3,1
-0.0001893541,-3.895745e-05,3,1
-0.0001953505,-3.14101e-06,3,1
-0.00018433,5.828175e-05,3,1
-0.0001596961,0.0001315353,3,1
-0.0001224211,0.0001911753,3,1
-7.995997e-05,0.0002162954,3,1
-3.879538e-05,0.0001989545,3,1
-2.006553e-06,0.0001389903,3,1
3.267542e-05,4.645098e-05,3,1
6.541262e-05,-6.148453e-05,3,1
9.069481e-05,-0.0001640719,3,1
9.960841e-05,-0.0002423494,3,1
9.150514e-05,-0.0002870794,3,1
7.432621e-05,-0.000301017,3,1
5.633696e-05,-0.0002945344,3,1
3.802358e-05,-0.0002797865,3,1
1.760335e-05,-0.0002653627,3,1
-2.168618e-06,-0.000253856,3,1
-2.0482e-05,-0.0002404046,3,1
-3.571614e-05,-0.0002152845,3,1
-3.928157e-05,-0.0001775233,3,1
-1.464765e-05,-0.0001274451,3,1
4.855783e-05,-7.201877e-05,3,1
0.0001410971,-2.437157e-05,3,1
0.0002367157,5.86492e-07,3,1
0.0003038107,-1.520357e-06,3,1
0.000331686,-2.161646e-05,3,1
0.0003308757,-4.349527e-05,3,1
0.0003213138,-5.402952e-05,3,1
0.0003166139,-4.754691e-05,3,1
0.0003190449,-2.696461e-05,3,1
0.0003174242,1.720949e-06,3,1
0.0003010556,2.862379e-05,3,1
0.0002676702,4.483033e-05,3,1
0.0002216436,5.050261e-05,3,1
0.0001688103,5.504044e-05,3,1
0.0001106288,6.930219e-05,3,1
4.709924e-05,0.0001057669,3,1
-1.67545e-05,0.0001701068,3,1
-6.942573e-05,0.000259891,3,1
-9.811128e-05,0.0003662059,3,1
-9.19528e-05,0.0004723587,3,1
-5.613637e-05,0.0005650602,3,1
-7.678839e-06,0.0006363689,3,1
3.397195e-05,0.0006799645,3,1
5.455425e-05,0.000693416,3,1
5.471631e-05,0.0006809369,3,1
4.288554e-05,0.0006527375,3,1
2.878586e-05,0.0006201624,3,1
2.068259e-05,0.0005874252,3,1
2.116879e-05,0.0005537156,3,1
2.910999e-05,0.0005130371,3,1
3.93201e-05,0.0004602039,3,1
4.596478e-05,0.0003914881,3,1
4.612685e-05,0.000309321,3,1
4.45062e-05,0.0002141886,3,1
3.834771e-05,0.0001096565,3,1
2.214118e-05,4.313994e-06,3,1
-5.479652e-07,-8.352541e-05,3,1
-1.869928e-05,-0.0001332795,3,1
-2.826114e-05,-0.000134576,3,1
-2.923353e-05,-9.260107e-05,3,1
-2.453363e-05,-2.955766e-05,3,1
-2.080613e-05,2.603075e-05,3,1
-2.631635e-05,5.309566e-05,3,1
-4.544006e-05,3.948217e-05,3,1
-7.769106e-05,-8.489166e-06,3,1
-0.000119828,-7.282909e-05,3,1
-0.0001702304,-0.0001350622,3,1
-0.0002232257,-0.0001788198,3,1
-0.0002689281,-0.0001885437,3,1
-0.0002929138,-0.000156941,3,1
-0.0002870794,-9.081835e-05,3,1
-0.0002598524,-1.059602e-05,3,1
-0.0002243602,5.779555e-05,3,1
-0.0001968091,9.604298e-05,3,1
-0.0001937298,9.960841e-05,3,1
-0.0002217671,7.254349e-05,3,1
-0.0002708729,1.873781e-05,3,1
-0.0003190063,-6.06742e-05,3,1
-0.0003459091,-0.0001571031,3,1
-0.0003472056,-0.0002558008,3,1
-0.0003241924,-0.0003350507,3,1
-0.0002797865,-0.0003830221,3,1
-0.0002162569,-0.0003984183,3,1
-0.0001358725,-0.000387884,3,1
-5.046408e-05,-0.0003640605,3,1
1.873781e-05,-0.000345585,3,1
5.309566e-05,-0.0003476919,3,1
5.066468e-05,-0.0003716775,3,1
2.554455e-05,-0.0004094387,3,1
-2.238346e-07,-0.000449955,3,1
-1.20546e-05,-0.0004826922,3,1
-6.382317e-06,-0.0005000332,3,1
8.365628e-06,-0.0004987367,3,1
2.149292e-05,-0.0004805854,3,1
3.121684e-05,-0.0004570859,3,1
3.996837e-05,-0.0004395829,3,1
5.034055e-05,-0.0004311555,3,1
6.217132e-05,-0.0004258073,3,1
7.886404e-05,-0.0004130042,3,1
0.0001020394,-0.000387884,3,1
0.0001245665,-0.0003517435,3,1
0.0001388282,-0.0003044204,3,1
0.0001428799,-0.000246239,3,1
0.0001331559,-0.0001783336,3,1
0.0001015532,-0.0001058904,3,1
4.758544e-05,-3.247483e-05,3,1
-1.545797e-05,3.705119e-05,3,1
-6.375344e-05,0.0001038221,3,1
-7.801519e-05,0.0001790204,3,1
-5.176061e-05,0.0002739907,3,1
1.079661e-05,0.0003807918,3,1
9.490851e-05,0.0004773828,3,1
0.0001714034,0.0005360505,3,1
0.000220023,0.000539778,3,1
0.0002381743,0.0004931031,3,1
0.0002344468,0.0004180668,3,1
0.0002232643,0.000341572,3,1
0.0002149989,0.0002814457,3,1
0.0002137024,0.0002478982,3,1
0.0002140265,0.0002360674,3,1
0.0001996027,0.0002357433,3,1
0.0001621656,0.0002357433,3,1
0.0001090082,0.0002346088,3,1
6.103686e-05,0.0002355812,3,1
3.445814e-05,0.0002404432,3,1
3.251336e-05,0.0002485465,3,1
4.580272e-05,0.0002563256,3,1
6.46023e-05,0.0002581083,3,1
8.907416e-05,0.0002519498,3,1
0.0001240803,0.0002404432,3,1
0.000168,0.0002336365,3,1
0.0002156472,0.0002357433,3,1
0.0002529222,0.0002464396,3,1
0.0002641047,0.0002605393,3,1
0.0002443328,0.0002717218,3,1
0.0002012234,0.00027707,3,1
0.0001479039,0.0002749631,3,1
9.669123e-05,0.0002585945,3,1
5.536457e-05,0.0002269918,3,1
2.81376e-05,0.0001820997,3,1
9.66215e-06,0.0001313732,3,1
-1.059602e-05,8.388807e-05,3,1
-4.414354e-05,4.985435e-05,3,1
-9.114248e-05,3.802358e-05,3,1
-0.0001392759,5.325772e-05,3,1
-0.0001750923,8.972242e-05,3,1
-0.0001895161,0.000135749,3,1
-0.0001820611,0.0001786963,3,1
-0.0001585616,0.0002068957,3,1
-0.0001295519,0.0002148369,3,1
-0.0001029732,0.0002033302,3,1
-8.433573e-05,0.0001759412,3,1
-7.201877e-05,0.0001385041,3,1
-6.456377e-05,9.863601e-05,3,1
-6.278104e-05,6.103686e-05,3,1
-6.326724e-05,2.505836e-05,3,1
-5.921561e-05,-1.724069e-05,3,1
-4.997789e-05,-6.553616e-05,3,1
-3.895745e-05,-0.0001104282,3,1
-2.826114e-05,-0.0001439758,3,1
-1.934754e-05,-0.0001639098,3,1
-1.140634e-05,-0.000176713,3,1
-2.492749e-06,-0.0001883817,3,1
6.258778e-06,-0.0002075054,3,1
8.689758e-06,-0.0002405667,3,1
-5.479652e-07,-0.0002867553,3,1
-2.404744e-05,-0.0003384541,3,1
-5.662256e-05,-0.0003810773,3,1
-9.098041e-05,-0.0004014975,3,1
-0.0001212866,-0.0003950149,3,1
-0.0001452723,-0.0003697327,3,1
-0.0001588858,-0.0003379679,3,1
-0.0001532135,-0.00030831,3,1
-0.0001182074,-0.0002843243,3,1
-5.840528e-05,-0.0002679557,3,1
7.23117e-06,-0.0002639041,3,1
5.860588e-05,-0.0002716832,3,1
7.886404e-05,-0.0002840002,3,1
6.719535e-05,-0.0002895104,3,1
3.235129e-05,-0.0002822175,3,1
-8.165035e-06,-0.0002640662,3,1
-3.539201e-05,-0.0002434839,3,1
-3.717473e-05,-0.0002279256,3,1
-1.416145e-05,-0.0002196603,3,1
2.570662e-05,-0.000216419,3,1
7.076078e-05,-0.0002169052,3,1
0.0001046324,-0.0002198223,3,1
0.0001205148,-0.0002177155,3,1
0.0001242423,-0.0001987538,3,1
0.0001278078,-0.0001532135,3,1
0.00013818,-8.093236e-05,3,1
0.0001542244,1.160693e-05,3,1
0.0001641104,0.000121001,3,1
0.0001558451,0.0002430362,3,1
0.0001336421,0.0003741471,3,1
0.0001132219,0.0005059062,3,1
0.0001090082,0.0006295622,3,1
0.0001245665,0.0007360392,3,1
0.0001519555,0.0008109135,3,1
0.0001788584,0.00084203,3,1
0.0001973338,0.0008209614,3,1
0.0002064095,0.0007519216,3,1
0.0002051129,0.0006519272,3,1
0.0001934442,0.0005409124,3,1
0.0001728619,0.0004354078,3,1
0.0001470936,0.0003438409,3,1
0.0001169494,0.0002645909,3,1
8.388807e-05,0.0001976579,3,1
5.050261e-05,0.0001449867,3,1
2.522042e-05,0.0001073875,3,1
1.695509e-05,8.79397e-05,3,1
3.380988e-05,8.016057e-05,3,1
6.735741e-05,7.351589e-05,3,1
0.0001017153,6.46023e-05,3,1
0.0001231079,4.985435e-05,3,1
0.0001227837,2.992031e-05,3,1
0.0001009049,4.80019e-06,3,1
6.492643e-05,-2.09682e-05,3,1
2.359977e-05,-4.155049e-05,3,1
-2.0482e-05,-5.451572e-05,3,1
-6.504996e-05,-6.213279e-05,3,1
-0.0001079973,-7.250496e-05,3,1
-0.000144462,-9.065628e-05,3,1
-0.0001734716,-0.0001114006,3,1
-0.0001945401,-0.0001300382,3,1
-0.000208964,-0.0001464067,3,1
-0.0002123673,-0.0001622891,3,1
-0.0002042641,-0.000176875,3,1
-0.0001943781,-0.0001895161,3,1
-0.0001947022,-0.0001968091,3,1
-0.0002144742,-0.0001964849,3,1
-0.0002525595,-0.0001922712,3,1
-0.0002972895,-0.0001864369,3,1
-0.0003347266,-0.0001797922,3,1
-0.0003553089,-0.0001702304,3,1
-0.0003582261,-0.0001583996,3,1
-0.0003485022,-0.0001477033,3,1
-0.0003284061,-0.0001433275,3,1
-0.0003016653,-0.0001481895,3,1
-0.0002750866,-0.0001566169,3,1
-0.0002506147,-0.0001635857,3,1
-0.0002334358,-0.0001639098,3,1
-0.0002207947,-0.0001528894,3,1
-0.0002057227,-0.0001212866,3,1
-0.0001814128,-6.537409e-05,3,1
-0.0001496481,8.689758e-06,3,1
-0.0001152902,8.534666e-05,3,1
-8.465986e-05,0.0001445005,3,1
-5.548811e-05,0.0001660552,3,1
-2.955766e-05,0.0001441764,3,1
-4.761664e-06,8.518459e-05,3,1
2.035846e-05,4.244267e-07,3,1
5.309566e-05,-9.179074e-05,3,1
9.053275e-05,-0.0001723372,3,1
0.0001240803,-0.0002285739,3,1
0.0001391524,-0.0002570974,3,1
0.000128294,-0.0002645523,3,1
9.150514e-05,-0.000256287,3,1
3.883391e-05,-0.0002397564,3,1
-1.108221e-05,-0.0002185258,3,1
-4.138842e-05,-0.0001950263,3,1
-4.738484e-05,-0.0001697442,3,1
-3.506788e-05,-0.0001462447,3,1
-1.221667e-05,-0.0001311726,3,1
2.01964e-05,-0.0001289037,3,1
6.78436e-05,-0.0001387897,3,1
0.0001329939,-0.0001546721,3,1
0.0002025199,-0.000171851,3,1
0.0002501671,-0.00018433,3,1
0.0002592428,-0.0001857886,3,1
0.0002344468,-0.0001724993,3,1
0.0001973338,-0.0001452723,3,1
0.0001675138,-0.0001065387,3,1
0.0001496866,-6.423963e-05,3,1
0.0001406109,-2.356124e-05,3,1
0.0001423936,1.290346e-05,3,1
0.0001590864,4.839576e-05,3,1
0.0001931201,8.939829e-05,3,1
0.0002376881,0.0001409351,3,1
0.0002814457,0.0001981441,3,1
0.000314345,0.0002485465,3,1
0.000329255,0.0002741528,3,1
0.0003229345,0.0002684805,3,1
0.0002986247,0.0002444948,3,1
0.0002652392,0.0002247229,3,1
0.0002318537,0.0002303951,3,1
0.0002008992,0.000274801,3,1
0.0001701068,0.0003440029,3,1
0.0001380179,0.0004059119,3,1
0.0001054428,0.0004384871,3,1
7.805372e-05,0.0004344354,3,1
6.314371e-05,0.0004023465,3,1
5.763349e-05,0.0003553475,3,1
5.374392e-05,0.0003041349,3,1
4.920609e-05,0.000259891,3,1
4.839576e-05,0.0002312055,3,1
6.087479e-05,0.0002193747,3,1
8.583286e-05,0.000222616,3,1
0.0001122495,0.0002373639,3,1
0.0001289422,0.0002590807,3,1
0.000125863,0.0002840388,3,1
9.377406e-05,0.0002966799,3,1
3.60788e-05,0.0002869559,3,1
-2.647842e-05,0.0002495189,3,1
-7.428769e-05,0.0001876099,3,1
-9.357346e-05,0.0001083599,3,1
-8.093236e-05,2.165498e-05,3,1
-3.717473e-05,-6.375344e-05,3,1
2.538249e-05,-0.0001428413,3,1
8.275361e-05,-0.0002109087,3,1
0.0001080358,-0.0002653627,3,1
7.610894e-05,-0.0003063652,3,1
-2.064406e-05,-0.0003342404,3,1
-0.0001663408,-0.0003481781,3,1
-0.0003219235,-0.0003489884,3,1
-0.0004408794,-0.0003350507,3,1
-0.0004880404,-0.0002979378,3,1
-0.000454817,-0.0002292221,3,1
-0.0003611433,-0.0001289037,3,1
-0.000241377,-7.678839e-06,3,1
-0.0001269589,0.0001130598,3,1
-3.474375e-05,0.0002070577,3,1
2.619281e-05,0.0002543808,3,1
5.390598e-05,0.0002453052,3,1
5.714729e-05,0.0001830721,3,1
5.098881e-05,9.004655e-05,3,1
4.77475e-05,-2.006553e-06,3,1
4.677511e-05,-7.347736e-05,3,1
4.045456e-05,-0.000112373,3,1
2.149292e-05,-0.0001173971,3,1
-6.544382e-06,-9.308726e-05,3,1
-3.393342e-05,-4.171256e-05,3,1
-5.127441e-05,3.60788e-05,3,1
-5.419158e-05,0.0001300767,3,1
-4.722278e-05,0.0002120818,3,1
-3.863332e-05,0.0002519498,3,1
-3.506788e-05,0.0002357433,3,1
-3.879538e-05,0.0001720516,3,1
-5.013995e-05,8.875003e-05,3,1
-6.44017e-05,1.209313e-05,3,1
-7.007399e-05,-4.203669e-05,3,1
-5.483985e-05,-6.974985e-05,3,1
-1.610624e-05,-7.720486e-05,3,1
4.304761e-05,-7.688073e-05,3,1
0.0001137081,-7.882551e-05,3,1
0.0001837203,-8.628052e-05,3,1
0.0002384984,-9.600444e-05,3,1
0.0002645909,-0.0001026491,3,1
0.0002568118,-0.0001052422,3,1
0.0002188885,-0.0001032974,3,1
0.0001633001,-0.0001003802,3,1
0.0001004187,-9.746302e-05,3,1
4.061663e-05,-9.422172e-05,3,1
-4.761664e-06,-8.838737e-05,3,1
-3.296103e-05,-8.093236e-05,3,1
-4.868137e-05,-7.104638e-05,3,1
-5.419158e-05,-5.791909e-05,3,1
-4.074016e-05,-4.074016e-05,3,1
2.369211e-06,-2.453363e-05,3,1
7.497447e-05,-1.286493e-05,3,1
0.0001576278,-1.092015e-05,3,1
0.0002256952,-2.129233e-05,3,1
0.0002626462,-3.960571e-05,3,1
0.0002665357,-5.743289e-05,3,1
0.0002453052,-6.731888e-05,3,1
0.0002125679,-6.764301e-05,3,1
0.0001735102,-5.565017e-05,3,1
0.0001278078,-3.279896e-05,3,1
7.30297e-05,-6.544382e-06,3,1
1.387585e-05,1.290346e-05,3,1
-4.203669e-05,1.776542e-05,3,1
-8.352541e-05,1.063454e-05,3,1
-0.0001067007,-3.465141e-06,3,1
-0.0001102662,-1.578211e-05,3,1
-9.730096e-05,-1.805102e-05,3,1
-7.137051e-05,-5.57199e-06,3,1
-3.587821e-05,2.035846e-05,3,1
-1.034161e-06,5.260946e-05,3,1
2.035846e-05,8.194328e-05,3,1
2.035846e-05,0.00010366,3,1
3.503668e-06,0.0001161391,3,1
-1.950961e-05,0.0001200286,3,1
-4.203669e-05,0.0001235941,3,1
-5.808115e-05,0.000135749,3,1
-6.683268e-05,0.0001620036,3,1
-7.039812e-05,0.0001989545,3,1
-7.493595e-05,0.000235095,3,1
-8.336335e-05,0.0002525981,3,1
-9.486997e-05,0.0002397949,3,1
-0.0001042698,0.000195227,3,1
-0.0001128592,0.0001253768,3,1
-0.0001259865,4.385793e-05,3,1
-0.0001496481,-3.604027e-05,3,1
-0.0001885437,-0.0001029732,3,1
-0.0002370013,-0.0001546721,3,1
-0.0002888622,-0.0001950263,3,1
-0.0003334301,-0.0002279256,3,1
-0.0003651949,-0.0002579077,3,1
-0.0003849669,-0.0002830278,3,1
-0.0003956632,-0.0002989102,3,1
-0.000395339,-0.0002950206,3,1
-0.0003723258,-0.0002635799,3,1
-0.0003248407,-0.0002068571,3,1
-0.0002656868,-0.0001363587,3,1
-0.0002083157,-6.877746e-05,3,1
-0.0001536997,-9.623623e-06,3,1
-9.519411e-05,4.434413e-05,3,1
-3.134038e-05,0.0001012291,3,1
3.056858e-05,0.000160545,3,1
8.064677e-05,0.0002094887,3,1
0.0001075496,0.0002354192,3,1
0.0001030118,0.0002286124,3,1
6.719535e-05,0.0001893926,3,1
9.338019e-06,0.0001310491,3,1
-4.835724e-05,6.816773e-05,3,1
-8.530812e-05,1.322759e-05,3,1
-8.611845e-05,-2.89094e-05,3,1
-5.111234e-05,-5.872941e-05,3,1
1.160693e-05,-7.639453e-05,3,1
8.534666e-05,-8.368748e-05,3,1
0.0001517934,-8.676672e-05,3,1
0.0002008992,-9.535618e-05,3,1
0.0002328261,-0.0001114006,3,1
0.0002513016,-0.0001336036,3,1
0.000259729,-0.0001549962,3,1
0.0002555152,-0.0001676373,3,1
0.0002386605,-0.0001699062,3,1
0.0002107852,-0.0001648822,3,1
0.0001773998,-0.0001574272,3,1
0.0001514693,-0.0001514308,3,1
0.0001526038,-0.0001535376,3,1
0.0001931201,-0.0001605064,3,1
0.0002634565,-0.0001677994,3,1
0.0003362238,-0.0001723372,3,1
0.000373985,-0.0001741199,3,1
0.0003559958,-0.0001734716,3,1
0.0002879283,-0.0001716889,3,1
0.0001957132,-0.0001733096,3,1
0.0001161391,-0.0001830335,3,1
7.497447e-05,-0.0001995642,3,1
7.853991e-05,-0.0002180396,3,1
0.0001158149,-0.0002232257,3,1
0.0001678379,-0.0002047502,3,1
0.0002149989,-0.0001546721,3,1
0.0002467637,-6.958779e-05,3,1
0.0002639427,4.402e-05,3,1
0.0002652392,0.0001744826,3,1
0.0002469258,0.0002973281,3,1
0.0002078681,0.0003971604,3,1
0.00015309,0.0004642555,3,1
9.750156e-05,0.0004961824,3,1
5.228533e-05,0.0004924549,3,1
2.116879e-05,0.00046069,3,1
9.175954e-06,0.0004154738,3,1
2.181705e-05,0.0003694472,3,1
6.314371e-05,0.0003289309,3,1
0.0001278078,0.000299597,3,1
0.0002007372,0.0002858215,3,1
0.0002584324,0.0002872801,3,1
0.0002777182,0.0003028383,3,1
0.0002475741,0.0003273102,3,1
0.0001761032,0.0003525924,3,1
8.437427e-05,0.0003666921,3,1
4.244267e-07,0.0003676645,3,1
-5.840528e-05,0.0003576164,3,1
-9.098041e-05,0.0003360618,3,1
-0.0001088076,0.0003039728,3,1
-0.0001219349,0.0002684805,3,1
-0.0001365208,0.0002412535,3,1
-0.0001491618,0.0002333123,3,1
-0.0001536997,0.0002448189,3,1
-0.0001486757,0.0002666978,3,1
-0.0001430034,0.0002832284,3,1
-0.0001477033,0.0002814457,3,1
-0.0001686097,0.000254867,3,1
-0.0002042641,0.0002012234,3,1
-0.0002533699,0.0001250527,3,1
-0.000315765,4.013043e-05,3,1
-0.0003867496,-3.992984e-05,3,1
-0.0004483344,-0.0001021629,3,1
-0.0004778303,-0.0001431655,3,1
-0.0004645409,-0.0001640719,3,1
-0.0004134903,-0.0001690959,3,1
-0.000333106,-0.0001658546,3,1
-0.0002392702,-0.000161965,3,1
-0.0001514308,-0.0001588858,3,1
-8.757704e-05,-0.0001614788,3,1
-5.775702e-05,-0.0001713648,3,1
-5.986387e-05,-0.0001877334,3,1
-7.769106e-05,-0.000208964,3,1
-9.033215e-05,-0.0002332737,3,1
-8.465986e-05,-0.0002564491,3,1
-5.921561e-05,-0.0002771934,3,1
-2.194059e-05,-0.0002964792,3,1
1.306552e-05,-0.0003144685,3,1
3.413401e-05,-0.0003297026,3,1
3.299956e-05,-0.0003379679,3,1
1.014835e-05,-0.0003322956,3,1
-2.437157e-05,-0.0003115513,3,1
-5.451572e-05,-0.0002827037,3,1
-6.893953e-05,-0.0002494803,3,1
-6.44017e-05,-0.000216419,3,1
-4.560212e-05,-0.0001872472,3,1
-2.583016e-05,-0.0001655305,3,1
-1.367526e-05,-0.0001528894,3,1
-1.010982e-05,-0.0001467309,3,1
-1.545797e-05,-0.000144624,3,1
-2.664048e-05,-0.0001447861,3,1
-3.458168e-05,-0.0001457585,3,1
-3.522994e-05,-0.000144462,3,1
-2.307504e-05,-0.0001402483,3,1
3.665733e-06,-0.0001332795,3,1
4.239934e-05,-0.0001248521,3,1
8.826383e-05,-0.0001170729,3,1
0.0001305629,-0.0001088076,3,1
0.0001613553,-9.973194e-05,3,1
0.0001785342,-8.773911e-05,3,1
0.0001874478,-6.845333e-05,3,1
0.0001945787,-4.268495e-05,3,1
0.000200251,-1.513384e-05,3,1
0.0001876099,9.013889e-06,3,1
0.0001466074,3.008238e-05,3,1
7.805372e-05,4.904402e-05,3,1
3.017472e-06,7.157111e-05,3,1
-4.932962e-05,0.0001054428,3,1
-6.083626e-05,0.0001521176,3,1
-2.955766e-05,0.000207706,3,1
3.202716e-05,0.0002655633,3,1
0.0001056048,0.0003136967,3,1
0.0001673517,0.0003407616,3,1
0.0002043026,0.0003350894,3,1
0.0002114335,0.0002971661,3,1
0.0001940925,0.0002415777,3,1
0.0001611932,0.000187772,3,1
0.0001235941,0.0001498487,3,1
9.134307e-05,0.0001349386,3,1
7.221937e-05,0.0001454729,3,1
6.800567e-05,0.0001751309,3,1
7.853991e-05,0.000215161,3,1
0.0001046324,0.0002581083,3,1
0.0001360731,0.0002974902,3,1
0.0001587623,0.0003266619,3,1
0.0001610312,0.0003376824,3,1
0.000140773,0.0003235827,3,1
9.847395e-05,0.0002889007,3,1
3.996837e-05,0.0002451431,3,1
-2.485776e-05,0.0002036544,3,1
-8.433573e-05,0.0001684862,3,1
-0.0001287416,0.0001430419,3,1
-0.00015451,0.0001294284,3,1
-0.0001583996,0.0001242423,3,1
-0.0001410586,0.0001195424,3,1
-0.0001044318,0.000106091,3,1
-5.370539e-05,7.870197e-05,3,1
-1.358292e-06,3.850978e-05,3,1
3.348575e-05,-4.437533e-06,3,1
3.429608e-05,-4.268495e-05,3,1
-5.89612e-06,-7.493595e-05,3,1
-7.914964e-05,-0.0001024871,3,1
-0.00015451,-0.0001232314,3,1
-0.0002028055,-0.0001332795,3,1
-0.0002097743,-0.0001298761,3,1
-0.0001791439,-0.0001193418,3,1
-0.0001300382,-0.0001092938,3,1
-8.222889e-05,-0.0001099421,3,1
-4.85193e-05,-0.0001216107,3,1
-4.025397e-05,-0.0001433275,3,1
-5.710876e-05,-0.0001703924,3,1
-8.352541e-05,-0.0001998883,3,1
-9.66527e-05,-0.0002332737,3,1
-8.547019e-05,-0.0002715212,3,1
-6.051213e-05,-0.0003156029,3,1
-4.38194e-05,-0.0003668155,3,1
-4.787104e-05,-0.0004202971,3,1
-6.942573e-05,-0.0004679443,3,1
-9.373552e-05,-0.0005029504,3,1
-0.0001016767,-0.0005204534,3,1
-7.866345e-05,-0.000519481,3,1
-2.275091e-05,-0.0005016539,3,1
5.487838e-05,-0.0004698891,3,1
0.0001328318,-0.0004264556,3,1
0.000187934,-0.000370381,3,1
0.0002008992,-0.0003031239,3,1
0.0001701068,-0.0002280877,3,1
0.0001090082,-0.0001514308,3,1
4.175109e-05,-7.898758e-05,3,1
-7.840905e-06,-1.20546e-05,3,1
-2.615429e-05,5.277153e-05,3,1
-1.237873e-05,0.0001195424,3,1
1.938607e-05,0.0001942546,3,1
5.358185e-05,0.0002785285,3,1
8.210535e-05,0.0003684748,3,1
0.0001069013,0.0004650658,3,1
0.0001300767,0.0005713807,3,1
0.0001509831,0.000683692,3,1
0.0001654069,0.0007809313,3,1
0.0001725378,0.0008384645,3,1
0.000175455,0.0008348991,3,1
0.0001761032,0.0007640765,3,1
0.000178048,0.0006420412,3,1
0.0001882582,0.0004981271,3,1
0.0002156472,0.0003676645,3,1
0.0002663737,0.000274639,3,1
0.000334117,0.0002302331,3,1
0.0003987811,0.000235095,3,1
0.000433301,0.0002851732,3,1
0.000416122,0.0003679886,3,1
0.0003462718,0.0004634451,3,1
0.0002378501,0.000544964,3,1
0.0001153287,0.0005888838,3,1
6.420843e-06,0.0005871011,3,1
-6.699475e-05,0.0005460985,3,1
-9.908367e-05,0.0004762483,3,1
-9.908367e-05,0.0003890571,3,1
-8.125649e-05,0.0002929524,3,1
-5.824322e-05,0.0001923098,3,1
-3.393342e-05,9.020862e-05,3,1
-1.173047e-05,-7.192643e-06,3,1
6.744974e-06,-8.773911e-05,3,1
1.97102e-05,-0.0001363587,3,1
2.81376e-05,-0.0001451102,3,1
3.55926e-05,-0.0001195039,3,1
3.737532e-05,-7.850138e-05,3,1
2.052053e-05,-3.522994e-05,3,1
-2.826114e-05,6.744974e-06,3,1
-0.0001062146,4.547859e-05,3,1
-0.0002052365,7.52986e-05,3,1
-0.0003040963,9.037068e-05,3,1
-0.0003788084,8.097089e-05,3,1
-0.000415111,4.142696e-05,3,1
-0.0004078181,-3.134038e-05,3,1
-0.0003543365,-0.0001284175,3,1
-0.0002606628,-0.0002357047,3,1
-0.0001421931,-0.0003318095,3,1
-2.42095e-05,-0.0004010113,3,1
6.995045e-05,-0.0004394208,3,1
0.0001227837,-0.0004580583,3,1
0.0001351007,-0.0004706994,3,1
0.000120839,-0.0004841508,3,1
9.863601e-05,-0.0004976023,3,1
7.772959e-05,-0.0005084606,3,1
5.844381e-05,-0.0005133225,3,1
3.656499e-05,-0.0005123502,3,1
7.23117e-06,-0.0005079744,3,1
-2.89094e-05,-0.0005060296,3,1
-6.667062e-05,-0.0005154294,3,1
-9.470791e-05,-0.0005408737,3,1
-0.0001041077,-0.0005760419,3,1
-9.66527e-05,-0.0006044033,3,1
-8.239095e-05,-0.0006128307,3,1
-7.412562e-05,-0.0005932208,3,1
-7.769106e-05,-0.0005473563,3,1
-9.649064e-05,-0.000484637,3,1
-0.0001267968,-0.0004207833,3,1
-0.0001580754,-0.0003650328,3,1
-0.0001749302,-0.0003246786,3,1
-0.0001720131,-0.0002968033,3,1
-0.0001493239,-0.0002731418,3,1
-0.0001152902,-0.0002444563,3,1
-8.02841e-05,-0.0002037779,3,1
-5.240886e-05,-0.0001536997,3,1
-3.21507e-05,-0.0001021629,3,1
-1.059602e-05,-5.565017e-05,3,1
2.01964e-05,-1.934754e-05,3,1
5.439218e-05,4.47606e-06,3,1
7.886404e-05,1.64689e-05,3,1
9.053275e-05,2.651694e-05,3,1
9.361199e-05,4.337174e-05,3,1
9.296373e-05,6.914012e-05,3,1
8.388807e-05,0.0001020394,3,1
5.844381e-05,0.0001352628,3,1
1.22552e-05,0.0001584381,3,1
-3.879538e-05,0.0001642725,3,1
-6.829127e-05,0.0001527658,3,1
-5.824322e-05,0.000128456,3,1
-9.299493e-06,9.879808e-05,3,1
6.541262e-05,7.497447e-05,3,1
0.0001427178,6.946425e-05,3,1
0.0002038164,8.84259e-05,3,1
0.0002477361,0.0001305629,3,1
0.0002814457,0.0001827479,3,1
0.000307052,0.0002265056,3,1
0.0003138588,0.0002467637,3,1
0.0002926282,0.0002406053,3,1
0.0002406053,0.0002198609,3,1
0.0001696206,0.0001994406,3,1
0.0001002567,0.0001905271,3,1
5.244739e-05,0.0001979821,3,1
3.332369e-05,0.0002172679,3,1
3.170304e-05,0.0002433604,3,1
3.575467e-05,0.0002713977,3,1
3.316162e-05,0.0002934386,3,1
1.727922e-05,0.0003018659,3,1
-9.461558e-06,0.0002955454,3,1
-3.474375e-05,0.0002764217,3,1
-4.333321e-05,0.0002542187,3,1
-2.46957e-05,0.0002404432,3,1
1.727922e-05,0.0002428742,3,1
6.444023e-05,0.0002603772,3,1
9.458438e-05,0.0002809595,3,1
9.507057e-05,0.0002903593,3,1
7.157111e-05,0.0002825802,3,1
3.786152e-05,0.0002600531,3,1
1.209313e-05,0.0002331503,3,1
2.693341e-06,0.0002115956,3,1
1.095867e-05,0.0001970097,3,1
2.781346e-05,0.0001808031,3,1
3.769945e-05,0.0001566554,3,1
2.408596e-05,0.0001286181,3,1
-1.724069e-05,0.0001026876,3,1
-7.315322e-05,7.983644e-05,3,1
-0.0001277692,5.763349e-05,3,1
-0.0001702304,3.283749e-05,3,1
-0.0001940539,9.175954e-06,3,1
-0.0001972953,-6.382317e-06,3,1
-0.0001877334,-8.327101e-06,3,1
-0.0001752544,5.934648e-06,3,1
-0.0001640719,3.429608e-05,3,1
-0.0001585616,6.735741e-05,3,1
-0.0001608306,9.069481e-05,3,1
-0.0001690959,9.280167e-05,3,1
-0.0001810887,7.059871e-05,3,1
-0.0001964849,2.943412e-05,3,1
-0.000216581,-2.09682e-05,3,1
-0.0002399184,-6.893953e-05,3,1
-0.0002648765,-0.0001045939,3,1
-0.000286107,-0.0001188556,3,1
-0.0002987481,-0.0001114006,3,1
-0.0002992343,-8.352541e-05,3,1
-0.0002841623,-4.106429e-05,3,1
-0.0002553146,7.879432e-06,3,1
-0.000224036,4.758544e-05,3,1
-0.0002008607,6.946425e-05,3,1
-0.0001930815,7.157111e-05,3,1
-0.0001943781,5.585077e-05,3,1
-0.0001951884,2.311357e-05,3,1
-0.0001801163,-2.015787e-05,3,1
-0.0001387897,-6.456377e-05,3,1
-6.991193e-05,-9.568031e-05,3,1
2.116879e-05,-9.730096e-05,3,1
0.0001244044,-6.229485e-05,3,1
0.0002234263,3.665733e-06,3,1
0.0003062417,7.983644e-05,3,1
0.0003679886,0.0001419075,3,1
0.0004068843,0.0001733481,3,1
0.0004182289,0.0001723757,3,1
0.0003940812,0.0001469315,3,1
0.000331686,0.0001065772,3,1
0.0002436845,6.379197e-05,3,1
0.0001508211,2.700314e-05,3,1
7.805372e-05,-1.844488e-06,3,1
4.709924e-05,-2.339918e-05,3,1
6.233338e-05,-3.733679e-05,3,1
0.0001075496,-4.300908e-05,3,1
0.0001547106,-4.090223e-05,3,1
0.0001869616,-3.652646e-05,3,1
0.000207706,-3.652646e-05,3,1
0.0002316917,-3.895745e-05,3,1
0.0002652392,-3.717473e-05,3,1
0.0002981384,-2.680255e-05,3,1
0.0003145071,-8.651231e-06,3,1
0.000307052,1.792748e-05,3,1
0.0002832284,4.985435e-05,3,1
0.000259891,8.502253e-05,3,1
0.0002496809,0.0001216493,3,1
0.0002511395,0.0001539003,3,1
0.0002516257,0.0001769136,3,1
0.0002378501,0.0001871237,3,1
0.0002088404,0.000187934,3,1
0.0001644345,0.0001837203,3,1
0.0001083599,0.0001736723,3,1
5.034055e-05,0.000158114,3,1
4.151929e-06,0.0001389903,3,1
-2.485776e-05,0.0001179218,3,1
-4.203669e-05,9.247754e-05,3,1
-5.532604e-05,5.974033e-05,3,1
-6.81292e-05,2.003433e-05,3,1
-8.206682e-05,-2.307504e-05,3,1
-9.470791e-05,-6.893953e-05,3,1
-9.762509e-05,-0.000119666,3,1
-7.801519e-05,-0.0001715269,3,1
-3.182657e-05,-0.000216419,3,1
2.927205e-05,-0.0002493182,3,1
7.983644e-05,-0.0002718453,3,1
9.652917e-05,-0.0002875656,3,1
6.995045e-05,-0.0003002067,3,1
1.031041e-05,-0.0003055549,3,1
-5.69467e-05,-0.000295993,3,1
-0.0001133454,-0.0002666592,3,1
-0.0001600202,-0.0002241981,3,1
-0.0002034537,-0.0001786577,3,1
-0.0002407288,-0.000144462,3,1
-0.0002634179,-0.0001285796,3,1
-0.0002648765,-0.000127121,3,1
-0.0002420253,-0.0001313347,3,1
-0.0001995642,-0.0001373311,3,1
-0.0001447861,-0.0001423551,3,1
-8.741498e-05,-0.0001384655,3,1
-4.009191e-05,-0.0001139937,3,1
-1.25408e-05,-5.824322e-05,3,1
-9.299493e-06,3.769945e-05,3,1
-2.583016e-05,0.0001748067,3,1
-4.916756e-05,0.000339141,3,1
-6.926366e-05,0.0005020167,3,1
-8.174268e-05,0.0006287518,3,1
-8.984595e-05,0.0006966573,3,1
-9.746302e-05,0.0006990883,3,1
-0.000107349,0.0006444722,3,1
-0.00012469,0.0005488536,3,1
-0.0001415448,0.0004339493,3,1
-0.0001489998,0.0003172622,3,1
-0.0001363587,0.0002133783,3,1
-0.0001008664,0.0001286181,3,1
-5.2733e-05,6.03886e-05,3,1
-8.813297e-06,9.106227e-07,3,1
1.371378e-05,-5.775702e-05,3,1
1.452411e-05,-0.0001165867,3,1
2.207145e-06,-0.0001703924,3,1
-1.173047e-05,-0.0002131776,3,1
-1.869928e-05,-0.0002451045,3,1
-1.432352e-05,-0.0002726556,3,1
-2.238346e-07,-0.0003003688,3,1
1.841368e-05,-0.0003259751,3,1
4.013043e-05,-0.0003434782,3,1
6.508849e-05,-0.0003496366,3,1
8.923623e-05,-0.0003439643,3,1
0.0001067393,-0.0003290543,3,1
0.000113384,-0.0003076617,3,1
0.0001088461,-0.0002817312,3,1
9.896015e-05,-0.0002532078,3,1
9.101894e-05,-0.0002220912,3,1
9.037068e-05,-0.0001896782,3,1
0.000103498,-0.0001577513,3,1
0.000128456,-0.0001269589,3,1
0.0001574657,-9.989401e-05,3,1
0.0001833962,-7.623246e-05,3,1
0.000200251,-4.722278e-05,3,1
0.0002060853,-2.168618e-06,3,1
0.0002031682,6.265751e-05,3,1
0.0001914995,0.0001406109,3,1
0.0001720516,0.0002130541,3,1
0.0001576278,0.0002652392,3,1
0.000158114,0.000289387,3,1
0.0001798307,0.0002869559,3,1
0.0002161334,0.0002658874,3,1
0.0002581083,0.0002384984,3,1
0.0002955454,0.0002111094,3,1
0.0003151553,0.0001832341,3,1
0.0003106175,0.0001566554,3,1
0.0002783665,0.0001323456,3,1
0.0002205092,0.0001064152,3,1
0.0001503349,7.789165e-05,3,1
8.648112e-05,5.017848e-05,3,1
4.256141e-05,2.943412e-05,3,1
2.359977e-05,1.64689e-05,3,1
2.862379e-05,9.986281e-06,3,1
4.531652e-05,8.203562e-06,3,1
4.807163e-05,6.90704e-06,3,1
9.175954e-06,4.47606e-06,3,1
-7.963584e-05,-3.303076e-06,3,1
-0.0002026434,-1.318906e-05,3,1
-0.0003267854,-2.453363e-05,3,1
-0.0004146248,-3.522994e-05,3,1
-0.0004390967,-4.155049e-05,3,1
-0.000397608,-4.219875e-05,3,1
-0.0003115513,-4.009191e-05,3,1
-0.0002199844,-3.863332e-05,3,1
-0.0001572651,-4.187462e-05,3,1
-0.0001381414,-5.143648e-05,3,1
-0.0001517549,-7.072225e-05,3,1
-0.0001754164,-9.924574e-05,3,1
-0.0001853024,-0.0001324691,3,1
-0.0001689338,-0.0001614788,3,1
-0.0001332795,-0.0001815749,3,1
-9.697683e-05,-0.0001947022,3,1
-8.271508e-05,-0.0002024813,3,1
-0.0001037836,-0.0002092881,3,1
-0.0001512687,-0.0002156086,3,1
-0.00019924,-0.0002224154,3,1
-0.0002206326,-0.0002235498,3,1
-0.000204102,-0.0002159328,3,1
-0.0001559686,-0.0002063709,3,1
-9.584238e-05,-0.000201671,3,1
-4.236082e-05,-0.0002034537,3,1
-9.461558e-06,-0.0002081536,3,1
-3.627206e-06,-0.0002079916,3,1
-1.62683e-05,-0.000196647,3,1
-3.506788e-05,-0.0001715269,3,1
-4.689865e-05,-0.0001326312,3,1
-4.576419e-05,-8.141856e-05,3,1
-3.522994e-05,-2.177852e-05,3,1
-2.550602e-05,3.786152e-05,3,1
-2.550602e-05,8.712937e-05,3,1
-4.252288e-05,0.0001169494,3,1
-7.65566e-05,0.0001222976,3,1
-0.0001139937,0.0001044704,3,1
-0.0001355484,7.173317e-05,3,1
-0.0001255003,3.348575e-05,3,1
-8.158062e-05,1.720949e-06,3,1
-1.092015e-05,-1.448558e-05,3,1
7.367795e-05,-1.416145e-05,3,1
0.0001597346,-3.951337e-06,3,1
0.0002344468,4.638125e-06,3,1
0.0002901973,2.207145e-06,3,1
0.0003219621,-1.837515e-05,3,1
0.0003295791,-5.824322e-05,3,1
0.0003180725,-0.0001133454,3,1
0.0003013798,-0.0001723372,3,1
0.0002940868,-0.0002193361,3,1
0.0002957075,-0.0002465631,3,1
0.0002957075,-0.0002569353,3,1
0.0002788527,-0.0002629317,3,1
0.0002396328,-0.000271035,3,1
0.0001876099,-0.0002768693,3,1
0.0001409351,-0.0002716832,3,1
0.0001086841,-0.0002452666,3,1
9.393612e-05,-0.000194216,3,1
9.069481e-05,-0.0001229073,3,1
9.588091e-05,-4.203669e-05,3,1
0.0001012291,3.575467e-05,3,1
0.0001026876,0.0001039842,3,1
0.0001081979,0.0001662173,3,1
0.0001231079,0.0002333123,3,1
0.0001398006,0.000316776,3,1
0.0001474177,0.0004297355,3,1
0.0001391524,0.0005762426,3,1
0.0001161391,0.0007496527,3,1
8.518459e-05,0.0009259799,3,1
5.439218e-05,0.001059198,3,1
2.635488e-05,0.001108142,3,1
2.369211e-06,0.001059846,3,1
-1.918548e-05,0.000933597,3,1
-3.701266e-05,0.0007669937,3,1
-4.884343e-05,0.0006015248,3,1
-4.85193e-05,0.0004632831,3,1
-3.733679e-05,0.0003553475,3,1
-3.166451e-05,0.0002663737,3,1
-4.787104e-05,0.000187772,3,1
-9.033215e-05,0.0001112771,3,1
-0.0001540238,3.786152e-05,3,1
-0.0002297083,-2.339918e-05,3,1
-0.0003047445,-6.083626e-05,3,1
-0.0003643846,-6.91016e-05,3,1
-0.0003929081,-5.289507e-05,3,1
-0.0003856151,-1.805102e-05,3,1
-0.0003494746,2.732727e-05,3,1
-0.0002968033,7.546067e-05,3,1
-0.0002326255,0.0001218114,3,1
-0.0001574272,0.000165569,3,1
-7.347736e-05,0.0002059233,3,1
6.744974e-06,0.0002394708,3,1
6.152305e-05,0.0002641047,3,1
7.740546e-05,0.0002704253,3,1
5.423012e-05,0.0002550291,3,1
8.203562e-06,0.0002221298,3,1
-3.830919e-05,0.0001848548,3,1
-6.748094e-05,0.0001597346,3,1
-6.829127e-05,0.0001553589,3,1
-4.85193e-05,0.0001689724,3,1
-2.712668e-05,0.0001919856,3,1
-2.404744e-05,0.0002073819,3,1
-4.916756e-05,0.0002046267,3,1
-9.535618e-05,0.0001796687,3,1
-0.0001527273,0.0001294284,3,1
-0.0002081536,5.260946e-05,3,1
-0.0002439701,-4.349527e-05,3,1
-0.000243808,-0.0001522411,3,1
-0.0001968091,-0.0002634179,3,1
-9.697683e-05,-0.000360495,3,1
4.402e-05,-0.0004232143,3,1
0.0001906891,-0.0004390967,3,1
0.0003017039,-0.0004147869,3,1
0.0003452995,-0.0003724878,3,1
0.0003136967,-0.0003340784,3,1
0.0002278021,-0.0003130099,3,1
0.0001229458,-0.0003078238,3,1
3.526847e-05,-0.0003149546,3,1
-8.813297e-06,-0.0003279199,3,1
-2.978945e-06,-0.0003441264,3,1
3.769945e-05,-0.0003617915,3,1
8.648112e-05,-0.0003788084,3,1
0.000118408,-0.0003873979,3,1
0.0001252147,-0.0003721637,3,1
0.0001122495,-0.0003238683,3,1
8.858796e-05,-0.0002439701,3,1
6.881599e-05,-0.0001465688,3,1
5.795762e-05,-6.083626e-05,3,1
5.471631e-05,-1.837515e-05,3,1
5.504044e-05,-3.26369e-05,3,1
5.341979e-05,-9.632857e-05,3,1
5.212327e-05,-0.0001909747,3,1
5.633696e-05,-0.0002917793,3,1
6.83298e-05,-0.0003718396,3,1
8.323981e-05,-0.0004147869,3,1
0.0001012291,-0.0004168937,3,1
0.0001211631,-0.0003873979,3,1
0.0001419075,-0.000340561,3,1
0.0001667035,-0.0002904828,3,1
0.0001950649,-0.0002446183,3,1
0.0002171058,-0.0002102605,3,1
0.0002166196,-0.0001888679,3,1
0.0001892305,-0.0001741199,3,1
0.0001448246,-0.0001517549,3,1
9.523264e-05,-0.0001057284,3,1
5.61749e-05,-3.279896e-05,3,1
4.207521e-05,5.779555e-05,3,1
5.56887e-05,0.0001551968,3,1
9.053275e-05,0.0002490327,3,1
0.0001338042,0.0003352514,3,1
0.000170431,0.0004172565,3,1
0.0001867996,0.0005037994,3,1
0.0001814514,0.0005956905,3,1
0.0001586002,0.0006874196,3,1
0.000128456,0.0007708832,3,1
9.977047e-05,0.0008301992,3,1
7.643307e-05,0.0008387887,3,1
5.455425e-05,0.0007841726,3,1
2.846173e-05,0.0006742922,3,1
-7.516774e-06,0.0005310264,3,1
-5.419158e-05,0.0003833848,3,1
-0.0001079973,0.0002555152,3,1
-0.0001613168,0.000163138,3,1
-0.0002010227,0.0001104668,3,1
-0.0002169052,8.761557e-05,3,1
-0.0002088019,8.064677e-05,3,1
-0.0001896782,7.837785e-05,3,1
-0.0001736337,7.20573e-05,3,1
-0.0001645581,5.649903e-05,3,1
-0.0001618029,2.992031e-05,3,1
-0.0001627754,-9.623623e-06,3,1
-0.000169258,-5.743289e-05,3,1
-0.0001814128,-0.0001067007,3,1
-0.0001945401,-0.0001515928,3,1
-0.000204102,-0.0001883817,3,1
-0.0002097743,-0.000216419,3,1
-0.0002123673,-0.0002361909,3,1
-0.0002071812,-0.0002491561,3,1
-0.0001859507,-0.0002569353,3,1
-0.0001457585,-0.0002606628,3,1
-9.649064e-05,-0.0002600145,3,1
-4.462973e-05,-0.0002549905,3,1
1.095867e-05,-0.000248832,3,1
6.881599e-05,-0.0002452666,3,1
0.0001255389,-0.0002468872,3,1
0.0001723757,-0.0002545043,3,1
0.00019782,-0.000266011,3,1
0.0001932822,-0.0002783279,3,1
0.0001587623,-0.0002854588,3,1
0.0001070634,-0.0002870794,3,1
5.714729e-05,-0.0002838381,3,1
2.667901e-05,-0.0002758969,3,1
2.278944e-05,-0.0002664971,3,1
3.899597e-05,-0.0002585559,3,1
6.233338e-05,-0.0002580697,3,1
7.853991e-05,-0.0002614731,3,1
8.226741e-05,-0.0002558008,3,1
7.513654e-05,-0.0002272773,3,1
6.006447e-05,-0.0001741199,3,1
4.158902e-05,-0.0001068628,3,1
2.457216e-05,-4.576419e-05,3,1
1.54965e-05,-6.868513e-06,3,1
1.9224e-05,9.66215e-06,3,1
3.93201e-05,5.448452e-06,3,1
7.043665e-05,-1.075808e-05,3,1
0.0001056048,-3.393342e-05,3,1
0.0001328318,-5.856735e-05,3,1
0.0001396385,-7.833932e-05,3,1
0.0001078737,-9.2439e-05,3,1
3.267542e-05,-0.0001028112,3,1
-7.461182e-05,-0.0001126972,3,1
-0.0001830335,-0.0001199901,3,1
-0.000263742,-0.0001266348,3,1
-0.0002979378,-0.0001316588,3,1
-0.0002791382,-0.0001344139,3,1
-0.0002198223,-0.0001287416,3,1
-0.0001439758,-0.0001117248,3,1
-7.169464e-05,-8.563225e-05,3,1
-1.108221e-05,-5.516398e-05,3,1
3.170304e-05,-2.437157e-05,3,1
5.439218e-05,3.503668e-06,3,1
5.844381e-05,3.024445e-05,3,1
4.612685e-05,5.504044e-05,3,1
2.554455e-05,7.789165e-05,3,1
-2.168618e-06,9.993253e-05,3,1
-4.041603e-05,0.0001224596,3,1
-9.697683e-05,0.0001485521,3,1
-0.0001640719,0.0001803169,3,1
-0.0002156086,0.0002149989,3,1
-0.0002220912,0.0002493568,3,1
-0.0001689338,0.000282094,3,1
-6.861539e-05,0.0003146691,3,1
4.871989e-05,0.0003467581,3,1
0.0001560072,0.000378685,3,1
0.0002337985,0.0004076947,3,1
0.000277232,0.000428439,3,1
0.0002872801,0.0004350837,3,1
0.0002666978,0.0004245494,3,1
0.0002208333,0.000398619,3,1
0.0001647587,0.0003640991,3,1
0.0001138702,0.0003287688,3,1
8.080883e-05,0.0002961937,3,1
7.6271e-05,0.0002688046,3,1
0.0001000946,0.0002482223,3,1
0.0001423936,0.0002342847,3,1
0.0001837203,0.0002221298,3,1
0.0002132162,0.0002067336,3,1
0.0002290986,0.000185503,3,1
0.0002299089,0.0001579519,3,1
0.0002137024,0.0001260251,3,1
0.0001757791,8.891209e-05,3,1
0.0001180839,4.434413e-05,3,1
4.904402e-05,-1.682422e-06,3,1
-1.983374e-05,-3.652646e-05,3,1
-8.174268e-05,-5.192267e-05,3,1
-0.0001289037,-4.754691e-05,3,1
-0.0001556445,-3.231277e-05,3,1
-0.0001606685,-1.934754e-05,3,1
-0.0001515928,-1.788895e-05,3,1
-0.0001421931,-2.583016e-05,3,1
-0.0001425172,-3.798505e-05,3,1
-0.0001559686,-4.819517e-05,3,1
-0.0001810887,-5.840528e-05,3,1
-0.0002073433,-7.33153e-05,3,1
-0.000223874,-9.065628e-05,3,1
-0.0002306807,-0.000104756,3,1
-0.0002279256,-0.0001180453,3,1
-0.000216581,-0.0001350622,3,1
-0.0001989159,-0.0001585616,3,1
-0.0001760647,-0.0001890299,3,1
-0.0001455964,-0.0002201465,3,1
-0.0001052422,-0.0002397564,3,1
-6.310517e-05,-0.0002423494,3,1
-3.344723e-05,-0.0002285739,3,1
-2.194059e-05,-0.0002055606,3,1
-2.194059e-05,-0.0001763888,3,1
-2.307504e-05,-0.0001412206,3,1
-2.080613e-05,-9.811128e-05,3,1
-1.837515e-05,-4.738484e-05,3,1
-1.25408e-05,1.403791e-05,3,1
8.365628e-06,8.875003e-05,3,1
5.277153e-05,0.0001761032,3,1
0.0001197045,0.0002660495,3,1
0.0001983062,0.0003454615,3,1
0.0002692908,0.0003919743,3,1
0.0003159656,0.0003897054,3,1
0.0003282826,0.0003302274,3,1
0.0003051073,0.0002219677,3,1
0.0002652392,9.247754e-05,3,1
0.0002297469,-2.46957e-05,3,1
0.0002114335,-0.0001058904,3,1
0.0002114335,-0.0001428413,3,1
0.0002240746,-0.0001431655,3,1
0.0002407673,-0.0001190177,3,1
0.0002542187,-8.368748e-05,3,1
0.0002561635,-4.592625e-05,3,1
0.0002440086,-1.010982e-05,3,1
0.0002278021,1.9224e-05,3,1
0.0002205092,4.045456e-05,3,1
0.0002240746,5.341979e-05,3,1
0.0002346088,5.828175e-05,3,1
0.0002435224,5.698522e-05,3,1
0.000244981,4.77475e-05,3,1
0.0002336365,3.056858e-05,3,1
0.0002060853,8.041497e-06,3,1
0.0001676758,-1.464765e-05,3,1
0.0001286181,-3.830919e-05,3,1
9.701536e-05,-6.083626e-05,3,1
7.384002e-05,-8.07703e-05,3,1
5.682316e-05,-9.438378e-05,3,1
3.948217e-05,-0.000107349,3,1
1.954813e-05,-0.0001256624,3,1
-7.100305e-07,-0.0001475412,3,1
-2.113026e-05,-0.0001632615,3,1
-4.38194e-05,-0.0001656925,3,1
-6.586029e-05,-0.0001528894,3,1
-8.514606e-05,-0.0001266348,3,1
-0.0001063766,-8.579432e-05,3,1
-0.0001326312,-3.231277e-05,3,1
-0.0001645581,2.619281e-05,3,1
-0.0001969711,8.323981e-05,3,1
-0.0002253326,0.000145797,3,1
-0.0002489941,0.0002227781,3,1
-0.000271197,0.000316938,3,1
-0.0002904828,0.0004300596,3,1
-0.0003044204,0.0005520949,3,1
-0.0003115513,0.0006616511,3,1
-0.0003096065,0.0007353909,3,1
-0.0002997205,0.0007608352,3,1
-0.0002746004,0.0007344186,3,1
-0.0002269532,0.0006639201,3,1
-0.0001618029,0.0005668429,3,1
-0.0001029732,0.0004597176,3,1
-7.590833e-05,0.0003572923,3,1
-9.049421e-05,0.0002683184,3,1
-0.0001394379,0.0001924718,3,1
-0.0002008607,0.0001268354,3,1
-0.0002517492,6.897806e-05,3,1
-0.0002744383,1.97102e-05,3,1
-0.000261311,-2.307504e-05,3,1
-0.0002183637,-6.035007e-05,3,1
-0.0001647201,-9.341139e-05,3,1
-0.0001238797,-0.0001258245,3,1
-0.0001136696,-0.0001585616,3,1
-0.0001357104,-0.0001875713,3,1
-0.0001726613,-0.0002110708,3,1
-0.0002003745,-0.0002303566,3,1
-0.0002018331,-0.0002476975,3,1
-0.0001812508,-0.0002690902,3,1
-0.0001553203,-0.0002997205,3,1
-0.0001412206,-0.0003423437,3,1
-0.0001477033,-0.0003945287,3,1
-0.0001728234,-0.0004484965,3,1
-0.0002071812,-0.0004992229,3,1
-0.0002384598,-0.0005463839,3,1
-0.0002515871,-0.000591276,3,1
-0.0002376495,-0.0006321164,3,1
-0.0001883817,-0.0006637191,3,1
-0.0001104282,-0.0006826808,3,1
-1.545797e-05,-0.0006907841,3,1
8.372601e-05,-0.0006896496,3,1
0.0001820997,-0.0006846256,3,1
0.0002701012,-0.0006789533,3,1
0.0003308757,-0.0006698776,3,1
0.0003436788,-0.0006556159,3,1
0.000302028,-0.0006304958,3,1
0.000225209,-0.0005916001,3,1
0.000153252,-0.0005360117,3,1
0.0001253768,-0.0004637306,3,1
0.0001560072,-0.000372974,3,1
0.0002282883,-0.0002624455,3,1
0.0003159656,-0.0001225832,3,1
0.0003932708,6.03886e-05,3,1
0.000440756,0.0002932765,3,1
0.0004542074,0.0005593878,3,1
0.0004399457,0.0008144788,3,1
0.0004094774,0.00100442,3,1
0.0003692851,0.001087559,3,1
0.0003224483,0.001054012,3,1
0.0002723701,0.0009267902,3,1
0.0002253711,0.0007515975,3,1
0.0001872858,0.0005780254,3,1
0.0001586002,0.0004384871,3,1
0.0001313732,0.0003433547,3,1
0.0001051186,0.0002866318,3,1
8.453633e-05,0.0002584324,3,1
8.46984e-05,0.0002506533,3,1
0.0001154908,0.0002553532,3,1
0.0001691344,0.0002610255,3,1
0.0002273159,0.0002613496,3,1
0.0002681563,0.000250005,3,1
0.0002754493,0.000222616,3,1
0.0002466017,0.0001788584,3,1
0.0001799928,0.0001263492,3,1
7.837785e-05,7.837785e-05,3,1
-4.965376e-05,5.001642e-05,3,1
-0.000181737,5.179914e-05,3,1
-0.000286107,7.951231e-05,3,1
-0.0003324577,0.0001137081,3,1
-0.0003117133,0.0001372076,3,1
-0.0002353806,0.0001441764,3,1
-0.0001383035,0.0001368834,3,1
-5.775702e-05,0.0001222976,3,1
-1.594417e-05,0.0001052807,3,1
-1.367526e-05,8.875003e-05,3,1
-3.960571e-05,7.157111e-05,3,1
-8.109443e-05,5.341979e-05,3,1
-0.0001310105,3.397195e-05,3,1
-0.0001759026,1.371378e-05,3,1
-0.0001958367,-1.358292e-06,3,1
-0.0001797922,-8.327101e-06,3,1
-0.0001336036,-7.354709e-06,3,1
-7.509801e-05,-5.085794e-06,3,1
-1.67545e-05,-1.043395e-05,3,1
3.575467e-05,-2.388537e-05,3,1
8.307774e-05,-4.576419e-05,3,1
0.000123432,-7.299116e-05,3,1
0.0001475797,-0.0001015147,3,1
0.0001440143,-0.0001324691,3,1
0.0001116012,-0.0001665028,3,1
5.52025e-05,-0.0002019951,3,1
-1.610624e-05,-0.0002337599,3,1
-8.952183e-05,-0.0002543422,3,1
-0.0001501342,-0.0002561249,3,1
-0.0001854645,-0.0002366771,3,1
-0.0001921092,-0.0001997262,3,1
-0.000179306,-0.0001587237,3,1
-0.0001598582,-0.0001240417,3,1
-0.0001425172,-0.0001032974,3,1
-0.0001276072,-9.66527e-05,3,1
-0.0001131834,-0.0001028112,3,1
-8.887356e-05,-0.0001143178,3,1
-5.872941e-05,-0.0001259865,3,1
-2.777494e-05,-0.0001374932,3,1
-4.275467e-06,-0.0001488377,3,1
8.689758e-06,-0.0001605064,3,1
1.193106e-05,-0.0001755785,3,1
1.063454e-05,-0.0001932436,3,1
9.66215e-06,-0.0002096122,3,1
1.241726e-05,-0.0002182017,3,1
1.808955e-05,-0.0002170672,3,1
2.424803e-05,-0.0002078295,3,1
2.992031e-05,-0.0001953505,3,1
3.397195e-05,-0.0001864369,3,1
3.899597e-05,-0.0001862748,3,1
4.499239e-05,-0.0001945401,3,1
5.163707e-05,-0.0002026434,3,1
6.168512e-05,-0.0002008607,3,1
7.724339e-05,-0.0001861127,3,1
9.26396e-05,-0.0001579134,3,1
9.977047e-05,-0.0001204763,3,1
8.79397e-05,-7.898758e-05,3,1
5.957827e-05,-3.68506e-05,3,1
2.748934e-05,1.558884e-06,3,1
5.934648e-06,3.786152e-05,3,1
1.396819e-06,7.286763e-05,3,1
1.695509e-05,0.0001049566,3,1
4.596478e-05,0.0001305629,3,1
7.935024e-05,0.0001427178,3,1
0.0001056048,0.0001394765,3,1
0.0001255389,0.0001252147,3,1
0.000143204,0.000105929,3,1
0.0001569795,8.79397e-05,3,1
0.0001642725,7.837785e-05,3,1
0.0001613553,8.04847e-05,3,1
0.0001479039,9.458438e-05,3,1
0.0001305629,0.0001227837,3,1
0.0001154908,0.0001589243,3,1
0.0001067393,0.0001934442,3,1
0.0001067393,0.0002193747,3,1
0.0001098185,0.0002329882,3,1
0.0001047945,0.0002386605,3,1
8.826383e-05,0.0002436845,3,1
6.184718e-05,0.0002488706,3,1
3.510641e-05,0.0002564877,3,1
1.533444e-05,0.0002670219,3,1
3.017472e-06,0.0002783665,3,1
-9.623623e-06,0.0002833905,3,1
-2.501983e-05,0.0002806354,3,1
-4.009191e-05,0.0002702632,3,1
-4.949169e-05,0.000259729,3,1
-5.64605e-05,0.0002558394,3,1
-6.796714e-05,0.0002594049,3,1
-8.82253e-05,0.000267346,3,1
-0.0001157764,0.000272208,3,1
-0.0001423551,0.0002658874,3,1
-0.0001605064,0.0002467637,3,1
-0.000169258,0.0002203471,3,1
-0.0001697442,0.0001937684,3,1
-0.000159372,0.0001731861,3,1
-0.0001405724,0.0001571416,3,1
-0.0001203142,0.0001385041,3,1
-0.0001036215,0.0001103047,3,1
-8.952183e-05,7.254349e-05,3,1
-7.396356e-05,2.667901e-05,3,1
-5.451572e-05,-2.323711e-05,3,1
-3.814712e-05,-7.33153e-05,3,1
-3.198864e-05,-0.0001208004,3,1
-3.976777e-05,-0.0001639098,3,1
-5.743289e-05,-0.0002023193,3,1
-7.931171e-05,-0.0002379736,3,1
-9.892161e-05,-0.0002648765,3,1
-0.0001114006,-0.0002823795,3,1
-0.0001169109,-0.0002950206,3,1
-0.0001167488,-0.0003068514,3,1
-0.0001167488,-0.0003209511,3,1
-0.0001238797,-0.0003394265,3,1
-0.0001378173,-0.0003613053,3,1
-0.0001558065,-0.0003851289,3,1
-0.0001750923,-0.0004047388,3,1
-0.0001901644,-0.0004144627,3,1
-0.000191785,-0.0004112214,3,1
-0.000176713,-0.0003995528,3,1
-0.000144624,-0.0003854531,3,1
-9.956988e-05,-0.0003632501,3,1
-4.916756e-05,-0.0003275957,3,1
1.558884e-06,-0.000273628,3,1
4.418206e-05,-0.0001955125,3,1
7.465034e-05,-9.017008e-05,3,1
9.344993e-05,3.737532e-05,3,1
0.0001038221,0.0001759412,3,1
0.0001073875,0.0003127243,3,1
0.000105929,0.0004316803,3,1
0.0001056048,0.0005191956,3,1
0.0001116012,0.0005692738,3,1
0.0001188942,0.0005883976,3,1
0.0001255389,0.0005874252,3,1
0.0001274836,0.0005799701,3,1
0.0001278078,0.0005752703,3,1
0.000133318,0.0005738117,3,1
0.0001470936,0.0005650602,3,1
0.0001678379,0.0005365367,3,1
0.000195227,0.0004825689,3,1
0.0002294227,0.0004016982,3,1
0.0002650771,0.0002966799,3,1
0.0002929524,0.0001752929,3,1
0.0003089969,5.649903e-05,3,1
0.0003146691,-4.576419e-05,3,1
0.0003138588,-0.0001232314,3,1
0.0003091589,-0.000176875,3,1
0.0003017039,-0.0002146363,3,1
0.0002890628,-0.0002429977,3,1
0.0002639427,-0.0002622834,3,1
0.0002229401,-0.000271197,3,1
0.0001715654,-0.0002694143,3,1
0.0001203528,-0.0002514251,3,1
7.999851e-05,-0.000219012,3,1
5.94162e-05,-0.0001757406,3,1
5.860588e-05,-0.0001293899,3,1
6.800567e-05,-8.530812e-05,3,1
7.562274e-05,-4.592625e-05,3,1
7.708133e-05,-1.351319e-05,3,1
7.173317e-05,1.322759e-05,3,1
6.622294e-05,3.575467e-05,3,1
6.622294e-05,6.006447e-05,3,1
7.238143e-05,9.588091e-05,3,1
8.161915e-05,0.0001448246,3,1
9.150514e-05,0.0002018716,3,1
9.377406e-05,0.0002629703,3,1
7.108491e-05,0.0003258516,3,1
1.517237e-05,0.0003851676,3,1
-5.872941e-05,0.0004292493,3,1
-0.0001258245,0.0004435111,3,1
-0.0001676373,0.0004172565,3,1
-0.0001773612,0.0003555096,3,1
-0.0001656925,0.0002783665,3,1
-0.0001488377,0.0002119197,3,1
