EMG1,EMG2,class,user
-0.0002548284,-0.0004360174,3,1
-0.0002335979,-0.0004164075,3,1
-0.0001955125,-0.0003945287,3,1
-0.0001475412,-0.0003783222,3,1
-0.0001008664,-0.0003711913,3,1
-6.537409e-05,-0.0003739464,3,1
-4.236082e-05,-0.0003873979,3,1
-2.955766e-05,-0.0004071698,3,1
-2.226472e-05,-0.0004261314,3,1
-1.983374e-05,-0.0004418518,3,1
-1.886135e-05,-0.0004509274,3,1
-1.318906e-05,-0.0004518998,3,1
2.531276e-06,-0.000442338,3,1
2.862379e-05,-0.0004262935,3,1
6.184718e-05,-0.0004074939,3,1
8.907416e-05,-0.0003873979,3,1
9.944634e-05,-0.0003668155,3,1
8.194328e-05,-0.0003442885,3,1
3.899597e-05,-0.0003159271,3,1
-1.3027e-05,-0.0002789762,3,1
-5.030202e-05,-0.0002334358,3,1
-5.500191e-05,-0.0001853024,3,1
-2.242678e-05,-0.0001441378,3,1
4.369587e-05,-0.0001225832,3,1
0.0001294284,-0.0001243659,3,1
0.0002213195,-0.0001365208,3,1
0.000302028,-0.0001451102,3,1
0.0003569682,-0.0001423551,3,1
0.0003725265,-0.0001250141,3,1
0.0003430306,-9.875954e-05,3,1
0.0002803113,-7.299116e-05,3,1
0.0002145127,-5.532604e-05,3,1
0.0001796687,-4.414354e-05,3,1
0.0002012234,-3.134038e-05,3,1
0.000274801,-6.706447e-06,3,1
0.000371392,3.332369e-05,3,1
0.0004495075,8.84259e-05,3,1
0.0004756001,0.0001504969,3,1
0.0004430249,0.0002107852,3,1
0.000368799,0.0002587566,3,1
0.0002788527,0.0002924662,3,1
0.0001924718,0.000311914,3,1
0.0001253768,0.0003187208,3,1
8.518459e-05,0.0003101313,3,1
6.816773e-05,0.0002911697,3,1
6.508849e-05,0.0002725321,3,1
6.800567e-05,0.0002613496,3,1
7.189524e-05,0.0002514636,3,1
7.221937e-05,0.000234933,3,1
6.751948e-05,0.0002096508,3,1
5.471631e-05,0.0001808031,3,1
3.510641e-05,0.0001551968,3,1
1.290346e-05,0.0001388282,3,1
-1.043395e-05,0.0001287802,3,1
-3.247483e-05,0.0001188942,3,1
-5.143648e-05,0.00010366,3,1
-6.261898e-05,8.534666e-05,3,1
-6.48879e-05,7.221937e-05,3,1
-6.245691e-05,7.157111e-05,3,1
-6.504996e-05,8.518459e-05,3,1
-7.315322e-05,0.0001088461,3,1
-8.563225e-05,0.000143204,3,1
-0.0001021629,0.0001890685,3,1
-0.0001243659,0.0002470879,3,1
-0.0001460826,0.0003135347,3,1
-0.0001629374,0.0003817642,3,1
-0.0001762268,0.000448211,3,1
-0.0001857886,0.0005072028,3,1
-0.0001895161,0.0005522569,3,1
-0.000181737,0.0005747841,3,1
-0.0001609926,0.0005683015,3,1
-0.0001318209,0.0005305402,3,1
-0.0001045939,0.000470576,3,1
-9.357346e-05,0.0004013741,3,1
-0.0001054042,0.0003433547,3,1
-0.0001374932,0.0003067279,3,1
-0.0001820611,0.0002864697,3,1
-0.0002298704,0.0002725321,3,1
-0.0002729798,0.000252274,3,1
-0.000310903,0.0002172679,3,1
-0.0003426678,0.0001675138,3,1
-0.0003619536,0.000110953,3,1
-0.0003591985,6.03886e-05,3,1
-0.000328244,2.295151e-05,3,1
-0.0002721694,-3.858999e-07,3,1
-0.0002002124,-1.578211e-05,3,1
-0.0001217728,-3.101625e-05,3,1
-4.268495e-05,-4.932962e-05,3,1
2.894792e-05,-7.33153e-05,3,1
8.599492e-05,-0.0001008664,3,1
0.0001289422,-0.0001282554,3,1
0.0001621656,-0.0001553203,3,1
0.000187934,-0.0001814128,3,1
0.0001955511,-0.0002042641,3,1
0.0001746447,-0.0002233878,3,1
0.000123432,-0.0002378116,3,1
5.56887e-05,-0.0002493182,3,1
-4.761664e-06,-0.000261149,3,1
-3.749886e-05,-0.0002707109,3,1
-3.555408e-05,-0.0002741142,3,1
-6.544382e-06,-0.0002697385,3,1
3.380988e-05,-0.0002567732,3,1
7.221937e-05,-0.0002408908,3,1
0.0001062531,-0.0002261429,3,1
0.00013818,-0.0002102605,3,1
0.0001714034,-0.0001903264,3,1
0.0002010613,-0.0001710407,3,1
0.0002171058,-0.0001572651,3,1
0.0002162954,-0.0001475412,3,1
0.0002018716,-0.0001460826,3,1
0.0001799928,-0.0001528894,3,1
0.0001608691,-0.0001645581,3,1
0.00015309,-0.0001695821,3,1
0.0001589243,-0.0001577513,3,1
0.000177886,-0.0001258245,3,1
0.0002130541,-7.542214e-05,3,1
0.0002603772,-1.351319e-05,3,1
0.0003025142,4.936815e-05,3,1
0.0003182346,0.0001047945,3,1
0.0003004074,0.0001464453,3,1
0.0002634565,0.0001790204,3,1
0.0002290986,0.0002080301,3,1
0.0002090025,0.0002433604,3,1
0.0002047888,0.0002900352,3,1
0.0002062474,0.0003435168,3,1
0.0001973338,0.0003926226,3,1
0.0001621656,0.0004305459,3,1
8.712937e-05,0.0004636072,3,1
-3.036798e-05,0.0004966686,3,1
-0.0001697442,0.0005206542,3,1
-0.000293562,0.0005185474,3,1
-0.0003775118,0.000473007,3,1
-0.0004138145,0.000378685,3,1
-0.0004058733,0.0002490327,3,1
-0.000360495,0.0001067393,3,1
-0.0002888622,-2.42095e-05,3,1
-0.0002118811,-0.0001284175,3,1
-0.0001491618,-0.0002029675,3,1
-0.0001078352,-0.0002543422,3,1
-8.984595e-05,-0.0002925897,3,1
-9.065628e-05,-0.0003191683,3,1
-0.000102325,-0.0003353749,3,1
-0.0001149661,-0.000342992,3,1
-0.000122259,-0.000348016,3,1
-0.0001237176,-0.0003522297,3,1
-0.0001201522,-0.0003535262,3,1
-0.0001175591,-0.0003426678,3,1
-0.0001214487,-0.0003105789,3,1
-0.000134738,-0.0002506147,3,1
-0.0001481895,-0.0001635857,3,1
-0.0001528894,-5.095028e-05,3,1
-0.0001457585,8.550872e-05,3,1
-0.0001255003,0.0002477361,3,1
-9.713889e-05,0.0004422146,3,1
-6.699475e-05,0.000668782,3,1
-4.641245e-05,0.0009079906,3,1
-3.814712e-05,0.001120134,3,1
-3.63644e-05,0.001255297,3,1
-3.166451e-05,0.001272962,3,1
-2.258885e-05,0.001160975,3,1
-1.416145e-05,0.000938621,3,1
-1.643037e-05,0.0006543582,3,1
-3.620233e-05,0.0003632887,3,1
-7.914964e-05,0.0001119254,3,1
-0.0001404103,-7.444975e-05,3,1
-0.0002013469,-0.0001906506,3,1
-0.0002361909,-0.0002509389,3,1
-0.0002287359,-0.0002729798,3,1
-0.0001720131,-0.0002702246,3,1
-7.315322e-05,-0.0002535319,3,1
4.304761e-05,-0.0002316531,3,1
0.000148228,-0.0002104225,3,1
0.0002172679,-0.0001972953,3,1
0.0002433604,-0.000199078,3,1
0.0002406053,-0.000219012,3,1
0.0002263435,-0.0002540181,3,1
0.000207706,-0.0002948586,3,1
0.0001820997,-0.0003344025,3,1
0.000140773,-0.0003673017,3,1
8.323981e-05,-0.0003930701,3,1
2.554455e-05,-0.0004180282,3,1
5.86492e-07,-0.0004426621,3,1
3.105477e-05,-0.0004656754,3,1
0.0001125736,-0.0004841508,3,1
0.0002164575,-0.0005032745,3,1
0.0003101313,-0.0005262878,3,1
0.0003747954,-0.0005494631,3,1
0.0004072085,-0.0005645352,3,1
0.000410936,-0.0005638869,3,1
0.000393595,-0.0005462218,3,1
0.0003597233,-0.0005113778,3,1
0.0003151553,-0.0004632444,3,1
0.0002657254,-0.0004113835,3,1
0.0002167816,-0.0003596847,3,1
0.0001712413,-0.0003125237,3,1
0.000135749,-0.0002703867,3,1
0.0001148425,-0.0002342462,3,1
0.000111115,-0.0002050744,3,1
0.0001231079,-0.0001827094,3,1
0.0001487142,-0.0001611547,3,1
0.000175455,-0.000134576,3,1
0.0001882582,-0.0001008664,3,1
0.000178048,-6.002594e-05,3,1
0.0001466074,-1.270286e-05,3,1
0.0001031738,3.883391e-05,3,1
6.314371e-05,9.150514e-05,3,1
3.413401e-05,0.0001404489,3,1
1.338965e-05,0.0001808031,3,1
-1.221667e-05,0.0002149989,3,1
-5.095028e-05,0.0002509774,3,1
-9.616651e-05,0.0002937627,3,1
-0.0001298761,0.0003386548,3,1
-0.0001373311,0.0003756057,3,1
-0.0001232314,0.0004000776,3,1
-0.0001016767,0.0004174185,3,1
-8.222889e-05,0.0004320045,3,1
-6.180866e-05,0.0004475628,3,1
-3.766092e-05,0.0004634451,3,1
-1.20546e-05,0.0004739794,3,1
9.66215e-06,0.0004687933,3,1
2.797553e-05,0.0004401077,3,1
4.385793e-05,0.0003816021,3,1
5.325772e-05,0.0002968419,3,1
5.163707e-05,0.0002008992,3,1
3.899597e-05,0.0001116012,3,1
1.695509e-05,4.077869e-05,3,1
-1.399939e-05,-1.043395e-05,3,1
-5.921561e-05,-4.625038e-05,3,1
-0.0001212866,-7.428769e-05,3,1
-0.0001938919,-0.0001002181,3,1
-0.0002639041,-0.0001259865,3,1
-0.0003173856,-0.0001475412,3,1
-0.0003402368,-0.0001622891,3,1
-0.0003275957,-0.0001687718,3,1
-0.0002828657,-0.0001660166,3,1
-0.0002203085,-0.000159534,3,1
-0.0001582375,-0.0001514308,3,1
-0.0001183694,-0.0001465688,3,1
-0.0001104282,-0.0001504584,3,1
-0.0001256624,-0.0001611547,3,1
-0.0001478653,-0.0001726613,3,1
-0.0001590478,-0.0001789819,3,1
-0.000147055,-0.0001831956,3,1
-0.0001169109,-0.0001885437,3,1
-8.579432e-05,-0.0001995642,3,1
-7.039812e-05,-0.0002159328,3,1
-7.315322e-05,-0.0002326255,3,1
-8.676672e-05,-0.0002459149,3,1
-9.908367e-05,-0.0002554767,3,1
-9.973194e-05,-0.0002606628,3,1
-8.854943e-05,-0.0002588801,3,1
-6.780507e-05,-0.0002481838,3,1
-4.236082e-05,-0.0002282497,3,1
-1.805102e-05,-0.0002026434,3,1
5.86492e-07,-0.0001797922,3,1
1.047248e-05,-0.0001647201,3,1
1.501031e-05,-0.0001548341,3,1
1.64689e-05,-0.0001447861,3,1
1.727922e-05,-0.0001289037,3,1
2.505836e-05,-0.0001037836,3,1
4.369587e-05,-6.958779e-05,3,1
7.027458e-05,-2.7937e-05,3,1
0.0001054428,1.630683e-05,3,1
0.0001508211,5.747142e-05,3,1
0.0001961994,8.84259e-05,3,1
0.0002305572,0.0001002567,3,1
0.0002501671,8.567078e-05,3,1
0.0002563256,4.499239e-05,3,1
0.0002547049,-1.643037e-05,3,1
0.0002459534,-9.632857e-05,3,1
0.000225209,-0.0001893541,3,1
0.0001842065,-0.0002844864,3,1
0.0001244044,-0.0003711913,3,1
5.601284e-05,-0.0004421759,3,1
-9.461558e-06,-0.0004933886,3,1
-6.261898e-05,-0.0005160777,3,1
-0.0001011905,-0.000509595,3,1
-0.0001298761,-0.0004763717,3,1
-0.0001524032,-0.0004240246,3,1
-0.0001622891,-0.000360333,3,1
-0.000149486,-0.0002948586,3,1
-0.0001075111,-0.0002326255,3,1
-4.138842e-05,-0.0001724993,3,1
3.364782e-05,-0.0001120489,3,1
0.0001057669,-4.284701e-05,3,1
0.0001710792,5.082674e-05,3,1
0.0002279642,0.0001825859,3,1
0.0002713977,0.0003593992,3,1
0.000292142,0.0005853184,3,1
0.000284687,0.0008515919,3,1
0.0002503292,0.001140555,3,1
0.0002072198,0.001432435,3,1
0.0001691344,0.001706974,3,1
0.0001351007,0.001943428,3,1
9.701536e-05,0.00211457,3,1
4.645098e-05,0.00219382,3,1
-2.080613e-05,0.002161407,3,1
-0.0001000561,0.002011172,3,1
-0.0001789819,0.001748625,3,1
-0.0002399184,0.001400994,3,1
-0.0002731418,0.00102014,3,1
-0.0002757348,0.0006716992,3,1
-0.0002540181,0.0004133669,3,1
-0.0002279256,0.0002759355,3,1
-0.0002088019,0.0002530843,3,1
-0.0001974573,0.0003106175,3,1
-0.0001835197,0.0003957018,3,1
-0.000156941,0.0004597176,3,1
-0.0001120489,0.0004712243,3,1
-5.548811e-05,0.0004196875,3,1
-2.81688e-06,0.000311914,3,1
3.380988e-05,0.0001670276,3,1
4.72613e-05,9.338019e-06,3,1
3.834771e-05,-0.0001407345,3,1
1.290346e-05,-0.0002692523,3,1
-1.821308e-05,-0.0003721637,3,1
-4.333321e-05,-0.0004514136,3,1
-5.565017e-05,-0.0005123502,3,1
-5.548811e-05,-0.0005588629,3,1
-4.495386e-05,-0.0005982448,3,1
-2.939559e-05,-0.0006350336,3,1
-1.318906e-05,-0.0006651777,3,1
-7.100305e-07,-0.000683167,3,1
1.031041e-05,-0.0006901358,3,1
2.214118e-05,-0.0006914323,3,1
3.202716e-05,-0.0006928909,3,1
3.299956e-05,-0.000700508,3,1
1.987227e-05,-0.0007191455,3,1
-5.734056e-06,-0.0007457242,3,1
-3.960571e-05,-0.0007732753,3,1
-7.947377e-05,-0.0007938576,3,1
-0.0001232314,-0.0008024471,3,1
-0.0001665028,-0.0007966127,3,1
-0.0001987538,-0.0007807303,3,1
-0.000204102,-0.0007614446,3,1
-0.0001723372,-0.0007432932,3,1
-0.0001039456,-0.0007259523,3,1
-1.318906e-05,-0.0007039114,3,1
8.080883e-05,-0.0006731189,3,1
0.0001650828,-0.0006296854,3,1
0.0002329882,-0.0005719902,3,1
0.0002757735,-0.0005060296,3,1
0.0002851732,-0.0004425001,3,1
0.0002571359,-0.0003865875,3,1
0.0001996027,-0.0003321336,3,1
0.00013818,-0.0002694143,3,1
9.993253e-05,-0.0001854645,3,1
9.766362e-05,-7.55842e-05,3,1
0.0001268354,4.72613e-05,3,1
0.0001749688,0.0001492004,3,1
0.0002247229,0.0001986303,3,1
0.0002595669,0.0001861513,3,1
0.0002694529,0.0001226217,3,1
0.000254867,3.672706e-05,3,1
0.0002247229,-4.090223e-05,3,1
0.0001955511,-9.503204e-05,3,1
0.0001824238,-0.0001217728,3,1
0.0001884202,-0.0001206384,3,1
0.0002041406,-9.098041e-05,3,1
0.000215161,-3.976777e-05,3,1
0.000210299,2.829966e-05,3,1
0.0001817755,0.0001065772,3,1
0.000140773,0.0001782101,3,1
0.0001054428,0.0002334744,3,1
9.053275e-05,0.0002718839,3,1
9.474644e-05,0.0002989488,3,1
0.0001049566,0.000316938,3,1
0.0001091703,0.000331686,3,1
0.0001041462,0.0003420582,3,1
9.053275e-05,0.0003452995,3,1
6.946425e-05,0.0003375204,3,1
4.175109e-05,0.0003156415,3,1
1.1769e-05,0.0002851732,3,1
-1.108221e-05,0.0002561635,3,1
-1.983374e-05,0.0002352571,3,1
-6.544382e-06,0.000225209,3,1
1.825161e-05,0.0002193747,3,1
3.462021e-05,0.0002104611,3,1
2.052053e-05,0.0001923098,3,1
-3.733679e-05,0.0001634622,3,1
-0.0001327933,0.0001291043,3,1
-0.0002408908,9.669123e-05,3,1
-0.0003293785,7.20573e-05,3,1
-0.0003755671,5.682316e-05,3,1
-0.0003723258,5.115087e-05,3,1
-0.0003288923,5.115087e-05,3,1
-0.0002668213,5.585077e-05,3,1
-0.000208964,6.557468e-05,3,1
-0.000174282,7.821578e-05,3,1
-0.0001721751,9.21534e-05,3,1
-0.0002023193,0.0001051186,3,1
-0.0002520733,0.0001153287,3,1
-0.0002992343,0.0001261871,3,1
-0.0003288923,0.0001423936,3,1
-0.000330675,0.0001641104,3,1
-0.000300855,0.0001801549,3,1
-0.0002501286,0.000178048,3,1
-0.0001968091,0.0001469315,3,1
-0.0001536997,8.583286e-05,3,1
-0.0001225832,3.827799e-06,3,1
-0.0001026491,-8.352541e-05,3,1
-9.697683e-05,-0.0001559686,3,1
-0.0001041077,-0.000196647,3,1
-0.0001152902,-0.0002003745,3,1
-0.000117235,-0.0001737958,3,1
-0.0001008664,-0.0001282554,3,1
-6.861539e-05,-7.509801e-05,3,1
-2.874733e-05,-2.664048e-05,3,1
9.500085e-06,1.063454e-05,3,1
3.737532e-05,3.737532e-05,3,1
4.855783e-05,5.585077e-05,3,1
4.272347e-05,6.78436e-05,3,1
2.748934e-05,7.351589e-05,3,1
1.1769e-05,7.286763e-05,3,1
3.503668e-06,6.606088e-05,3,1
6.744974e-06,5.406805e-05,3,1
2.635488e-05,4.256141e-05,3,1
5.844381e-05,3.883391e-05,3,1
9.393612e-05,4.742337e-05,3,1
0.0001218114,6.427817e-05,3,1
0.0001388282,7.57848e-05,3,1
0.0001470936,7.319176e-05,3,1
0.0001500107,5.649903e-05,3,1
0.0001550348,3.089271e-05,3,1
0.0001613553,4.47606e-06,3,1
0.0001688103,-1.821308e-05,3,1
0.000178048,-3.879538e-05,3,1
0.000190365,-5.662256e-05,3,1
0.0002073819,-7.201877e-05,3,1
0.000222616,-8.628052e-05,3,1
0.000232502,-0.0001010285,3,1
0.0002367157,-0.0001186936,3,1
0.0002446569,-0.0001423551,3,1
0.0002582704,-0.0001708786,3,1
0.0002704253,-0.0001972953,3,1
0.000269777,-0.0002120432,3,1
0.0002551911,-0.000208964,3,1
0.0002367157,-0.0001869231,3,1
0.0002279642,-0.0001525652,3,1
0.0002334744,-0.0001154523,3,1
0.0002430362,-8.060823e-05,3,1
0.0002393087,-4.625038e-05,3,1
0.0002117576,-1.20546e-05,3,1
0.0001600588,2.003433e-05,3,1
9.280167e-05,5.309566e-05,3,1
2.181705e-05,8.453633e-05,3,1
-4.106429e-05,0.0001090082,3,1
-8.595638e-05,0.0001226217,3,1
-0.0001026491,0.000125863,3,1
-9.357346e-05,0.0001250527,3,1
-6.942573e-05,0.0001279698,3,1
-4.025397e-05,0.0001376938,3,1
-1.010982e-05,0.0001513072,3,1
1.484824e-05,0.0001702689,3,1
3.008238e-05,0.0001924718,3,1
2.943412e-05,0.0002153231,3,1
1.079661e-05,0.0002326641,3,1
-1.805102e-05,0.0002433604,3,1
-4.90055e-05,0.0002461155,3,1
-7.769106e-05,0.0002415777,3,1
-0.0001008664,0.0002290986,3,1
-0.0001151281,0.0002117576,3,1
-0.0001214487,0.0001910133,3,1
-0.0001259865,0.0001671896,3,1
-0.0001248521,0.0001435281,3,1
-0.0001105903,0.0001214872,3,1
-8.417367e-05,9.896015e-05,3,1
-5.808115e-05,7.173317e-05,3,1
-5.386745e-05,3.445814e-05,3,1
-7.299116e-05,-1.740276e-05,3,1
-9.535618e-05,-9.017008e-05,3,1
-9.989401e-05,-0.0001822232,3,1
-7.623246e-05,-0.0002852967,3,1
-3.085418e-05,-0.0003914495,3,1
2.068259e-05,-0.0004943609,3,1
6.119892e-05,-0.0005870623,3,1
7.983644e-05,-0.000660802,3,1
7.189524e-05,-0.0007118525,3,1
3.753739e-05,-0.0007431312,3,1
-1.480971e-05,-0.0007570688,3,1
-7.412562e-05,-0.0007586894,3,1
-0.000127121,-0.0007488034,3,1
-0.0001609926,-0.0007222248,3,1
-0.0001771992,-0.0006705259,3,1
-0.0001851404,-0.0005906277,3,1
-0.0001890299,-0.000479613,3,1
-0.0001882196,-0.0003360231,3,1
-0.0001750923,-0.0001564548,3,1
-0.0001498101,5.795762e-05,3,1
-0.0001264727,0.0003062417,3,1
-0.0001146419,0.0005739738,3,1
-0.0001170729,0.0008365198,3,1
-0.0001259865,0.001066815,3,1
-0.0001298761,0.00124768,3,1
-0.000112373,0.001376036,3,1
-6.537409e-05,0.001448966,3,1
4.80019e-06,0.00146501,3,1
7.351589e-05,0.001439404,3,1
0.0001179218,0.001402291,3,1
0.0001253768,0.001374415,3,1
0.0001022015,0.001347026,3,1
6.379197e-05,0.001293059,3,1
3.154097e-05,0.00118723,3,1
2.01964e-05,0.001026461,3,1
3.98063e-05,0.0008243649,3,1
9.004655e-05,0.000606873,3,1
0.0001551968,0.0004033189,3,1
0.0002111094,0.0002368777,3,1
0.0002328261,0.0001151667,3,1
0.0002094887,3.332369e-05,3,1
0.0001526038,-2.291298e-05,3,1
8.891209e-05,-6.553616e-05,3,1
4.953022e-05,-0.0001013526,3,1
5.552663e-05,-0.0001323071,3,1
0.000103498,-0.0001587237,3,1
0.0001689724,-0.0001838438,3,1
0.0002247229,-0.0002073433,3,1
0.0002547049,-0.0002279256,3,1
0.0002538946,-0.0002451045,3,1
0.0002271538,-0.0002622834,3,1
0.0001880961,-0.0002843243,3,1
0.0001573037,-0.0003104168,3,1
0.0001500107,-0.0003358611,3,1
0.0001667035,-0.0003559572,3,1
0.0001934442,-0.0003720016,3,1
0.0002080301,-0.0003843186,3,1
0.0001950649,-0.0003948528,3,1
0.0001550348,-0.0004021458,3,1
0.0001031738,-0.0004023079,3,1
5.341979e-05,-0.0003959873,3,1
4.962256e-06,-0.0003861013,3,1
-4.641245e-05,-0.0003776739,3,1
-0.0001008664,-0.0003734602,3,1
-0.0001485136,-0.000370381,3,1
-0.0001689338,-0.0003638984,3,1
-0.0001480274,-0.0003520676,3,1
-9.308726e-05,-0.0003358611,3,1
-2.761287e-05,-0.0003165753,3,1
1.906194e-05,-0.0002993964,3,1
2.505836e-05,-0.0002872415,3,1
-1.416145e-05,-0.0002791382,3,1
-8.579432e-05,-0.000273628,3,1
-0.0001634236,-0.0002674695,3,1
-0.000221443,-0.0002564491,3,1
-0.0002478596,-0.0002402425,3,1
-0.0002467252,-0.000216419,3,1
-0.0002290601,-0.0001807646,3,1
-0.0002055606,-0.0001384655,3,1
-0.0001737958,-9.778715e-05,3,1
-0.0001326312,-6.650855e-05,3,1
-9.130454e-05,-5.111234e-05,3,1
-6.845333e-05,-5.937768e-05,3,1
-7.299116e-05,-9.486997e-05,3,1
-9.778715e-05,-0.0001498101,3,1
-0.0001308485,-0.0002076674,3,1
-0.0001577513,-0.0002523975,3,1
-0.0001710407,-0.0002771934,3,1
-0.0001660166,-0.0002844864,3,1
-0.0001464067,-0.000286107,3,1
-0.0001259865,-0.0002912931,3,1
-0.0001161005,-0.0003018274,3,1
-0.0001183694,-0.0003104168,3,1
-0.0001237176,-0.0003073376,3,1
-0.0001224211,-0.0002908069,3,1
-0.0001143178,-0.0002634179,3,1
-0.0001076731,-0.0002337599,3,1
-0.0001114006,-0.0002097743,3,1
-0.0001256624,-0.0001979435,3,1
-0.0001428413,-0.0001979435,3,1
-0.0001499722,-0.0002021572,3,1
-0.000137007,-0.0002057227,3,1
-0.0001016767,-0.0002036158,3,1
-5.548811e-05,-0.0001922712,3,1
-1.416145e-05,-0.0001759026,3,1
6.744974e-06,-0.0001622891,3,1
2.855407e-06,-0.0001549962,3,1
-1.886135e-05,-0.0001517549,3,1
-3.928157e-05,-0.0001464067,3,1
-4.333321e-05,-0.0001336036,3,1
-2.550602e-05,-0.0001133454,3,1
1.112074e-05,-8.676672e-05,3,1
5.844381e-05,-5.905355e-05,3,1
0.0001047945,-3.441962e-05,3,1
0.0001443384,-1.724069e-05,3,1
0.0001759412,-6.706447e-06,3,1
0.0002085163,-6.176923e-08,3,1
0.0002490327,3.665733e-06,3,1
0.0002983005,8.041497e-06,3,1
0.0003478926,1.452411e-05,3,1
0.000386302,2.829966e-05,3,1
0.0003989431,4.904402e-05,3,1
0.0003846814,7.67572e-05,3,1
0.000353889,0.0001103047,3,1
0.0003179104,0.0001487142,3,1
0.0002833905,0.0001851789,3,1
0.0002525981,0.000217754,3,1
0.0002287745,0.0002483844,3,1
0.0002130541,0.0002773941,3,1
0.0002013854,0.0003018659,3,1
0.0001837203,0.0003171001,3,1
0.0001498487,0.0003200173,3,1
0.0001043083,0.0003096451,3,1
6.152305e-05,0.000294573,3,1
3.721326e-05,0.0002827423,3,1
3.753739e-05,0.0002769079,3,1
5.633696e-05,0.0002754493,3,1
8.113296e-05,0.0002741528,3,1
9.733949e-05,0.0002701012,3,1
8.923623e-05,0.0002629703,3,1
5.536457e-05,0.0002517878,3,1
7.069105e-06,0.0002402811,3,1
-3.944364e-05,0.0002307193,3,1
-6.974985e-05,0.000225047,3,1
-7.444975e-05,0.000225209,3,1
-5.613637e-05,0.0002313675,3,1
-1.934754e-05,0.0002383363,3,1
2.651694e-05,0.0002389846,3,1
6.573675e-05,0.0002279642,3,1
8.534666e-05,0.0002062474,3,1
8.097089e-05,0.0001799928,3,1
5.552663e-05,0.000155683,3,1
1.160693e-05,0.000138342,3,1
-3.992984e-05,0.0001326697,3,1
-8.838737e-05,0.0001355869,3,1
-0.000122259,0.0001435281,3,1
-0.0001266348,0.000153252,3,1
-9.308726e-05,0.0001658931,3,1
-3.26369e-05,0.0001864754,3,1
2.927205e-05,0.0002153231,3,1
6.136099e-05,0.0002508154,3,1
4.596478e-05,0.0002853353,3,1
-1.059602e-05,0.0003054314,3,1
-8.352541e-05,0.0003051073,3,1
-0.0001501342,0.0002829043,3,1
-0.0001964849,0.0002454672,3,1
-0.0002162569,0.000202682,3,1
-0.0002100984,0.0001571416,3,1
-0.0001828714,0.0001083599,3,1
-0.0001485136,5.795762e-05,3,1
-0.0001219349,8.689758e-06,3,1
-0.0001102662,-3.279896e-05,3,1
-0.0001110765,-6.180866e-05,3,1
-0.0001149661,-7.898758e-05,3,1
-0.0001180453,-8.757704e-05,3,1
-0.000122259,-9.324933e-05,3,1
-0.0001266348,-9.794922e-05,3,1
-0.0001280934,-0.0001013526,3,1
-0.0001237176,-0.0001045939,3,1
-0.0001083214,-0.000104756,3,1
-7.688073e-05,-0.0001010285,3,1
-3.360929e-05,-9.940781e-05,3,1
6.582909e-06,-0.0001055663,3,1
2.894792e-05,-0.000119828,3,1
3.056858e-05,-0.0001342519,3,1
1.517237e-05,-0.0001438137,3,1
-1.173047e-05,-0.0001452723,3,1
-4.38194e-05,-0.0001391138,3,1
-7.590833e-05,-0.00012469,3,1
-9.973194e-05,-0.0001029732,3,1
-0.000107349,-8.07703e-05,3,1
-9.697683e-05,-6.667062e-05,3,1
-6.991193e-05,-5.970181e-05,3,1
-3.279896e-05,-5.565017e-05,3,1
5.934648e-06,-5.046408e-05,3,1
4.304761e-05,-4.414354e-05,3,1
8.42122e-05,-3.798505e-05,3,1
0.0001423936,-3.134038e-05,3,1
0.0002149989,-1.886135e-05,3,1
0.0002803113,-6.176923e-08,3,1
0.0003081865,1.938607e-05,3,1
0.0002801492,3.235129e-05,3,1
0.000205275,3.737532e-05,3,1
0.0001094944,3.494434e-05,3,1
2.489629e-05,2.992031e-05,3,1
-2.372331e-05,2.748934e-05,3,1
-2.550602e-05,3.105477e-05,3,1
1.079661e-05,3.802358e-05,3,1
6.541262e-05,4.337174e-05,3,1
0.000118408,4.02925e-05,3,1
0.0001641104,2.910999e-05,3,1
0.0002057612,1.338965e-05,3,1
0.0002454672,-6.544382e-06,3,1
0.0002759355,-3.604027e-05,3,1
0.0002872801,-7.898758e-05,3,1
0.0002723701,-0.0001373311,3,1
0.0002326641,-0.0002047502,3,1
0.0001793446,-0.0002669833,3,1
0.0001273216,-0.0003138202,3,1
9.037068e-05,-0.0003416954,3,1
6.930219e-05,-0.0003478539,3,1
5.115087e-05,-0.000335537,3,1
2.586868e-05,-0.0003110651,3,1
-4.275467e-06,-0.0002820554,3,1
-2.372331e-05,-0.0002523975,3,1
-2.113026e-05,-0.000216581,3,1
-3.789272e-06,-0.0001637477,3,1
1.452411e-05,-8.676672e-05,3,1
2.100672e-05,7.393236e-06,3,1
9.824215e-06,0.0001022015,3,1
-1.529591e-05,0.0001819376,3,1
-5.095028e-05,0.0002328261,3,1
-8.563225e-05,0.0002483844,3,1
-0.0001110765,0.0002357433,3,1
-0.0001245279,0.0002172679,3,1
-0.0001280934,0.000225047,3,1
-0.0001230693,0.0002801492,3,1
-0.0001135075,0.0003877606,3,1
-0.0001013526,0.0005350781,3,1
-8.919769e-05,0.0006874196,3,1
-8.222889e-05,0.0008037825,3,1
-8.547019e-05,0.0008540229,3,1
-9.730096e-05,0.000834575,3,1
-0.0001136696,0.0007595387,3,1
-0.0001311726,0.0006553305,3,1
-0.000144462,0.0005496639,3,1
-0.0001499722,0.0004563143,3,1
-0.000149486,0.0003819262,3,1
-0.000147055,0.0003253654,3,1
-0.0001439758,0.0002806354,3,1
-0.0001426792,0.0002433604,3,1
-0.0001410586,0.0002122438,3,1
-0.0001407345,0.0001812893,3,1
-0.0001410586,0.0001323456,3,1
-0.0001358725,4.661304e-05,3,1
-0.0001195039,-7.526008e-05,3,1
-9.2439e-05,-0.0002079916,3,1
-5.710876e-05,-0.0003177098,3,1
-1.610624e-05,-0.00038286,3,1
2.084466e-05,-0.0003920977,3,1
4.82337e-05,-0.0003472056,3,1
6.281957e-05,-0.0002624455,3,1
6.638502e-05,-0.0001653684,3,1
6.071273e-05,-8.595638e-05,3,1
4.515445e-05,-4.657452e-05,3,1
1.727922e-05,-5.305713e-05,3,1
-2.0482e-05,-9.584238e-05,3,1
-6.602235e-05,-0.0001538618,3,1
-0.0001204763,-0.000209126,3,1
-0.0001830335,-0.0002515871,3,1
-0.0002410529,-0.0002780038,3,1
-0.0002734659,-0.0002937241,3,1
-0.0002614731,-0.0003066893,3,1
-0.0002047502,-0.000318196,3,1
-0.0001199901,-0.0003293785,3,1
-2.210265e-05,-0.0003376438,3,1
7.772959e-05,-0.0003369955,3,1
0.0001647587,-0.000328082,3,1
0.000220023,-0.0003199787,3,1
0.0002331503,-0.0003193304,3,1
0.0002128921,-0.0003235441,3,1
0.0001785342,-0.0003251648,3,1
0.0001498487,-0.000318358,3,1
0.0001349386,-0.0002974516,3,1
0.000135911,-0.0002632558,3,1
0.0001453108,-0.0002159328,3,1
0.0001642725,-0.0001592099,3,1
0.0001942546,-9.66527e-05,3,1
0.0002396328,-3.020592e-05,3,1
0.0002932765,3.526847e-05,3,1
0.0003349273,9.085688e-05,3,1
0.0003414099,0.000125863,3,1
0.0003036487,0.0001370455,3,1
0.000230071,0.0001299146,3,1
0.0001422316,0.0001141943,3,1
6.03886e-05,9.814982e-05,3,1
1.002961e-07,8.242948e-05,3,1
-3.328516e-05,6.606088e-05,3,1
-4.122636e-05,4.953022e-05,3,1
-2.566809e-05,3.60788e-05,3,1
1.063454e-05,2.910999e-05,3,1
5.698522e-05,3.089271e-05,3,1
0.000101067,4.013043e-05,3,1
0.0001326697,5.649903e-05,3,1
0.0001461212,7.286763e-05,3,1
0.0001389903,8.599492e-05,3,1
0.0001148425,9.182927e-05,3,1
8.113296e-05,8.972242e-05,3,1
4.256141e-05,8.486046e-05,3,1
2.531276e-06,7.805372e-05,3,1
-3.425755e-05,6.687121e-05,3,1
-5.64605e-05,5.309566e-05,3,1
-6.197072e-05,3.98063e-05,3,1
-5.386745e-05,2.829966e-05,3,1
-3.960571e-05,1.59827e-05,3,1
-2.728874e-05,2.855407e-06,3,1
-2.388537e-05,-9.461558e-06,3,1
-3.150244e-05,-1.886135e-05,3,1
-4.414354e-05,-2.485776e-05,3,1
-5.289507e-05,-3.425755e-05,3,1
-4.965376e-05,-5.32192e-05,3,1
-4.187462e-05,-7.995997e-05,3,1
-3.717473e-05,-0.0001115627,3,1
-4.398147e-05,-0.0001423551,3,1
-6.197072e-05,-0.000164396,3,1
-9.000802e-05,-0.0001770371,3,1
-0.0001292278,-0.0001898403,3,1
-0.0001770371,-0.0002146363,3,1
-0.0002207947,-0.0002582318,3,1
-0.0002468872,-0.0003178718,3,1
-0.0002496423,-0.0003767015,3,1
-0.0002332737,-0.0004190006,3,1
-0.0002076674,-0.0004378002,3,1
-0.0001828714,-0.0004311555,3,1
-0.0001676373,-0.0004005251,3,1
-0.0001639098,-0.0003541745,3,1
-0.0001674752,-0.0003071755,3,1
-0.0001652063,-0.0002681178,3,1
-0.0001405724,-0.0002404046,3,1
-8.530812e-05,-0.0002227395,3,1
-1.092015e-05,-0.0002104225,3,1
5.714729e-05,-0.0001914609,3,1
9.620504e-05,-0.0001498101,3,1
0.0001083599,-7.347736e-05,3,1
0.000108522,3.850978e-05,3,1
0.000113546,0.000177886,3,1
0.000128294,0.0003277964,3,1
0.0001461212,0.0004637693,3,1
0.0001470936,0.0005648981,3,1
0.0001185701,0.000626645,3,1
6.427817e-05,0.0006504686,3,1
-6.176923e-08,0.0006323173,3,1
-5.581224e-05,0.0005738117,3,1
-8.806324e-05,0.0004888894,3,1
-9.438378e-05,0.0003982949,3,1
-7.850138e-05,0.0003162898,3,1
-5.013995e-05,0.0002480603,3,1
-1.67545e-05,0.0001968476,3,1
1.403791e-05,0.0001633001,3,1
3.299956e-05,0.0001483901,3,1
4.483033e-05,0.0001479039,3,1
6.006447e-05,0.0001560072,3,1
8.502253e-05,0.0001684862,3,1
0.0001211631,0.0001782101,3,1
0.0001628139,0.0001825859,3,1
0.0002067336,0.0001812893,3,1
0.0002487085,0.0001782101,3,1
0.0002777182,0.0001752929,3,1
0.0002830664,0.0001748067,3,1
0.0002610255,0.000180479,3,1
0.0002190506,0.0001900409,3,1
0.0001757791,0.0002007372,3,1
0.0001474177,0.0002149989,3,1
0.0001370455,0.000230071,3,1
0.0001391524,0.0002430362,3,1
0.0001406109,0.0002503292,3,1
0.0001274836,0.0002470879,3,1
9.199134e-05,0.0002292607,3,1
3.996837e-05,0.0001961994,3,1
-9.623623e-06,0.0001517934,3,1
-3.992984e-05,0.0001026876,3,1
-4.155049e-05,6.03886e-05,3,1
-1.756482e-05,3.105477e-05,3,1
2.246531e-05,1.501031e-05,3,1
7.286763e-05,6.096713e-06,3,1
0.0001291043,-7.100305e-07,3,1
0.0001895547,-8.002969e-06,3,1
0.0002444948,-9.461558e-06,3,1
0.000269777,4.244267e-07,3,1
0.0002470879,2.408596e-05,3,1
0.0001798307,5.747142e-05,3,1
8.518459e-05,9.442231e-05,3,1
-1.173047e-05,0.0001331559,3,1
-9.389759e-05,0.0001786963,3,1
-0.0001502963,0.0002337985,3,1
-0.0001749302,0.0002926282,3,1
-0.0001723372,0.0003375204,3,1
-0.0001543479,0.0003545372,3,1
-0.0001374932,0.0003368721,3,1
-0.0001274451,0.0002906835,3,1
-0.0001280934,0.0002237505,3,1
-0.0001387897,0.0001464453,3,1
-0.0001559686,6.962632e-05,3,1
-0.0001726613,2.369211e-06,3,1
-0.0001814128,-4.916756e-05,3,1
-0.0001818991,-8.757704e-05,3,1
-0.0001778474,-0.0001182074,3,1
-0.0001762268,-0.0001489998,3,1
-0.0001848162,-0.0001836818,3,1
-0.0002050744,-0.0002227395,3,1
-0.0002245222,-0.0002605007,3,1
-0.0002298704,-0.0002896725,3,1
-0.00021415,-0.0003042584,3,1
-0.0001807646,-0.0003044204,3,1
-0.0001404103,-0.0002966413,3,1
-0.0001042698,-0.0002882139,3,1
-8.287715e-05,-0.0002877277,3,1
-7.704279e-05,-0.0002998826,3,1
-7.882551e-05,-0.0003238683,3,1
-7.785312e-05,-0.0003548227,3,1
-7.363943e-05,-0.0003859393,3,1
-7.137051e-05,-0.0004065215,3,1
-7.526008e-05,-0.0004107352,3,1
-8.206682e-05,-0.000400039,3,1
-8.530812e-05,-0.0003776739,3,1
-8.336335e-05,-0.0003447747,3,1
-7.914964e-05,-0.0003057169,3,1
-7.428769e-05,-0.0002669833,3,1
-6.245691e-05,-0.0002319772,3,1
-4.106429e-05,-0.0001994021,3,1
-1.043395e-05,-0.0001627754,3,1
2.748934e-05,-0.0001169109,3,1
6.962632e-05,-5.986387e-05,3,1
0.0001130598,3.503668e-06,3,1
0.0001509831,6.444023e-05,3,1
0.0001726999,0.0001112771,3,1
0.0001691344,0.0001365593,3,1
0.0001428799,0.0001433661,3,1
0.0001091703,0.000138342,3,1
9.16672e-05,0.0001269974,3,1
0.0001065772,0.0001101427,3,1
0.0001480659,9.588091e-05,3,1
0.0001939304,8.988449e-05,3,1
0.0002221298,9.944634e-05,3,1
0.0002269918,0.0001214872,3,1
0.0002195368,0.0001490383,3,1
0.0002117576,0.0001744826,3,1
0.0002111094,0.0001892305,3,1
0.0002187264,0.0001890685,3,1
0.0002281262,0.0001773998,3,1
0.0002312055,0.0001602208,3,1
0.0002279642,0.0001443384,3,1
0.0002218057,0.0001325077,3,1
0.0002156472,0.0001261871,3,1
0.0002075439,0.0001227837,3,1
0.0001971717,0.0001163011,3,1
0.0001825859,0.0001052807,3,1
0.0001660552,9.118101e-05,3,1
0.0001470936,7.254349e-05,3,1
0.0001257009,4.693717e-05,3,1
9.766362e-05,1.906194e-05,3,1
4.628891e-05,-3.303076e-06,3,1
-3.506788e-05,-1.837515e-05,3,1
-0.0001339277,-2.777494e-05,3,1
-0.0002207947,-3.474375e-05,3,1
-0.0002640662,-3.960571e-05,3,1
-0.0002520733,-4.122636e-05,3,1
-0.0002013469,-3.68506e-05,3,1
-0.0001387897,-3.036798e-05,3,1
-7.752899e-05,-2.42095e-05,3,1
-2.242678e-05,-1.950961e-05,3,1
2.197911e-05,-1.173047e-05,3,1
4.839576e-05,2.855407e-06,3,1
5.325772e-05,2.457216e-05,3,1
4.466826e-05,4.888196e-05,3,1
3.397195e-05,7.059871e-05,3,1
2.489629e-05,8.84259e-05,3,1
1.889987e-05,0.0001038221,3,1
1.063454e-05,0.0001244044,3,1
-2.006553e-06,0.0001573037,3,1
-1.562004e-05,0.0002068957,3,1
-3.441962e-05,0.0002660495,3,1
-5.970181e-05,0.000316938,3,1
-9.033215e-05,0.0003401134,3,1
-0.0001227452,0.0003250413,3,1
-0.00015451,0.0002717218,3,1
-0.0001890299,0.0001924718,3,1
-0.0002345703,0.0001043083,3,1
-0.0002887001,2.684107e-05,3,1
-0.0003434782,-2.939559e-05,3,1
-0.0003857772,-6.521203e-05,3,1
-0.0004055492,-8.547019e-05,3,1
-0.0003998769,-9.649064e-05,3,1
-0.0003684362,-0.0001034594,3,1
-0.0003165753,-0.000104918,3,1
-0.0002489941,-0.0001002181,3,1
-0.0001750923,-9.568031e-05,3,1
-0.0001026491,-0.0001018388,3,1
-3.652646e-05,-0.0001248521,3,1
1.711715e-05,-0.0001661787,3,1
5.19612e-05,-0.0002243602,3,1
6.800567e-05,-0.0002971275,3,1
6.930219e-05,-0.0003791325,3,1
6.557468e-05,-0.0004632444,3,1
6.233338e-05,-0.000541684,3,1
6.281957e-05,-0.0006003517,3,1
6.525056e-05,-0.0006274165,3,1
7.465034e-05,-0.0006202856,3,1
9.296373e-05,-0.0005877105,3,1
0.0001252147,-0.0005480045,3,1
0.0001675138,-0.0005178604,3,1
0.00021273,-0.0005023021,3,1
0.0002516257,-0.0004940368,3,1
0.0002730183,-0.0004755614,3,1
0.0002699391,-0.0004360174,3,1
0.0002419018,-0.0003724878,3,1
0.0001992786,-0.0002877277,3,1
0.0001577899,-0.0001796301,3,1
0.0001323456,-4.495386e-05,3,1
0.0001273216,0.0001239182,3,1
0.0001404489,0.000326824,3,1
0.0001715654,0.0005558224,3,1
0.0002221298,0.0007989206,3,1
0.0002850112,0.001025326,3,1
0.0003461098,0.001188202,3,1
0.0003816021,0.001242494,3,1
0.0003707437,0.001168754,3,1
0.0003060797,0.00098562,3,1
0.000200413,0.0007462493,3,1
8.259155e-05,0.000515144,3,1
-2.09682e-05,0.0003401134,3,1
-9.584238e-05,0.0002308813,3,1
-0.0001389517,0.000170431,3,1
-0.0001517549,0.0001367214,3,1
-0.0001332795,0.0001211631,3,1
-8.82253e-05,0.0001198666,3,1
-2.356124e-05,0.0001300767,3,1
4.677511e-05,0.0001475797,3,1
0.0001067393,0.0001670276,3,1
0.0001433661,0.0001798307,3,1
0.0001449867,0.0001806411,3,1
0.0001093323,0.0001722137,3,1
5.536457e-05,0.0001584381,3,1
1.387585e-05,0.0001483901,3,1
1.031041e-05,0.0001504969,3,1
5.244739e-05,0.0001731861,3,1
0.0001248906,0.0002140265,3,1
0.0002008992,0.0002587566,3,1
0.0002501671,0.0002918179,3,1
0.0002542187,0.0002961937,3,1
0.0002088404,0.0002637806,3,1
0.0001297526,0.0002031682,3,1
4.693717e-05,0.0001244044,3,1
-1.788895e-05,3.462021e-05,3,1
-6.197072e-05,-6.586029e-05,3,1
-9.422172e-05,-0.0001707166,3,1
-0.0001224211,-0.0002699005,3,1
-0.0001501342,-0.0003502849,3,1
-0.0001780095,-0.0004018217,3,1
-0.0002079916,-0.0004232143,3,1
-0.0002340841,-0.000420135,3,1
-0.0002506147,-0.0004029561,3,1
-0.0002515871,-0.0003789705,3,1
-0.0002386219,-0.0003515814,3,1
-0.0002248464,-0.0003266234,3,1
-0.0002219292,-0.0003044204,3,1
-0.0002331117,-0.0002831898,3,1
-0.0002561249,-0.0002609869,3,1
-0.0002814071,-0.000238784,3,1
-0.0002982619,-0.0002185258,3,1
-0.0003000446,-0.0002049123,3,1
-0.0002822175,-0.0001963229,3,1
-0.0002399184,-0.0001877334,3,1
-0.0001665028,-0.0001786577,3,1
-6.278104e-05,-0.0001729855,3,1
5.1475e-05,-0.0001681235,3,1
0.0001492004,-0.0001538618,3,1
0.0002068957,-0.0001170729,3,1
0.0002190506,-5.613637e-05,3,1
0.000192796,1.436204e-05,3,1
0.0001419075,7.351589e-05,3,1
8.680524e-05,0.00010366,3,1
4.418206e-05,9.782569e-05,3,1
2.246531e-05,6.168512e-05,3,1
2.538249e-05,1.160693e-05,3,1
4.337174e-05,-3.182657e-05,3,1
6.330578e-05,-5.500191e-05,3,1
7.886404e-05,-5.872941e-05,3,1
8.275361e-05,-4.884343e-05,3,1
7.351589e-05,-2.826114e-05,3,1
5.504044e-05,1.234753e-06,3,1
3.478228e-05,3.705119e-05,3,1
1.338965e-05,7.789165e-05,3,1
-1.043395e-05,0.000121001,3,1
-3.26369e-05,0.0001592484,3,1
-4.787104e-05,0.0001808031,3,1
-5.078821e-05,0.0001744826,3,1
-3.701266e-05,0.0001410971,3,1
-1.010982e-05,8.129502e-05,3,1
1.64689e-05,-3.858999e-07,3,1
3.316162e-05,-8.952183e-05,3,1
3.915804e-05,-0.0001720131,3,1
3.753739e-05,-0.000241377,3,1
3.413401e-05,-0.0002955068,3,1
3.656499e-05,-0.0003309991,3,1
5.1475e-05,-0.0003442885,3,1
7.740546e-05,-0.0003326198,3,1
0.0001041462,-0.0002946965,3,1
0.0001203528,-0.000238784,3,1
0.0001216493,-0.0001809267,3,1
0.0001143563,-0.0001332795,3,1
0.0001107909,-0.0001032974,3,1
0.0001182459,-9.713889e-05,3,1
0.0001373696,-0.0001099421,3,1
0.0001624898,-0.0001282554,3,1
0.0001851789,-0.0001386276,3,1
0.0001961994,-0.0001319829,3,1
0.0001913374,-0.0001091317,3,1
0.0001696206,-7.752899e-05,3,1
0.0001329939,-4.268495e-05,3,1
8.858796e-05,-8.489166e-06,3,1
4.77475e-05,2.522042e-05,3,1
2.052053e-05,6.573675e-05,3,1
8.689758e-06,0.0001128978,3,1
6.744974e-06,0.0001671896,3,1
7.23117e-06,0.0002287745,3,1
9.500085e-06,0.0002953834,3,1
1.517237e-05,0.0003670162,3,1
2.651694e-05,0.0004427008,3,1
4.645098e-05,0.0005203301,3,1
7.238143e-05,0.0005905044,3,1
9.507057e-05,0.0006444722,3,1
0.0001028497,0.0006747784,3,1
8.761557e-05,0.0006838542,3,1
4.596478e-05,0.0006707268,3,1
-1.513384e-05,0.0006326414,3,1
-8.255302e-05,0.000572191,3,1
-0.0001410586,0.0004950479,3,1
-0.0001807646,0.0004080188,3,1
-0.0001972953,0.0003149933,3,1
-0.0001971332,0.0002145127,3,1
-0.0001951884,0.0001017153,3,1
-0.0002008607,-1.3027e-05,3,1
-0.0002159328,-0.0001032974,3,1
-0.000238784,-0.0001498101,3,1
-0.000263742,-0.000152079,3,1
-0.0002857829,-0.0001175591,3,1
-0.0002990722,-5.208474e-05,3,1
-0.000295993,4.126489e-05,3,1
-0.0002723315,0.0001592484,3,1
-0.0002306807,0.0002931144,3,1
-0.0001713648,0.0004179048,3,1
-9.956988e-05,0.000500234,3,1
-2.874733e-05,0.0005117406,3,1
1.97102e-05,0.0004467524,3,1
3.316162e-05,0.000319369,3,1
1.274139e-05,0.0001602208,3,1
-3.63644e-05,1.720949e-06,3,1
-0.0001018388,-0.0001290658,3,1
-0.000169258,-0.0002194982,3,1
-0.0002199844,-0.0002752487,3,1
-0.000236353,-0.000305879,3,1
-0.0002094502,-0.0003204649,3,1
-0.0001449482,-0.0003254889,3,1
-5.305713e-05,-0.0003269475,3,1
5.001642e-05,-0.0003272716,3,1
0.0001438522,-0.0003233821,3,1
0.0002067336,-0.0003134961,3,1
0.0002326641,-0.0002997205,3,1
0.0002242366,-0.0002851347,3,1
0.0001898788,-0.0002679557,3,1
0.0001436902,-0.0002476975,3,1
9.766362e-05,-0.0002301945,3,1
6.525056e-05,-0.0002203085,3,1
5.439218e-05,-0.0002193361,3,1
6.573675e-05,-0.0002235498,3,1
9.847395e-05,-0.0002284118,3,1
0.000148228,-0.0002308428,3,1
0.0001997648,-0.0002235498,3,1
0.0002299089,-0.000208964,3,1
0.0002273159,-0.000189192,3,1
0.000200413,-0.0001666649,3,1
0.0001712413,-0.0001428413,3,1
0.0001634622,-0.0001170729,3,1
0.0001867996,-8.757704e-05,3,1
0.0002256952,-5.402952e-05,3,1
0.0002576221,-2.339918e-05,3,1
0.0002589186,-9.785688e-06,3,1
0.0002222919,-2.258885e-05,3,1
0.0001571416,-5.808115e-05,3,1
8.46984e-05,-0.0001054042,3,1
2.910999e-05,-0.0001478653,3,1
4.313994e-06,-0.0001728234,3,1
9.66215e-06,-0.0001763888,3,1
3.18651e-05,-0.0001629374,3,1
5.406805e-05,-0.0001405724,3,1
6.751948e-05,-0.0001193418,3,1
7.076078e-05,-0.0001037836,3,1
7.092284e-05,-9.535618e-05,3,1
7.367795e-05,-9.049421e-05,3,1
8.275361e-05,-8.482193e-05,3,1
9.63671e-05,-7.833932e-05,3,1
0.0001124116,-6.942573e-05,3,1
0.0001248906,-5.111234e-05,3,1
0.0001240803,-1.513384e-05,3,1
0.000103498,4.094075e-05,3,1
6.444023e-05,0.0001145184,3,1
1.468618e-05,0.0001976579,3,1
-3.539201e-05,0.0002793389,3,1
-7.979791e-05,0.0003504856,3,1
-0.0001114006,0.0004101256,3,1
-0.0001331174,0.0004660382,3,1
-0.0001574272,0.0005219508,3,1
-0.0001950263,0.0005768909,3,1
-0.0002404046,0.0006297242,3,1
-0.0002767073,0.0006721854,3,1
-0.0002852967,0.0006874196,3,1
-0.0002621213,0.000666189,3,1
-0.0002188499,0.0006114109,3,1
-0.0001731475,0.0005315126,3,1
-0.0001361966,0.0004392974,3,1
-0.0001079973,0.0003451374,3,1
-8.02841e-05,0.0002600531,3,1
-4.884343e-05,0.0001893926,3,1
-1.610624e-05,0.0001287802,3,1
8.689758e-06,6.978839e-05,3,1
1.452411e-05,9.338019e-06,3,1
-1.358292e-06,-5.046408e-05,3,1
-3.441962e-05,-0.0001063766,3,1
-7.526008e-05,-0.0001574272,3,1
-0.0001065387,-0.0002078295,3,1
-0.0001186936,-0.0002622834,3,1
-0.00010978,-0.0003198166,3,1
-9.000802e-05,-0.0003744326,3,1
-7.282909e-05,-0.0004196489,3,1
-6.926366e-05,-0.0004520619,3,1
-8.044617e-05,-0.000469727,3,1
-9.843541e-05,-0.0004726442,3,1
-0.0001102662,-0.0004614617,3,1
-0.000104756,-0.000442338,3,1
-7.963584e-05,-0.0004190006,3,1
-3.539201e-05,-0.0003956632,3,1
2.246531e-05,-0.0003742705,3,1
7.999851e-05,-0.0003499608,3,1
0.0001197045,-0.0003170615,3,1
0.0001237561,-0.0002703867,3,1
8.875003e-05,-0.0002013469,3,1
2.716521e-05,-0.0001091317,3,1
-3.814712e-05,-3.951337e-06,3,1
-8.579432e-05,9.750156e-05,3,1
-9.730096e-05,0.0001832341,3,1
-6.164659e-05,0.0002475741,3,1
2.035846e-05,0.0002866318,3,1
0.0001261871,0.0002939248,3,1
0.0002229401,0.0002704253,3,1
0.0002838767,0.0002299089,3,1
0.000302028,0.0001932822,3,1
0.0002872801,0.0001739964,3,1
0.0002568118,0.0001733481,3,1
0.0002255332,0.0001846927,3,1
0.0001989545,0.000192958,3,1
0.0001759412,0.0001867996,3,1
0.0001493625,0.0001665414,3,1
0.0001098185,0.000140773,3,1
5.115087e-05,0.0001182459,3,1
-2.275091e-05,0.000103498,3,1
-9.341139e-05,9.393612e-05,3,1
-0.0001349001,8.680524e-05,3,1
-0.000129714,7.886404e-05,3,1
-6.715681e-05,7.027458e-05,3,1
4.628891e-05,6.103686e-05,3,1
0.0001791825,5.19612e-05,3,1
0.000287118,4.272347e-05,3,1
0.0003427064,3.154097e-05,3,1
0.0003495132,2.01964e-05,3,1
0.0003287688,1.160693e-05,3,1
0.0002987867,6.420843e-06,3,1
0.0002704253,3.017472e-06,3,1
0.0002428742,-3.858999e-07,3,1
0.0002104611,-8.813297e-06,3,1
0.000173024,-3.020592e-05,3,1
0.0001323456,-6.81292e-05,3,1
9.296373e-05,-0.0001125351,3,1
6.346784e-05,-0.0001532135,3,1
4.418206e-05,-0.000181737,3,1
2.781346e-05,-0.0001982676,3,1
6.582909e-06,-0.0002028055,3,1
-1.918548e-05,-0.0001964849,3,1
-4.38194e-05,-0.0001776853,3,1
-6.504996e-05,-0.0001477033,3,1
-8.07703e-05,-0.0001039456,3,1
-8.838737e-05,-4.770897e-05,3,1
-8.871149e-05,1.436204e-05,3,1
-8.514606e-05,7.497447e-05,3,1
-8.255302e-05,0.0001253768,3,1
-8.709085e-05,0.0001542244,3,1
-0.0001029732,0.0001529279,3,1
-0.0001308485,0.0001166253,3,1
-0.000161965,5.358185e-05,3,1
-0.0001935677,-1.934754e-05,3,1
-0.0002220912,-8.482193e-05,3,1
-0.0002441321,-0.0001295519,3,1
-0.0002567732,-0.0001485136,3,1
-0.0002617972,-0.0001400862,3,1
-0.0002630937,-0.0001057284,3,1
-0.0002603387,-4.868137e-05,3,1
-0.0002525595,2.667901e-05,3,1
-0.0002404046,0.0001143563,3,1
-0.0002285739,0.0002025199,3,1
-0.0002204706,0.0002712356,3,1
-0.0002160948,0.0003012177,3,1
-0.0002083157,0.0002791768,3,1
-0.0001912988,0.0002085163,3,1
-0.000164396,0.000108522,3,1
-0.0001313347,6.258778e-06,3,1
-9.276313e-05,-7.769106e-05,3,1
-5.208474e-05,-0.0001389517,3,1
-2.0482e-05,-0.0001814128,3,1
-1.092015e-05,-0.0002136638,3,1
-2.356124e-05,-0.0002412149,3,1
-4.317115e-05,-0.0002617972,3,1
-4.560212e-05,-0.0002703867,3,1
-1.99958e-05,-0.0002671454,3,1
2.975825e-05,-0.0002540181,3,1
8.810177e-05,-0.0002342462,3,1
0.0001376938,-0.0002122053,3,1
0.0001649207,-0.000189192,3,1
0.0001644345,-0.0001679614,3,1
0.0001433661,-0.0001504584,3,1
0.0001171115,-0.0001349001,3,1
0.0001012291,-0.0001199901,3,1
0.0001077117,-0.0001029732,3,1
0.0001342904,-8.222889e-05,3,1
0.0001692965,-5.613637e-05,3,1
0.0002015475,-2.534396e-05,3,1
0.0002193747,1.095867e-05,3,1
0.0002214815,5.1475e-05,3,1
0.0002114335,8.956036e-05,3,1
0.0001892305,0.0001195424,3,1
0.0001594105,0.0001331559,3,1
0.000130887,0.0001269974,3,1
0.0001090082,9.944634e-05,3,1
9.280167e-05,5.779555e-05,3,1
7.983644e-05,1.582063e-05,3,1
7.30297e-05,-7.840905e-06,3,1
7.384002e-05,1.558884e-06,3,1
8.080883e-05,4.175109e-05,3,1
8.372601e-05,0.0001018773,3,1
6.914012e-05,0.0001639484,3,1
2.992031e-05,0.0002124059,3,1
-2.599222e-05,0.0002422259,3,1
-7.752899e-05,0.0002551911,3,1
-0.0001054042,0.0002585945,3,1
-0.0001037836,0.0002576221,3,1
-7.947377e-05,0.0002590807,3,1
-4.641245e-05,0.0002624841,3,1
-2.177852e-05,0.0002663737,3,1
-1.351319e-05,0.0002692908,3,1
-1.934754e-05,0.0002688046,3,1
-3.085418e-05,0.0002657254,3,1
-3.830919e-05,0.0002611876,3,1
-3.409549e-05,0.0002540567,3,1
-2.0482e-05,0.0002435224,3,1
-5.479652e-07,0.0002261814,3,1
2.311357e-05,0.000200251,3,1
4.758544e-05,0.0001718896,3,1
6.751948e-05,0.0001483901,3,1
7.983644e-05,0.0001320215,3,1
8.259155e-05,0.0001224596,3,1
7.643307e-05,0.0001169494,3,1
6.103686e-05,0.0001140322,3,1
3.543054e-05,0.0001128978,3,1
2.693341e-06,0.0001112771,3,1
-3.182657e-05,0.0001077117,3,1
-6.06742e-05,0.0001004187,3,1
-7.396356e-05,8.810177e-05,3,1
-6.423963e-05,7.059871e-05,3,1
-3.166451e-05,4.969229e-05,3,1
1.322759e-05,3.089271e-05,3,1
5.61749e-05,1.403791e-05,3,1
8.599492e-05,-2.330684e-06,3,1
9.782569e-05,-1.950961e-05,3,1
8.891209e-05,-3.960571e-05,3,1
5.747142e-05,-6.132246e-05,3,1
6.582909e-06,-8.174268e-05,3,1
-5.2733e-05,-9.956988e-05,3,1
-0.0001071869,-0.0001161005,3,1
-0.0001491618,-0.0001303623,3,1
-0.0001783336,-0.000144624,3,1
-0.0001961608,-0.0001645581,3,1
-0.0002037779,-0.0001921092,3,1
-0.0002023193,-0.000224036,3,1
-0.0001930815,-0.000256287,3,1
-0.0001710407,-0.0002878898,3,1
-0.0001387897,-0.0003185201,3,1
-0.0001034594,-0.0003470436,3,1
-7.007399e-05,-0.0003689224,3,1
-4.041603e-05,-0.000382698,3,1
-1.480971e-05,-0.0003906392,3,1
9.106227e-07,-0.0003948528,3,1
2.855407e-06,-0.0003963114,3,1
-8.327101e-06,-0.0003908012,3,1
-2.599222e-05,-0.0003734602,3,1
-3.960571e-05,-0.0003425058,3,1
-4.219875e-05,-0.0003026377,3,1
-3.344723e-05,-0.0002549905,3,1
-1.513384e-05,-0.000201671,3,1
1.614476e-05,-0.0001417068,3,1
6.395404e-05,-7.169464e-05,3,1
0.0001198666,1.906194e-05,3,1
0.0001658931,0.0001396385,3,1
0.0001916615,0.0002906835,3,1
0.0001931201,0.0004613383,3,1
0.0001741585,0.0006234037,3,1
0.000143204,0.0007386322,3,1
0.0001098185,0.0007817416,3,1
8.631905e-05,0.0007483562,3,1
8.486046e-05,0.0006532237,3,1
0.0001065772,0.0005206542,3,1
0.0001445005,0.0003765781,3,1
0.0001872858,0.000244981,3,1
0.0002242366,0.0001422316,3,1
0.0002521119,7.886404e-05,3,1
0.0002692908,5.56887e-05,3,1
0.000274801,6.41161e-05,3,1
0.0002681563,8.518459e-05,3,1
0.0002503292,0.0001005808,3,1
0.000227478,0.000101067,3,1
0.0002051129,8.648112e-05,3,1
0.000185503,6.476436e-05,3,1
0.0001697827,4.596478e-05,3,1
0.0001542244,3.850978e-05,3,1
0.0001328318,3.867184e-05,3,1
0.0001054428,3.818565e-05,3,1
7.610894e-05,3.299956e-05,3,1
5.455425e-05,1.97102e-05,3,1
4.807163e-05,-6.176923e-08,3,1
5.455425e-05,-2.550602e-05,3,1
6.103686e-05,-5.662256e-05,3,1
5.309566e-05,-9.114248e-05,3,1
2.295151e-05,-0.0001290658,3,1
-3.134038e-05,-0.0001637477,3,1
-0.000102325,-0.0001857886,3,1
-0.0001773612,-0.0001887058,3,1
-0.0002457528,-0.0001695821,3,1
-0.0002916173,-0.0001306864,3,1
-0.0002977757,-7.23429e-05,3,1
-0.000261149,5.448452e-06,3,1
-0.0001981056,0.0001020394,3,1
-0.0001361966,0.0002075439,3,1
-9.438378e-05,0.0003075383,3,1
-7.461182e-05,0.0003885709,3,1
-6.602235e-05,0.0004418904,3,1
-5.710876e-05,0.0004647417,3,1
-4.965376e-05,0.0004550177,3,1
-4.90055e-05,0.000418391,3,1
-6.099833e-05,0.0003704196,3,1
-8.660465e-05,0.0003297412,3,1
-0.000117235,0.0003156415,3,1
-0.0001415448,0.0003371962,3,1
-0.0001517549,0.0003874365,3,1
-0.0001489998,0.0004436732,3,1
-0.0001381414,0.0004747897,3,1
-0.0001229073,0.0004545315,3,1
-0.0001133454,0.0003720403,3,1
-0.0001144799,0.0002360674,3,1
-0.0001251762,7.20573e-05,3,1
-0.0001339277,-8.757704e-05,3,1
-0.0001298761,-0.0002178775,3,1
-0.0001063766,-0.00030831,3,1
-6.553616e-05,-0.0003627639,3,1
-1.529591e-05,-0.0003925839,3,1
2.700314e-05,-0.0004068457,3,1
3.834771e-05,-0.0004141386,3,1
1.54965e-05,-0.0004188385,3,1
-2.923353e-05,-0.0004241867,3,1
-7.509801e-05,-0.0004326141,3,1
-0.0001058904,-0.0004502792,3,1
-0.0001180453,-0.0004768579,3,1
-0.0001237176,-0.0005029504,3,1
-0.0001376552,-0.00052175,3,1
-0.0001622891,-0.0005324463,3,1
-0.0001796301,-0.0005334187,3,1
-0.0001661787,-0.0005225603,3,1
-0.0001115627,-0.0004997091,3,1
-2.453363e-05,-0.0004663236,3,1
7.351589e-05,-0.0004290486,3,1
0.0001579519,-0.0003961493,3,1
0.0002159713,-0.0003749188,3,1
0.0002480603,-0.0003656811,3,1
0.0002644289,-0.0003637363,3,1
0.0002688046,-0.0003606571,3,1
0.0002576221,-0.0003517435,3,1
0.0002282883,-0.0003374817,3,1
0.0001889064,-0.0003186821,3,1
0.0001551968,-0.0002937241,3,1
0.0001394765,-0.0002624455,3,1
0.0001402868,-0.0002287359,3,1
0.0001526038,-0.0001977815,3,1
0.0001749688,-0.0001734716,3,1
0.0002055991,-0.0001575893,3,1
0.0002402811,-0.0001465688,3,1
0.0002666978,-0.0001353863,3,1
0.0002718839,-0.0001214487,3,1
0.0002563256,-9.568031e-05,3,1
0.0002329882,-5.354332e-05,3,1
0.0002171058,4.313994e-06,3,1
0.0002133783,7.20573e-05,3,1
0.0002187264,0.0001427178,3,1
0.000225047,0.0002068957,3,1
0.0002281262,0.0002534084,3,1
0.0002221298,0.0002786906,3,1
0.0002046267,0.0002892249,3,1
0.0001707551,0.0002916559,3,1
0.000120839,0.0002892249,3,1
6.395404e-05,0.0002872801,3,1
1.290346e-05,0.0002903593,3,1
-2.226472e-05,0.0003012177,3,1
-3.944364e-05,0.0003205035,3,1
-4.38194e-05,0.0003452995,3,1
-4.041603e-05,0.0003723644,3,1
-3.344723e-05,0.000408505,3,1
-2.437157e-05,0.0004611762,3,1
-2.453363e-05,0.0005287575,3,1
-3.701266e-05,0.000596825,3,1
-5.986387e-05,0.0006431757,3,1
-8.757704e-05,0.0006499824,3,1
-0.0001125351,0.0006110868,3,1
-0.0001306864,0.0005336195,3,1
-0.000142031,0.0004307079,3,1
-0.0001468929,0.0003151553,3,1
-0.0001486757,0.0001986303,3,1
-0.0001496481,9.21534e-05,3,1
-0.000149486,4.80019e-06,3,1
-0.0001501342,-6.06742e-05,3,1
-0.0001533756,-0.00010978,3,1
-0.0001600202,-0.0001489998,3,1
-0.0001707166,-0.0001780095,3,1
-0.0001877334,-0.0001887058,3,1
-0.0002084778,-0.0001797922,3,1
-0.0002337599,-0.0001580754,3,1
-0.0002627696,-0.0001361966,3,1
-0.0002946965,-0.0001204763,3,1
-0.0003261372,-0.0001141558,3,1
-0.0003468815,-0.0001169109,3,1
-0.0003541745,-0.0001235555,3,1
-0.0003501228,-0.0001266348,3,1
-0.000335699,-0.0001203142,3,1
-0.0003091203,-0.0001088076,3,1
-0.0002681178,-0.0001002181,3,1
-0.0002146363,-9.616651e-05,3,1
-0.0001582375,-8.854943e-05,3,1
-0.0001083214,-6.44017e-05,3,1
-7.039812e-05,-1.497178e-05,3,1
-4.300908e-05,5.358185e-05,3,1
-1.950961e-05,0.0001187321,3,1
2.531276e-06,0.0001587623,3,1
2.214118e-05,0.0001628139,3,1
3.688912e-05,0.0001344524,3,1
4.369587e-05,8.518459e-05,3,1
4.207521e-05,2.716521e-05,3,1
4.272347e-05,-2.728874e-05,3,1
5.260946e-05,-6.974985e-05,3,1
7.286763e-05,-8.773911e-05,3,1
9.069481e-05,-7.979791e-05,3,1
9.993253e-05,-4.819517e-05,3,1
9.733949e-05,1.234753e-06,3,1
8.113296e-05,6.055066e-05,3,1
5.552663e-05,0.0001174356,3,1
2.700314e-05,0.0001644345,3,1
6.420843e-06,0.000192958,3,1
5.124321e-06,0.0001963614,3,1
2.927205e-05,0.0001798307,3,1
8.502253e-05,0.0001551968,3,1
0.0001691344,0.0001362352,3,1
0.0002600531,0.0001310491,3,1
0.0003279585,0.0001373696,3,1
0.0003498373,0.0001409351,3,1
0.0003227724,0.0001172735,3,1
0.0002628082,4.547859e-05,3,1
0.0001934442,-7.153257e-05,3,1
0.0001373696,-0.0002081536,3,1
0.0001094944,-0.0003288923,3,1
0.000113546,-0.0004121938,3,1
0.0001453108,-0.0004520619,3,1
0.0001856651,-0.0004543308,3,1
0.0002015475,-0.0004314796,3,1
0.0001657311,-0.0003997148,3,1
6.995045e-05,-0.0003619536,3,1
-6.715681e-05,-0.0003126857,3,1
-0.0002036158,-0.0002460769,3,1
-0.0002914552,-0.000159534,3,1
-0.0003065273,-5.435365e-05,3,1
-0.0002548284,7.157111e-05,3,1
-0.0001583996,0.0002222919,3,1
-4.138842e-05,0.0003918123,3,1
7.416415e-05,0.0005569569,3,1
0.0001717275,0.0006919574,3,1
0.0002457913,0.0007793107,3,1
0.0002905214,0.0008212856,3,1
0.0003004074,0.0008284165,3,1
0.0002783665,0.0008115617,3,1
0.000230071,0.0007725039,3,1
0.0001620036,0.0007096225,3,1
8.875003e-05,0.0006225934,3,1
2.165498e-05,0.0005190336,3,1
-3.26369e-05,0.0004078567,3,1
-6.829127e-05,0.0003000832,3,1
-8.660465e-05,0.0002033302,3,1
-8.838737e-05,0.0001235941,3,1
-8.044617e-05,6.83298e-05,3,1
-7.201877e-05,4.110282e-05,3,1
-7.007399e-05,3.494434e-05,3,1
-7.60704e-05,3.13789e-05,3,1
-9.033215e-05,1.711715e-05,3,1
-0.000107349,-8.489166e-06,3,1
-0.0001141558,-4.219875e-05,3,1
-9.422172e-05,-7.769106e-05,3,1
-4.576419e-05,-0.0001078352,3,1
1.873781e-05,-0.0001233935,3,1
8.42122e-05,-0.0001183694,3,1
0.000130887,-9.600444e-05,3,1
0.0001436902,-6.845333e-05,3,1
0.0001218114,-5.046408e-05,3,1
7.481241e-05,-5.030202e-05,3,1
1.630683e-05,-6.877746e-05,3,1
-4.43056e-05,-0.0001044318,3,1
-0.0001003802,-0.0001522411,3,1
-0.0001457585,-0.0002113949,3,1
-0.0001712027,-0.0002733039,3,1
-0.0001737958,-0.0003275957,3,1
-0.0001582375,-0.000365519,3,1
-0.0001269589,-0.0003843186,3,1
-8.935975e-05,-0.000387722,3,1
-6.132246e-05,-0.0003810773,3,1
-4.997789e-05,-0.0003732982,3,1
-5.370539e-05,-0.0003681121,3,1
-6.456377e-05,-0.0003685983,3,1
-6.958779e-05,-0.0003732982,3,1
-5.532604e-05,-0.0003781601,3,1
-2.113026e-05,-0.0003783222,3,1
2.327564e-05,-0.0003734602,3,1
6.136099e-05,-0.000365357,3,1
8.307774e-05,-0.0003544986,3,1
8.79397e-05,-0.0003454229,3,1
8.550872e-05,-0.0003395886,3,1
8.016057e-05,-0.000338292,3,1
6.78436e-05,-0.0003415334,3,1
4.434413e-05,-0.0003483401,3,1
1.079661e-05,-0.00035304,3,1
-2.923353e-05,-0.0003502849,3,1
-6.991193e-05,-0.0003369955,3,1
-9.989401e-05,-0.0003151167,3,1
-0.0001031353,-0.0002919414,3,1
-6.164659e-05,-0.0002716832,3,1
3.656499e-05,-0.000253694,3,1
0.0001838824,-0.000236353,3,1
0.0003527545,-0.0002196603,3,1
0.0004922928,-0.0002052365,3,1
0.00055955,-0.0001922712,3,1
0.0005418848,-0.0001771992,3,1
0.000458097,-0.0001558065,3,1
0.0003430306,-0.000127121,3,1
0.0002292607,-8.773911e-05,3,1
0.0001373696,-3.247483e-05,3,1
6.914012e-05,3.834771e-05,3,1
2.408596e-05,0.0001195424,3,1
-4.113403e-06,0.0002008992,3,1
-2.09682e-05,0.0002738286,3,1
-2.728874e-05,0.0003399513,3,1
-1.594417e-05,0.0003989431,3,1
1.760335e-05,0.000448211,3,1
7.432621e-05,0.0004843516,3,1
0.0001500107,0.0005012064,3,1
0.0002308813,0.0004939134,3,1
0.0002971661,0.0004597176,3,1
0.0003320101,0.0004016982,3,1
0.0003255275,0.0003276344,3,1
0.0002804733,0.0002550291,3,1
0.0002088404,0.0002031682,3,1
0.0001318594,0.0001814514,3,1
6.525056e-05,0.0001902029,3,1
1.565857e-05,0.0002187264,3,1
-2.031993e-05,0.0002495189,3,1
-4.819517e-05,0.0002694529,3,1
-6.91016e-05,0.0002751252,3,1
-7.671866e-05,0.0002662116,3,1
-6.942573e-05,0.0002470879,3,1
-5.127441e-05,0.0002187264,3,1
-3.150244e-05,0.000185503,3,1
-2.453363e-05,0.0001545486,3,1
-3.668853e-05,0.0001373696,3,1
-6.472583e-05,0.0001406109,3,1
-0.0001026491,0.0001626518,3,1
-0.0001383035,0.0001970097,3,1
-0.0001613168,0.000234933,3,1
-0.0001658546,0.0002684805,3,1
-0.0001564548,0.0002952213,3,1
-0.000144624,0.0003180725,3,1
-0.0001436516,0.0003422202,3,1
-0.0001606685,0.0003655576,3,1
-0.0001925954,0.000378847,3,1
-0.0002276015,0.0003668542,3,1
-0.0002553146,0.0003219621,3,1
-0.0002767073,0.0002430362,3,1
-0.0002946965,0.0001404489,3,1
-0.0003099306,2.829966e-05,3,1
-0.000330675,-7.688073e-05,3,1
-0.0003616295,-0.0001647201,3,1
-0.0003932322,-0.0002279256,3,1
-0.0004104111,-0.000268766,3,1
-0.0004010113,-0.0002942103,3,1
-0.0003587123,-0.0003123616,3,1
-0.000290969,-0.0003272716,3,1
-0.0002204706,-0.0003373197,3,1
-0.00016942,-0.0003340784,3,1
-0.0001415448,-0.0003143064,3,1
-0.0001269589,-0.0002849726,3,1
-0.0001125351,-0.0002545043,3,1
-8.725291e-05,-0.0002256567,3,1
-4.657452e-05,-0.0001989159,3,1
2.369211e-06,-0.0001739578,3,1
4.77475e-05,-0.0001489998,3,1
7.90261e-05,-0.0001287416,3,1
8.696731e-05,-0.0001186936,3,1
7.011252e-05,-0.000122259,3,1
3.575467e-05,-0.0001361966,3,1
-2.81688e-06,-0.0001554824,3,1
-2.615429e-05,-0.000169258,3,1
-1.513384e-05,-0.0001710407,3,1
3.656499e-05,-0.0001603444,3,1
0.0001187321,-0.0001425172,3,1
0.0002119197,-0.0001212866,3,1
0.0002952213,-0.0001018388,3,1
0.0003537269,-9.081835e-05,3,1
0.0003760919,-9.098041e-05,3,1
0.0003645853,-0.000104756,3,1
0.0003294171,-0.0001344139,3,1
0.0002863077,-0.0001818991,3,1
0.0002540567,-0.0002397564,3,1
0.0002431983,-0.0002943724,3,1
0.0002504913,-0.0003340784,3,1
0.0002634565,-0.0003507711,3,1
0.0002709115,-0.0003416954,3,1
0.000264753,-0.0003118754,3,1
0.0002495189,-0.0002677937,3,1
0.000232502,-0.0002162569,3,1
0.0002156472,-0.0001639098,3,1
0.0002054371,-0.0001094559,3,1
0.0002051129,-4.884343e-05,3,1
0.0002174299,2.133085e-05,3,1
0.0002336365,0.0001039842,3,1
0.0002401191,0.0001983062,3,1
0.0002284504,0.0003033245,3,1
0.0001984683,0.000411098,3,1
0.0001600588,0.0005107683,3,1
0.0001235941,0.0005885597,3,1
9.328786e-05,0.0006396103,3,1
6.281957e-05,0.0006704027,3,1
1.22552e-05,0.000693416,3,1
-7.65566e-05,0.0007164293,3,1
-0.0001994021,0.000738146,3,1
-0.0003228959,0.000753056,3,1
-0.000410087,0.000750625,3,1
-0.0004371519,0.000720805,3,1
-0.0004023079,0.0006655407,3,1
-0.0003194925,0.0006005525,3,1
-0.000216419,0.0005379952,3,1
-0.0001203142,0.0004793275,3,1
-6.099833e-05,0.0004166082,3,1
-5.532604e-05,0.0003448133,3,1
-0.0001013526,0.0002639427,3,1
-0.0001799543,0.0001770756,3,1
-0.0002564491,8.615699e-05,3,1
-0.0002998826,-4.113403e-06,3,1
-0.0002987481,-8.417367e-05,3,1
-0.0002595283,-0.0001525652,3,1
-0.0001969711,-0.0002063709,3,1
-0.0001300382,-0.0002415391,3,1
-7.315322e-05,-0.000251101,3,1
-3.150244e-05,-0.0002316531,3,1
-5.89612e-06,-0.0001849783,3,1
6.420843e-06,-0.0001170729,3,1
3.503668e-06,-3.944364e-05,3,1
-1.610624e-05,3.089271e-05,3,1
-4.576419e-05,7.999851e-05,3,1
-7.55842e-05,0.0001012291,3,1
-9.730096e-05,9.928428e-05,3,1
-0.0001086455,8.242948e-05,3,1
-0.0001144799,5.455425e-05,3,1
-0.0001175591,1.906194e-05,3,1
-0.0001195039,-2.275091e-05,3,1
-0.0001204763,-6.845333e-05,3,1
-0.0001180453,-0.0001170729,3,1
-0.0001032974,-0.0001632615,3,1
-6.877746e-05,-0.0002052365,3,1
-1.756482e-05,-0.0002408908,3,1
3.380988e-05,-0.000271035,3,1
6.751948e-05,-0.0002976137,3,1
7.67572e-05,-0.0003214373,3,1
6.800567e-05,-0.0003433161,3,1
5.487838e-05,-0.0003661673,3,1
5.001642e-05,-0.0003922598,3,1
5.390598e-05,-0.0004159214,3,1
6.314371e-05,-0.0004326141,3,1
7.983644e-05,-0.0004382863,3,1
0.0001067393,-0.0004347209,3,1
0.0001410971,-0.000427428,3,1
0.0001684862,-0.0004207833,3,1
0.0001761032,-0.0004177041,3,1
0.0001642725,-0.00041268,3,1
0.0001522796,-0.000402794,3,1
0.0001573037,-0.0003838324,3,1
0.0001866375,-0.0003595226,3,1
0.0002308813,-0.0003329439,3,1
0.0002681563,-0.0003000446,3,1
0.0002783665,-0.0002603387,3,1
0.0002579462,-0.0002177155,3,1
0.0002135403,-0.0001773612,3,1
0.000163138,-0.0001407345,3,1
0.0001263492,-0.000107349,3,1
0.0001156529,-7.380149e-05,3,1
0.0001302388,-3.312309e-05,3,1
0.0001624898,1.808955e-05,3,1
0.0002078681,7.935024e-05,3,1
0.0002571359,0.0001448246,3,1
0.0002952213,0.0002125679,3,1
0.0003083486,0.000282256,3,1
0.0002965178,0.0003472443,3,1
0.0002652392,0.0003971604,3,1
0.0002203471,0.0004286011,3,1
0.0001710792,0.0004435111,3,1
0.0001320215,0.0004465904,3,1
0.000110953,0.0004365423,3,1
0.0001047945,0.0004117463,3,1
9.847395e-05,0.0003743092,3,1
7.983644e-05,0.0003256896,3,1
5.050261e-05,0.0002718839,3,1
1.776542e-05,0.0002172679,3,1
-1.335113e-05,0.000165569,3,1
-3.668853e-05,0.0001211631,3,1
-4.608832e-05,9.16672e-05,3,1
-3.879538e-05,7.610894e-05,3,1
-2.501983e-05,6.881599e-05,3,1
-1.578211e-05,6.541262e-05,3,1
-1.221667e-05,6.703327e-05,3,1
-1.335113e-05,7.238143e-05,3,1
-2.84232e-05,7.837785e-05,3,1
-6.699475e-05,7.821578e-05,3,1
-0.0001358725,6.622294e-05,3,1
-0.0002248464,3.462021e-05,3,1
-0.0003144685,-1.967167e-05,3,1
-0.0003796187,-9.2439e-05,3,1
-0.0004042526,-0.0001695821,3,1
-0.0003854531,-0.000231491,3,1
-0.0003326198,-0.0002635799,3,1
-0.0002632558,-0.0002577456,3,1
-0.000196647,-0.0002225774,3,1
-0.0001567789,-0.0001757406,3,1
-0.0001642339,-0.0001355484,3,1
-0.000216581,-0.0001144799,3,1
-0.0002864312,-0.0001143178,3,1
-0.0003397507,-0.0001274451,3,1
-0.0003528779,-0.0001485136,3,1
-0.0003201407,-0.0001731475,3,1
-0.0002577456,-0.000191623,3,1
-0.0001914609,-0.0001900023,3,1
-0.0001439758,-0.000159534,3,1
-0.0001224211,-0.0001010285,3,1
-0.0001191798,-1.724069e-05,3,1
-0.0001235555,8.907416e-05,3,1
-0.0001267968,0.0002112714,3,1
-0.0001238797,0.0003337929,3,1
-0.0001191798,0.0004438352,3,1
-0.0001169109,0.0005319988,3,1
-0.0001115627,0.0005940699,3,1
-9.551824e-05,0.000629076,3,1
-6.634648e-05,0.000634262,3,1
-3.020592e-05,0.0006101143,3,1
4.962256e-06,0.0005636016,3,1
4.337174e-05,0.000497803,3,1
9.507057e-05,0.0004138531,3,1
0.0001611932,0.0003115899,3,1
0.0002299089,0.0001944166,3,1
0.0002817699,7.124698e-05,3,1
0.0002991108,-4.155049e-05,3,1
0.0002757735,-0.0001339277,3,1
0.000225047,-0.0002060468,3,1
0.0001678379,-0.0002596904,3,1
0.0001193804,-0.0002974516,3,1
7.935024e-05,-0.0003165753,3,1
4.596478e-05,-0.0003177098,3,1
2.116879e-05,-0.00030831,3,1
9.338019e-06,-0.0003013411,3,1
1.436204e-05,-0.0003105789,3,1
3.899597e-05,-0.0003387782,3,1
8.016057e-05,-0.0003765395,3,1
0.0001276457,-0.0004086284,3,1
0.0001728619,-0.0004164075,3,1
0.0002093267,-0.0003933943,3,1
0.0002337985,-0.0003413713,3,1
0.000250005,-0.0002608248,3,1
0.0002658874,-0.0001582375,3,1
0.0002827423,-5.176061e-05,3,1
0.0002931144,3.948217e-05,3,1
0.000284687,0.0001000946,3,1
0.0002487085,0.0001221355,3,1
0.0001937684,0.0001070634,3,1
0.000140773,6.638502e-05,3,1
0.0001090082,1.679302e-05,3,1
9.944634e-05,-2.89094e-05,3,1
9.490851e-05,-5.937768e-05,3,1
7.659513e-05,-7.039812e-05,3,1
3.510641e-05,-5.775702e-05,3,1
-2.339918e-05,-1.448558e-05,3,1
-8.741498e-05,7.238143e-05,3,1
-0.0001434896,0.0002081922,3,1
-0.0001833576,0.0003824125,3,1
-0.0002019951,0.0005587396,3,1
-0.0001938919,0.0006943883,3,1
-0.0001528894,0.0007642386,3,1
-8.206682e-05,0.0007665075,3,1
1.883015e-06,0.0007174017,3,1
7.886404e-05,0.0006378276,3,1
0.0001310491,0.0005460985,3,1
0.0001524417,0.0004558281,3,1
0.0001472556,0.0003762539,3,1
0.0001250527,0.0003114278,3,1
9.847395e-05,0.000257298,3,1
7.189524e-05,0.0002137024,3,1
4.758544e-05,0.0001773998,3,1
2.586868e-05,0.0001430419,3,1
8.365628e-06,0.0001093323,3,1
-1.358292e-06,7.708133e-05,3,1
-3.14101e-06,4.402e-05,3,1
-1.682422e-06,7.717366e-06,3,1
-2.978945e-06,-3.393342e-05,3,1
-1.156841e-05,-8.222889e-05,3,1
-3.312309e-05,-0.0001314967,3,1
-6.877746e-05,-0.0001771992,3,1
-0.0001110765,-0.0002173914,3,1
-0.0001477033,-0.0002520733,3,1
-0.0001695821,-0.0002775176,3,1
-0.0001724993,-0.000293562,3,1
-0.0001588858,-0.0003019894,3,1
-0.0001355484,-0.0003049066,3,1
-0.0001154523,-0.0003050687,3,1
-0.000104918,-0.0003044204,3,1
-0.0001031353,-0.0003024756,3,1
-0.000104756,-0.0002974516,3,1
-0.0001075111,-0.0002916173,3,1
-0.0001101041,-0.0002896725,3,1
-0.0001128592,-0.0002942103,3,1
-0.0001154523,-0.0003023136,3,1
-0.0001149661,-0.0003126857,3,1
-0.0001070249,-0.0003245165,3,1
-8.498399e-05,-0.0003366714,3,1
-4.641245e-05,-0.0003454229,3,1
4.638125e-06,-0.0003460712,3,1
5.730935e-05,-0.0003340784,3,1
9.280167e-05,-0.0003128478,3,1
9.604298e-05,-0.0002888622,3,1
6.41161e-05,-0.0002705488,3,1
1.22552e-05,-0.0002590421,3,1
-3.490581e-05,-0.0002532078,3,1
-6.310517e-05,-0.0002520733,3,1
-7.18567e-05,-0.0002549905,3,1
-6.877746e-05,-0.0002575835,3,1
-5.775702e-05,-0.0002543422,3,1
-4.106429e-05,-0.0002399184,3,1
-2.145439e-05,-0.0002131776,3,1
-1.520357e-06,-0.0001783336,3,1
1.9224e-05,-0.0001410586,3,1
4.385793e-05,-0.0001039456,3,1
7.027458e-05,-6.829127e-05,3,1
9.652917e-05,-3.425755e-05,3,1
0.0001192183,-3.627206e-06,3,1
0.0001315353,1.906194e-05,3,1
0.0001334801,3.170304e-05,3,1
0.0001362352,3.899597e-05,3,1
0.0001480659,4.807163e-05,3,1
0.0001668655,6.233338e-05,3,1
0.0001825859,8.502253e-05,3,1
0.0001842065,0.0001140322,3,1
0.0001726999,0.0001448246,3,1
0.0001514693,0.0001752929,3,1
0.0001302388,0.0002033302,3,1
0.0001180839,0.0002289366,3,1
0.0001261871,0.0002563256,3,1
0.0001573037,0.0002889007,3,1
0.000202844,0.0003234207,3,1
0.0002430362,0.0003525924,3,1
0.0002582704,0.0003709058,3,1
0.0002436845,0.0003780367,3,1
0.0002106232,0.0003796573,3,1
0.0001722137,0.0003760919,3,1
0.0001406109,0.0003658818,3,1
0.0001245665,0.0003509718,3,1
0.0001274836,0.0003355756,3,1
0.0001433661,0.000324393,3,1
0.0001616794,0.0003183966,3,1
0.0001746447,0.0003148312,3,1
0.000178048,0.0003098072,3,1
0.0001676758,0.000299435,3,1
0.0001477418,0.000284525,3,1
0.0001222976,0.0002686426,3,1
9.555677e-05,0.0002577842,3,1
7.124698e-05,0.0002537325,3,1
5.017848e-05,0.0002495189,3,1
2.76514e-05,0.0002388225,3,1
-3.951337e-06,0.0002192126,3,1
-4.300908e-05,0.0001897167,3,1
-8.303922e-05,0.0001500107,3,1
-0.0001178833,0.00010366,3,1
-0.0001431655,5.552663e-05,3,1
-0.0001614788,6.258778e-06,3,1
-0.0001833576,-4.106429e-05,3,1
-0.0002128535,-8.012204e-05,3,1
-0.0002476975,-0.0001042698,3,1
-0.0002780038,-0.0001114006,3,1
-0.0002914552,-0.0001062146,3,1
-0.0002771934,-0.0001000561,3,1
-0.0002358668,-0.0001034594,3,1
-0.0001773612,-0.0001203142,3,1
-0.0001229073,-0.000147055,3,1
-9.357346e-05,-0.0001760647,3,1
-9.632857e-05,-0.0001955125,3,1
-0.0001250141,-0.0002010227,3,1
-0.0001661787,-0.0001919471,3,1
-0.0002068571,-0.0001715269,3,1
-0.0002392702,-0.0001392759,3,1
-0.0002614731,-9.762509e-05,3,1
-0.0002754107,-4.074016e-05,3,1
-0.000278652,3.899597e-05,3,1
-0.0002666592,0.0001394765,3,1
-0.000238946,0.0002501671,3,1
-0.0001940539,0.0003508097,3,1
-0.0001400862,0.0004133669,3,1
-9.000802e-05,0.0004169324,3,1
-5.581224e-05,0.000353889,3,1
-4.80331e-05,0.0002409294,3,1
-7.509801e-05,0.0001078737,3,1
-0.0001326312,-1.934754e-05,3,1
-0.0002003745,-0.0001219349,3,1
-0.0002455907,-0.0001914609,3,1
-0.0002470493,-0.0002282497,3,1
-0.0002053985,-0.0002392702,3,1
-0.0001410586,-0.0002378116,3,1
-8.174268e-05,-0.0002361909,3,1
-4.317115e-05,-0.0002337599,3,1
-1.869928e-05,-0.0002253326,3,1
3.341602e-06,-0.0002052365,3,1
2.748934e-05,-0.0001712027,3,1
5.034055e-05,-0.000129714,3,1
6.557468e-05,-8.692878e-05,3,1
6.83298e-05,-4.738484e-05,3,1
6.200925e-05,-1.140634e-05,3,1
6.071273e-05,1.857574e-05,3,1
7.772959e-05,3.575467e-05,3,1
0.0001106288,3.640293e-05,3,1
0.0001464453,2.570662e-05,3,1
0.0001762653,1.12828e-05,3,1
0.00019782,-1.520357e-06,3,1
0.0002232643,-1.286493e-05,3,1
0.0002650771,-2.339918e-05,3,1
0.0003205035,-2.988179e-05,3,1
0.0003793332,-2.599222e-05,3,1
0.0004292493,-1.189254e-05,3,1
0.0004600418,9.338019e-06,3,1
0.0004647417,3.18651e-05,3,1
0.0004422146,4.920609e-05,3,1
0.0004015361,5.212327e-05,3,1
0.0003553475,3.802358e-05,3,1
0.0003117519,1.614476e-05,3,1
0.0002744769,-2.006553e-06,3,1
0.0002501671,-8.489166e-06,3,1
0.0002370398,-3.627206e-06,3,1
0.000230071,9.824215e-06,3,1
0.000225047,3.024445e-05,3,1
0.0002146748,5.131294e-05,3,1
0.0001900409,6.541262e-05,3,1
0.0001435281,6.703327e-05,3,1
7.52986e-05,5.406805e-05,3,1
-1.189254e-05,3.299956e-05,3,1
-0.0001102662,1.1769e-05,3,1
-0.0002105846,-6.220252e-06,3,1
-0.000298424,-1.967167e-05,3,1
-0.0003562813,-2.7937e-05,3,1
-0.0003739464,-2.971972e-05,3,1
-0.0003497987,-2.907146e-05,3,1
-0.0002921034,-3.911951e-05,3,1
-0.000213988,-6.81292e-05,3,1
-0.000132145,-0.0001154523,3,1
-6.326724e-05,-0.0001660166,3,1
-1.545797e-05,-0.0002053985,3,1
1.12828e-05,-0.0002237119,3,1
1.938607e-05,-0.000213988,3,1
9.013889e-06,-0.0001814128,3,1
-1.594417e-05,-0.0001353863,3,1
-4.884343e-05,-8.514606e-05,3,1
-8.125649e-05,-3.555408e-05,3,1
-0.0001054042,1.160693e-05,3,1
-0.0001182074,5.390598e-05,3,1
-0.0001214487,9.652917e-05,3,1
-0.0001216107,0.000150659,3,1
-0.00012469,0.0002195368,3,1
-0.000132145,0.0002882525,3,1
-0.0001394379,0.0003337929,3,1
-0.000144462,0.0003375204,3,1
-0.0001499722,0.0002991108,3,1
-0.0001546721,0.0002360674,3,1
-0.0001506204,0.0001709172,3,1
-0.0001290658,0.0001286181,3,1
-9.2439e-05,0.0001248906,3,1
-5.354332e-05,0.0001598967,3,1
-2.761287e-05,0.0002156472,3,1
-2.599222e-05,0.0002641047,3,1
-4.05781e-05,0.000284687,3,1
-5.354332e-05,0.0002655633,3,1
-5.078821e-05,0.0002088404,3,1
-2.826114e-05,0.0001224596,3,1
5.448452e-06,1.9224e-05,3,1
3.721326e-05,-8.611845e-05,3,1
5.455425e-05,-0.0001844921,3,1
5.633696e-05,-0.0002708729,3,1
4.434413e-05,-0.0003416954,3,1
2.262738e-05,-0.0003946908,3,1
-2.978945e-06,-0.0004296969,3,1
-2.485776e-05,-0.0004481723,3,1
-3.749886e-05,-0.0004515757,3,1
-3.652646e-05,-0.0004460655,3,1
-2.161646e-05,-0.0004394208,3,1
1.234753e-06,-0.0004360174,3,1
2.424803e-05,-0.0004332623,3,1
4.369587e-05,-0.0004235384,3,1
5.844381e-05,-0.0004016596,3,1
6.897806e-05,-0.0003642225,3,1
7.789165e-05,-0.0003168994,3,1
9.231547e-05,-0.0002622834,3,1
0.000110953,-0.0002006986,3,1
0.0001328318,-0.000132145,3,1
0.0001521176,-5.953974e-05,3,1
0.0001620036,1.322759e-05,3,1
0.0001595726,8.567078e-05,3,1
0.0001589243,0.0001576278,3,1
0.000175455,0.0002359054,3,1
0.0002149989,0.0003310377,3,1
0.0002686426,0.0004495075,3,1
0.0003196932,0.0005835356,3,1
0.0003532407,0.000710919,3,1
0.0003653956,0.0008076721,3,1
0.0003595612,0.0008564538,3,1
0.0003438409,0.0008436506,3,1
0.0003279585,0.0007608352,3,1
0.0003188828,0.0006128695,3,1
0.0003162898,0.000428439,3,1
0.0003111037,0.0002495189,3,1
0.0002955454,0.0001201907,3,1
0.0002639427,6.184718e-05,3,1
0.000217754,6.41161e-05,3,1
0.0001636242,9.652917e-05,3,1
0.0001117633,0.0001265113,3,1
7.011252e-05,0.0001326697,3,1
3.332369e-05,0.0001154908,3,1
-1.497178e-05,8.518459e-05,3,1
-8.725291e-05,5.325772e-05,3,1
-0.0001786577,2.700314e-05,3,1
-0.0002648765,8.203562e-06,3,1
-0.0003180339,-8.813297e-06,3,1
-0.0003259751,-3.036798e-05,3,1
-0.0002977757,-5.32192e-05,3,1
-0.0002515871,-7.444975e-05,3,1
-0.0002032917,-9.2439e-05,3,1
-0.0001635857,-0.0001084835,3,1
-0.000132145,-0.0001219349,3,1
-0.0001092938,-0.0001352242,3,1
-9.892161e-05,-0.0001493239,3,1
-0.0001054042,-0.0001609926,3,1
-0.0001238797,-0.000169258,3,1
-0.0001464067,-0.0001750923,3,1
-0.000164396,-0.0001807646,3,1
-0.0001731475,-0.000189192,3,1
-0.0001765509,-0.0001997262,3,1
-0.0001783336,-0.0002110708,3,1
-0.0001786577,-0.0002253326,3,1
-0.0001776853,-0.0002415391,3,1
-0.0001780095,-0.0002572594,3,1
-0.000179306,-0.0002715212,3,1
-0.000176713,-0.0002823795,3,1
-0.0001697442,-0.0002846485,3,1
-0.0001549962,-0.0002723315,3,1
-0.0001319829,-0.0002460769,3,1
-0.0001063766,-0.0002076674,3,1
-8.125649e-05,-0.0001577513,3,1
-5.937768e-05,-9.713889e-05,3,1
-4.738484e-05,-2.939559e-05,3,1
-5.095028e-05,3.769945e-05,3,1
-6.537409e-05,9.020862e-05,3,1
-8.206682e-05,0.0001116012,3,1
-8.660465e-05,9.134307e-05,3,1
-7.104638e-05,3.18651e-05,3,1
-3.360929e-05,-4.932962e-05,3,1
1.22552e-05,-0.0001302002,3,1
5.017848e-05,-0.0001911368,3,1
7.140904e-05,-0.000226467,3,1
7.140904e-05,-0.0002382978,3,1
4.871989e-05,-0.0002310048,3,1
4.962256e-06,-0.0002097743,3,1
-5.176061e-05,-0.000181737,3,1
-0.0001060525,-0.0001556445,3,1
-0.0001373311,-0.0001402483,3,1
-0.0001329553,-0.000134576,3,1
-9.503204e-05,-0.0001258245,3,1
-3.717473e-05,-0.0001057284,3,1
2.359977e-05,-7.18567e-05,3,1
7.351589e-05,-2.988179e-05,3,1
0.000108522,1.419998e-05,3,1
0.0001278078,5.649903e-05,3,1
0.0001380179,9.507057e-05,3,1
0.0001440143,0.0001266733,3,1
0.0001513072,0.0001453108,3,1
0.0001654069,0.0001522796,3,1
0.0001902029,0.0001513072,3,1
0.0002206712,0.0001488763,3,1
0.0002496809,0.000150659,3,1
0.0002725321,0.000155521,3,1
0.0002861456,0.000160707,3,1
0.000289387,0.0001668655,3,1
0.0002819319,0.000175455,3,1
0.0002626462,0.0001863134,3,1
0.0002320158,0.000192796,3,1
0.0001970097,0.0001885823,3,1
0.0001633001,0.000175455,3,1
0.0001318594,0.0001616794,3,1
9.944634e-05,0.0001539003,3,1
6.751948e-05,0.0001535762,3,1
4.580272e-05,0.0001563313,3,1
3.899597e-05,0.0001566554,3,1
4.369587e-05,0.0001529279,3,1
5.082674e-05,0.0001470936,3,1
4.920609e-05,0.0001399627,3,1
3.624086e-05,0.0001289422,3,1
1.873781e-05,0.0001141943,3,1
8.041497e-06,9.750156e-05,3,1
7.069105e-06,8.388807e-05,3,1
1.468618e-05,7.789165e-05,3,1
2.457216e-05,7.983644e-05,3,1
2.716521e-05,8.712937e-05,3,1
2.311357e-05,9.458438e-05,3,1
1.64689e-05,9.750156e-05,3,1
6.744974e-06,9.669123e-05,3,1
-1.092015e-05,9.863601e-05,3,1
-4.106429e-05,0.0001098185,3,1
-8.060823e-05,0.0001320215,3,1
-0.0001206384,0.0001642725,3,1
-0.0001540238,0.000200251,3,1
-0.0001715269,0.0002315296,3,1
-0.0001652063,0.0002470879,3,1
-0.000137007,0.0002428742,3,1
-0.000104918,0.0002227781,3,1
-9.065628e-05,0.0001937684,3,1
-0.0001026491,0.0001610312,3,1
-0.0001363587,0.0001274836,3,1
-0.0001773612,9.571884e-05,3,1
-0.000209126,7.497447e-05,3,1
-0.0002245222,7.497447e-05,3,1
-0.0002230636,9.393612e-05,3,1
-0.0002144742,0.0001166253,3,1
-0.0002100984,0.0001279698,3,1
-0.0002173914,0.0001206769,3,1
-0.000236353,9.182927e-05,3,1
-0.0002567732,5.034055e-05,3,1
-0.000266011,6.420843e-06,3,1
-0.000253694,-3.296103e-05,3,1
-0.000216419,-6.44017e-05,3,1
-0.0001600202,-8.660465e-05,3,1
-9.324933e-05,-9.778715e-05,3,1
-2.696461e-05,-9.843541e-05,3,1
3.202716e-05,-8.919769e-05,3,1
8.194328e-05,-7.526008e-05,3,1
0.0001197045,-6.164659e-05,3,1
0.0001420695,-5.22468e-05,3,1
0.0001519555,-4.965376e-05,3,1
0.0001539003,-5.370539e-05,3,1
0.0001485521,-6.39155e-05,3,1
0.0001352628,-8.206682e-05,3,1
0.0001179218,-0.0001079973,3,1
0.0001002567,-0.0001374932,3,1
8.79397e-05,-0.0001676373,3,1
8.777764e-05,-0.0001937298,3,1
0.0001031738,-0.0002112329,3,1
0.0001326697,-0.0002169052,3,1
0.0001654069,-0.0002102605,3,1
0.0001872858,-0.0001974573,3,1
0.0001890685,-0.0001851404,3,1
0.0001746447,-0.0001759026,3,1
0.0001537382,-0.0001679614,3,1
0.0001376938,-0.0001585616,3,1
0.0001372076,-0.0001477033,3,1
0.0001574657,-0.0001342519,3,1
0.0001961994,-0.0001136696,3,1
0.0002362295,-8.158062e-05,3,1
0.000259891,-4.074016e-05,3,1
0.0002594049,2.531276e-06,3,1
0.0002388225,4.288554e-05,3,1
0.0002099749,7.772959e-05,3,1
0.0001816135,0.0001038221,3,1
0.0001598967,0.0001188942,3,1
0.0001396385,0.0001203528,3,1
0.000125863,0.0001117633,3,1
0.0001305629,9.944634e-05,3,1
0.0001582761,9.004655e-05,3,1
0.0001979821,8.858796e-05,3,1
0.0002310434,9.280167e-05,3,1
0.0002436845,9.960841e-05,3,1
0.0002312055,0.0001054428,3,1
0.0001942546,0.0001041462,3,1
0.0001414213,9.458438e-05,3,1
8.064677e-05,7.837785e-05,3,1
2.068259e-05,6.022653e-05,3,1
-2.923353e-05,4.304761e-05,3,1
-6.132246e-05,3.089271e-05,3,1
-7.23429e-05,2.603075e-05,3,1
-7.088431e-05,2.992031e-05,3,1
-6.796714e-05,3.769945e-05,3,1
-7.688073e-05,4.499239e-05,3,1
-0.0001000561,4.596478e-05,3,1
-0.0001308485,3.688912e-05,3,1
-0.0001587237,1.954813e-05,3,1
-0.000179306,-4.761664e-06,3,1
-0.0001906506,-2.858527e-05,3,1
-0.0001906506,-4.722278e-05,3,1
-0.0001802784,-5.59743e-05,3,1
-0.0001648822,-5.419158e-05,3,1
-0.0001524032,-4.706071e-05,3,1
-0.0001502963,-3.911951e-05,3,1
-0.0001629374,-3.296103e-05,3,1
-0.0001831956,-3.036798e-05,3,1
-0.0002021572,-3.490581e-05,3,1
-0.000213988,-5.613637e-05,3,1
-0.0002138259,-0.0001086455,3,1
-0.0001971332,-0.0001932436,3,1
-0.0001702304,-0.0002937241,3,1
-0.0001480274,-0.0003857772,3,1
-0.0001439758,-0.0004462276,3,1
-0.0001605064,-0.0004551412,3,1
-0.0001887058,-0.0004108973,3,1
-0.0002183637,-0.0003228959,3,1
-0.0002378116,-0.0001958367,3,1
-0.0002405667,-2.971972e-05,3,1
-0.0002246843,0.0001739964,3,1
-0.0001963229,0.0004016982,3,1
-0.0001632615,0.0006277795,3,1
-0.0001373311,0.0008193408,3,1
-0.0001214487,0.0009418624,3,1
-0.0001094559,0.0009734652,3,1
-8.563225e-05,0.0009248455,3,1
-3.766092e-05,0.0008329543,3,1
2.603075e-05,0.000738146,3,1
7.886404e-05,0.0006572754,3,1
0.0001020394,0.0005786736,3,1
9.182927e-05,0.0004811103,3,1
6.362991e-05,0.0003568061,3,1
3.624086e-05,0.0002187264,3,1
1.889987e-05,8.84259e-05,3,1
1.387585e-05,-1.318906e-05,3,1
2.035846e-05,-7.882551e-05,3,1
3.753739e-05,-0.0001136696,3,1
6.022653e-05,-0.0001313347,3,1
7.870197e-05,-0.0001431655,3,1
8.648112e-05,-0.00015451,3,1
8.161915e-05,-0.0001682856,3,1
6.541262e-05,-0.0001864369,3,1
3.818565e-05,-0.0002136638,3,1
6.420843e-06,-0.0002476975,3,1
-1.707863e-05,-0.0002827037,3,1
-2.534396e-05,-0.0003138202,3,1
-1.529591e-05,-0.0003410472,3,1
1.12828e-05,-0.0003664914,3,1
4.82337e-05,-0.0003901529,3,1
8.729144e-05,-0.000405225,3,1
0.0001235941,-0.0004066836,3,1
0.0001519555,-0.0003959873,3,1
0.0001757791,-0.0003731361,3,1
0.0002010613,-0.0003314853,3,1
0.0002289366,-0.0002716832,3,1
0.0002506533,-0.0001977815,3,1
0.0002547049,-0.0001193418,3,1
0.0002339606,-4.981582e-05,3,1
0.0001923098,-1.844488e-06,3,1
0.0001441764,1.987227e-05,3,1
0.0001051186,1.290346e-05,3,1
9.199134e-05,-2.129233e-05,3,1
0.0001130598,-7.23429e-05,3,1
0.0001624898,-0.0001185315,3,1
0.0002243987,-0.0001389517,3,1
0.0002795009,-0.0001225832,3,1
0.0003145071,-7.55842e-05,3,1
0.0003206656,-1.092015e-05,3,1
0.0002965178,5.341979e-05,3,1
0.0002513016,0.0001041462,3,1
0.0002007372,0.0001370455,3,1
0.0001573037,0.0001522796,3,1
0.0001248906,0.0001503349,3,1
0.0001018773,0.0001363972,3,1
8.502253e-05,0.0001130598,3,1
7.254349e-05,8.372601e-05,3,1
6.152305e-05,5.115087e-05,3,1
5.001642e-05,2.230325e-05,3,1
3.526847e-05,1.234753e-06,3,1
1.403791e-05,-1.335113e-05,3,1
-1.513384e-05,-2.46957e-05,3,1
-4.884343e-05,-3.409549e-05,3,1
-7.963584e-05,-4.317115e-05,3,1
-0.0001011905,-5.516398e-05,3,1
-0.0001099421,-7.590833e-05,3,1
-0.0001042698,-0.0001071869,3,1
-9.065628e-05,-0.0001421931,3,1
-8.02841e-05,-0.0001679614,3,1
-8.320128e-05,-0.0001749302,3,1
-0.0001000561,-0.000159534,3,1
-0.0001263107,-0.0001308485,3,1
-0.0001538618,-0.0001031353,3,1
-0.0001757406,-8.530812e-05,3,1
-0.0001908126,-7.785312e-05,3,1
-0.0001953505,-7.542214e-05,3,1
-0.0001875713,-7.056019e-05,3,1
-0.0001665028,-5.953974e-05,3,1
-0.0001360346,-4.495386e-05,3,1
-0.0001003802,-3.279896e-05,3,1
-7.461182e-05,-2.42095e-05,3,1
-6.278104e-05,-1.99958e-05,3,1
-6.0188e-05,-1.740276e-05,3,1
-5.727083e-05,-1.513384e-05,3,1
-4.997789e-05,-1.286493e-05,3,1
-4.300908e-05,-4.761664e-06,3,1
-4.446767e-05,9.66215e-06,3,1
-6.213279e-05,2.424803e-05,3,1
-9.405965e-05,3.13789e-05,3,1
-0.0001287416,2.603075e-05,3,1
-0.0001517549,7.555301e-06,3,1
-0.0001540238,-2.388537e-05,3,1
-0.0001352242,-6.229485e-05,3,1
-0.0001067007,-9.713889e-05,3,1
-8.644259e-05,-0.0001209625,3,1
-8.514606e-05,-0.0001314967,3,1
-0.0001050801,-0.0001316588,3,1
-0.0001314967,-0.0001277692,3,1
-0.0001462447,-0.0001203142,3,1
-0.0001334415,-0.0001131834,3,1
-8.725291e-05,-0.0001091317,3,1
-2.291298e-05,-0.0001039456,3,1
2.878586e-05,-9.098041e-05,3,1
4.871989e-05,-6.521203e-05,3,1
3.510641e-05,-2.84232e-05,3,1
6.258778e-06,1.12828e-05,3,1
-1.059602e-05,4.661304e-05,3,1
-2.168618e-06,7.57848e-05,3,1
2.635488e-05,9.912221e-05,3,1
6.233338e-05,0.0001198666,3,1
9.393612e-05,0.0001391524,3,1
0.000121001,0.0001587623,3,1
0.0001566554,0.0001838824,3,1
0.0002114335,0.0002159713,3,1
0.0002791768,0.0002542187,3,1
0.0003480546,0.0002908455,3,1
0.0004013741,0.0003149933,3,1
0.0004240633,0.0003226103,3,1
0.0004102877,0.0003159656,3,1
0.0003608578,0.0002984626,3,1
0.0002869559,0.0002718839,3,1
0.0002065715,0.0002417397,3,1
0.000135749,0.0002166196,3,1
8.648112e-05,0.0002046267,3,1
5.94162e-05,0.0002067336,3,1
4.920609e-05,0.0002187264,3,1
4.693717e-05,0.0002365536,3,1
3.769945e-05,0.000257298,3,1
1.12828e-05,0.0002783665,3,1
-3.231277e-05,0.0002940868,3,1
-8.109443e-05,0.0003002453,3,1
-0.0001149661,0.0002937627,3,1
-0.0001203142,0.0002738286,3,1
-9.357346e-05,0.0002401191,3,1
-4.446767e-05,0.000195389,3,1
1.014835e-05,0.0001466074,3,1
5.423012e-05,0.0001026876,3,1
7.90261e-05,6.946425e-05,3,1
8.226741e-05,4.596478e-05,3,1
6.962632e-05,3.073064e-05,3,1
5.552663e-05,2.197911e-05,3,1
4.45062e-05,1.792748e-05,3,1
3.915804e-05,1.533444e-05,3,1
3.316162e-05,1.193106e-05,3,1
1.889987e-05,1.031041e-05,3,1
-1.043395e-05,1.371378e-05,3,1
-5.59743e-05,2.376183e-05,3,1
-0.0001126972,3.996837e-05,3,1
-0.0001671511,6.476436e-05,3,1
-0.0002097743,0.000101067,3,1
-0.0002365151,0.0001514693,3,1
-0.0002475355,0.0002067336,3,1
-0.0002433218,0.0002514636,3,1
-0.0002237119,0.0002689667,3,1
-0.0001911368,0.0002461155,3,1
-0.0001566169,0.0001756171,3,1
-0.0001292278,6.606088e-05,3,1
-0.000114804,-5.986387e-05,3,1
-0.0001143178,-0.0001755785,3,1
-0.0001243659,-0.0002624455,3,1
-0.0001352242,-0.0003160891,3,1
-0.0001452723,-0.0003421817,3,1
-0.0001538618,-0.0003523917,3,1
-0.000159372,-0.0003549848,3,1
-0.0001598582,-0.0003566054,3,1
-0.0001582375,-0.0003579019,3,1
-0.0001507825,-0.0003570916,3,1
-0.0001303623,-0.0003540124,3,1
-9.470791e-05,-0.0003465574,3,1
-5.354332e-05,-0.000328082,3,1
-1.853722e-05,-0.0002865932,3,1
1.558884e-06,-0.0002173914,3,1
-8.720959e-07,-0.000122097,3,1
-2.242678e-05,-1.173047e-05,3,1
-4.446767e-05,9.993253e-05,3,1
-4.203669e-05,0.00019782,3,1
-4.437533e-06,0.0002709115,3,1
5.811968e-05,0.0003221241,3,1
0.0001221355,0.0003550234,3,1
0.0001652449,0.0003694472,3,1
0.0001837203,0.0003640991,3,1
0.0001840444,0.0003339549,3,1
0.0001816135,0.00027707,3,1
0.0001856651,0.0001981441,3,1
0.0001991165,0.000103498,3,1
0.0002179161,6.90704e-06,3,1
0.0002365536,-7.785312e-05,3,1
0.0002506533,-0.0001457585,3,1
0.0002553532,-0.000191785,3,1
0.0002466017,-0.000216419,3,1
0.0002273159,-0.000224036,3,1
0.0002012234,-0.0002241981,3,1
0.000175455,-0.0002235498,3,1
0.0001550348,-0.0002237119,3,1
0.0001402868,-0.0002172293,3,1
0.0001310491,-0.0002002124,3,1
0.0001255389,-0.0001762268,3,1
0.0001187321,-0.000144624,3,1
0.000106091,-0.0001054042,3,1
8.696731e-05,-5.937768e-05,3,1
6.816773e-05,-4.437533e-06,3,1
5.52025e-05,6.638502e-05,3,1
5.228533e-05,0.0001563313,3,1
6.136099e-05,0.0002587566,3,1
7.821578e-05,0.0003574544,3,1
9.879808e-05,0.0004311941,3,1
0.0001187321,0.0004663623,3,1
0.0001318594,0.0004637693,3,1
0.0001323456,0.0004307079,3,1
0.0001179218,0.0003718782,3,1
9.26396e-05,0.0003002453,3,1
6.606088e-05,0.0002334744,3,1
4.35338e-05,0.0001869616,3,1
2.181705e-05,0.0001634622,3,1
-7.840905e-06,0.0001550348,3,1
-4.706071e-05,0.0001517934,3,1
-9.535618e-05,0.000143204,3,1
-0.0001468929,0.0001255389,3,1
-0.0001908126,0.0001020394,3,1
-0.0002156086,7.805372e-05,3,1
-0.0002172293,5.860588e-05,3,1
-0.0001956746,3.93201e-05,3,1
-0.0001558065,1.630683e-05,3,1
-0.0001052422,-1.562004e-05,3,1
-5.872941e-05,-5.516398e-05,3,1
-2.907146e-05,-9.730096e-05,3,1
-2.566809e-05,-0.0001352242,3,1
-4.203669e-05,-0.0001642339,3,1
-6.294311e-05,-0.0001856265,3,1
-7.266703e-05,-0.000201671,3,1
-6.893953e-05,-0.0002177155,3,1
-6.197072e-05,-0.0002431597,3,1
-6.294311e-05,-0.0002771934,3,1
-7.898758e-05,-0.0003110651,3,1
-0.0001071869,-0.0003353749,3,1
-0.0001392759,-0.000343154,3,1
-0.0001677994,-0.0003342404,3,1
-0.0001875713,-0.0003121996,3,1
-0.0001981056,-0.0002857829,3,1
-0.00019924,-0.0002647144,3,1
-0.0001919471,-0.0002546664,3,1
-0.0001797922,-0.0002570974,3,1
-0.0001656925,-0.0002682799,3,1
-0.0001548341,-0.0002818933,3,1
-0.0001511067,-0.0002912931,3,1
-0.0001553203,-0.0002921034,3,1
-0.000166989,-0.0002867553,3,1
-0.000179306,-0.0002778417,3,1
-0.0001838438,-0.0002627696,3,1
-0.0001713648,-0.0002381357,3,1
-0.0001423551,-0.0002120432,3,1
-9.989401e-05,-0.0001901644,3,1
-5.419158e-05,-0.0001783336,3,1
-1.270286e-05,-0.0001778474,3,1
2.133085e-05,-0.0001875713,3,1
4.904402e-05,-0.0002024813,3,1
7.221937e-05,-0.0002152845,3,1
8.615699e-05,-0.0002203085,3,1
8.988449e-05,-0.0002170672,3,1
9.280167e-05,-0.0002055606,3,1
0.0001056048,-0.000189192,3,1
0.0001325077,-0.0001710407,3,1
0.0001670276,-0.0001515928,3,1
0.0001932822,-0.0001329553,3,1
0.0001974959,-0.0001156143,3,1
0.000180479,-0.0001002181,3,1
0.0001569795,-9.049421e-05,3,1
0.0001462832,-9.389759e-05,3,1
0.0001603829,-0.0001120489,3,1
0.0001996027,-0.0001389517,3,1
0.000252274,-0.0001630995,3,1
0.0003007315,-0.0001741199,3,1
0.000331848,-0.0001613168,3,1
0.0003410858,-0.000119828,3,1
0.0003248792,-5.759496e-05,3,1
0.0002900352,9.338019e-06,3,1
0.0002487085,6.735741e-05,3,1
0.0002044647,0.0001132219,3,1
0.0001573037,0.0001524417,3,1
0.0001124116,0.0001911753,3,1
7.805372e-05,0.0002292607,3,1
6.055066e-05,0.0002676702,3,1
6.395404e-05,0.0003102934,3,1
8.226741e-05,0.0003618301,3,1
0.0001052807,0.0004323286,3,1
0.0001273216,0.0005376711,3,1
0.0001479039,0.0006854748,3,1
0.0001621656,0.0008686088,3,1
0.0001545486,0.001065194,3,1
0.0001132219,0.001235849,3,1
4.35338e-05,0.001334871,3,1
-3.134038e-05,0.001329523,3,1
-9.438378e-05,0.001221101,3,1
-0.0001412206,0.001039912,3,1
-0.0001804405,0.0008303613,3,1
-0.0002175534,0.0006345862,3,1
-0.0002506147,0.0004744656,3,1
-0.0002699005,0.0003519442,3,1
-0.0002640662,0.0002587566,3,1
-0.0002347323,0.0001876099,3,1
-0.0001908126,0.0001363972,3,1
-0.0001460826,0.0001005808,3,1
-0.0001117248,7.546067e-05,3,1
-9.29252e-05,5.552663e-05,3,1
-8.563225e-05,3.445814e-05,3,1
-7.995997e-05,6.582909e-06,3,1
-6.731888e-05,-2.939559e-05,3,1
-4.80331e-05,-6.893953e-05,3,1
-2.7937e-05,-0.0001045939,3,1
-1.092015e-05,-0.0001287416,3,1
1.002961e-07,-0.0001342519,3,1
1.072688e-06,-0.0001212866,3,1
-1.059602e-05,-0.0001037836,3,1
-3.377136e-05,-9.632857e-05,3,1
-5.986387e-05,-0.0001054042,3,1
-7.574627e-05,-0.0001293899,3,1
-7.363943e-05,-0.0001598582,3,1
-6.116039e-05,-0.0001896782,3,1
-4.916756e-05,-0.0002138259,3,1
-4.592625e-05,-0.0002298704,3,1
-4.997789e-05,-0.0002408908,3,1
-5.678463e-05,-0.0002504527,3,1
-6.002594e-05,-0.0002592042,3,1
-5.905355e-05,-0.000266011,3,1
-5.678463e-05,-0.0002728177,3,1
-5.872941e-05,-0.0002797865,3,1
-6.342931e-05,-0.0002844864,3,1
-6.553616e-05,-0.0002877277,3,1
-5.872941e-05,-0.0002940482,3,1
-4.300908e-05,-0.00030831,3,1
-2.615429e-05,-0.0003305129,3,1
-1.562004e-05,-0.0003546606,3,1
-1.335113e-05,-0.0003734602,3,1
-1.399939e-05,-0.0003789705,3,1
-1.62683e-05,-0.0003658432,3,1
-1.805102e-05,-0.0003339163,3,1
-2.129233e-05,-0.0002921034,3,1
-3.344723e-05,-0.0002554767,3,1
-5.257093e-05,-0.0002311669,3,1
-6.456377e-05,-0.000216581,3,1
-4.868137e-05,-0.0002047502,3,1
5.448452e-06,-0.0001890299,3,1
9.182927e-05,-0.0001700683,3,1
0.000190365,-0.0001528894,3,1
0.000274801,-0.0001425172,3,1
0.0003299033,-0.0001365208,3,1
0.0003461098,-0.0001361966,3,1
0.0003287688,-0.0001428413,3,1
0.0002958695,-0.000151917,3,1
0.000259891,-0.0001528894,3,1
0.000225209,-0.0001365208,3,1
0.0001893926,-0.0001011905,3,1
0.0001504969,-5.402952e-05,3,1
0.0001049566,-1.196227e-06,3,1
5.730935e-05,5.131294e-05,3,1
1.873781e-05,9.733949e-05,3,1
-2.492749e-06,0.0001338042,3,1
1.002961e-07,0.0001571416,3,1
2.424803e-05,0.0001673517,3,1
7.011252e-05,0.000170593,3,1
0.000138342,0.0001770756,3,1
0.00021273,0.0001918236,3,1
0.0002619979,0.0002078681,3,1
0.0002584324,0.0002138645,3,1
0.0001958752,0.0002062474,3,1
0.0001026876,0.0001895547,3,1
2.197911e-05,0.0001701068,3,1
-1.156841e-05,0.0001537382,3,1
8.689758e-06,0.0001422316,3,1
6.217132e-05,0.0001375317,3,1
0.0001211631,0.0001433661,3,1
0.0001616794,0.0001545486,3,1
0.0001712413,0.0001602208,3,1
0.0001500107,0.0001474177,3,1
0.0001141943,0.0001122495,3,1
8.080883e-05,6.136099e-05,3,1
5.552663e-05,5.124321e-06,3,1
3.721326e-05,-4.462973e-05,3,1
2.197911e-05,-7.914964e-05,3,1
1.1769e-05,-9.470791e-05,3,1
1.063454e-05,-9.843541e-05,3,1
1.744129e-05,-9.730096e-05,3,1
1.889987e-05,-9.422172e-05,3,1
3.341602e-06,-9.405965e-05,3,1
-3.425755e-05,-0.0001010285,3,1
-8.44978e-05,-0.0001175591,3,1
-0.0001293899,-0.0001439758,3,1
-0.0001592099,-0.000174282,3,1
-0.0001741199,-0.0002003745,3,1
-0.0001775233,-0.0002159328,3,1
-0.000176713,-0.0002107467,3,1
-0.0001752544,-0.0001859507,3,1
-0.0001749302,-0.0001472171,3,1
-0.0001755785,-0.000102325,3,1
-0.0001750923,-4.673658e-05,3,1
-0.0001726613,3.202716e-05,3,1
-0.0001707166,0.0001474177,3,1
-0.0001759026,0.0002966799,3,1
-0.0001885437,0.0004571246,3,1
-0.0002060468,0.0005956905,3,1
-0.0002209568,0.0006901747,3,1
-0.0002256567,0.0007334462,3,1
-0.0002096122,0.0007261531,3,1
-0.0001707166,0.0006770474,3,1
-0.0001177212,0.0006059006,3,1
-6.893953e-05,0.0005368608,3,1
-4.317115e-05,0.0004775448,3,1
-5.500191e-05,0.0004213082,3,1
-0.0001028112,0.0003561579,3,1
-0.0001673132,0.0002769079,3,1
-0.000221605,0.0001897167,3,1
-0.0002449425,0.000106091,3,1
-0.000228898,4.677511e-05,3,1
-0.0001771992,2.457216e-05,3,1
-0.0001067007,4.175109e-05,3,1
-4.592625e-05,8.891209e-05,3,1
-1.967167e-05,0.0001420695,3,1
-2.777494e-05,0.0001785342,3,1
-4.608832e-05,0.0001892305,3,1
-4.608832e-05,0.0001718896,3,1
-1.25408e-05,0.000135749,3,1
5.19612e-05,9.069481e-05,3,1
0.0001300767,4.061663e-05,3,1
0.0001960373,-1.837515e-05,3,1
0.0002294227,-8.984595e-05,3,1
0.0002253711,-0.0001684476,3,1
0.0001923098,-0.0002457528,3,1
0.0001475797,-0.0003117133,3,1
0.0001150046,-0.0003569296,3,1
0.000106091,-0.0003724878,3,1
0.0001180839,-0.0003587123,3,1
0.0001433661,-0.0003230579,3,1
0.000180479,-0.0002823795,3,1
0.0002243987,-0.0002451045,3,1
0.0002704253,-0.00021415,3,1
0.0003102934,-0.0001861127,3,1
0.0003274723,-0.0001575893,3,1
0.000309321,-0.0001274451,3,1
0.0002579462,-9.940781e-05,3,1
0.0001835583,-7.850138e-05,3,1
0.0001051186,-6.748094e-05,3,1
4.337174e-05,-6.521203e-05,3,1
1.452411e-05,-6.974985e-05,3,1
2.603075e-05,-7.623246e-05,3,1
7.254349e-05,-8.109443e-05,3,1
0.0001260251,-8.336335e-05,3,1
0.0001514693,-8.644259e-05,3,1
0.0001253768,-9.616651e-05,3,1
5.309566e-05,-0.0001109144,3,1
-4.284701e-05,-0.0001225832,3,1
-0.0001379794,-0.0001259865,3,1
-0.0002130156,-0.0001214487,3,1
-0.0002572594,-0.0001117248,3,1
-0.0002695764,-9.730096e-05,3,1
-0.000251101,-8.174268e-05,3,1
-0.000206695,-6.456377e-05,3,1
-0.0001512687,-4.576419e-05,3,1
-0.0001008664,-2.84232e-05,3,1
-6.537409e-05,-1.562004e-05,3,1
-4.544006e-05,-1.027188e-05,3,1
-4.300908e-05,-1.756482e-05,3,1
-5.305713e-05,-3.814712e-05,3,1
-6.245691e-05,-6.731888e-05,3,1
-6.553616e-05,-9.875954e-05,3,1
-6.148453e-05,-0.0001287416,3,1
-5.69467e-05,-0.0001549962,3,1
-5.808115e-05,-0.0001746061,3,1
-6.375344e-05,-0.0001880575,3,1
-6.942573e-05,-0.000196647,3,1
-7.18567e-05,-0.0002000504,3,1
-7.120844e-05,-0.0002003745,3,1
-6.553616e-05,-0.0001985918,3,1
-5.22468e-05,-0.0001964849,3,1
-3.26369e-05,-0.0001937298,3,1
-1.788895e-05,-0.0001935677,3,1
-1.529591e-05,-0.0001976194,3,1
-2.356124e-05,-0.0002060468,3,1
-3.522994e-05,-0.0002191741,3,1
-4.446767e-05,-0.0002329496,3,1
-4.544006e-05,-0.0002421874,3,1
-3.863332e-05,-0.0002382978,3,1
-2.680255e-05,-0.0002169052,3,1
-2.129233e-05,-0.000179306,3,1
-2.874733e-05,-0.000127121,3,1
-4.106429e-05,-6.148453e-05,3,1
-4.349527e-05,1.322759e-05,3,1
-3.101625e-05,8.79397e-05,3,1
-1.092015e-05,0.0001436902,3,1
7.069105e-06,0.0001641104,3,1
1.468618e-05,0.0001480659,3,1
9.175954e-06,0.0001041462,3,1
-2.654814e-06,5.050261e-05,3,1
-1.20546e-05,4.244267e-07,3,1
-7.192643e-06,-3.21507e-05,3,1
1.614476e-05,-3.247483e-05,3,1
5.115087e-05,1.12828e-05,3,1
8.080883e-05,0.0001054428,3,1
9.409818e-05,0.0002339606,3,1
9.118101e-05,0.0003553475,3,1
8.097089e-05,0.0004279528,3,1
7.027458e-05,0.0004328148,3,1
5.909208e-05,0.0003851676,3,1
5.098881e-05,0.0003172622,3,1
4.82337e-05,0.0002618358,3,1
5.179914e-05,0.0002312055,3,1
6.719535e-05,0.0002235884,3,1
9.523264e-05,0.0002294227,3,1
0.0001279698,0.0002373639,3,1
0.0001490383,0.000234933,3,1
0.000145797,0.0002187264,3,1
0.0001203528,0.0001937684,3,1
8.405014e-05,0.0001649207,3,1
5.066468e-05,0.0001404489,3,1
2.927205e-05,0.0001221355,3,1
2.992031e-05,0.0001091703,3,1
6.184718e-05,0.0001018773,3,1
0.0001269974,0.0001012291,3,1
0.0002205092,0.0001065772,3,1
0.0003230965,0.0001169494,3,1
0.0004072085,0.0001276457,3,1
0.0004495075,0.0001376938,3,1
0.0004465904,0.0001464453,3,1
0.000410936,0.0001548727,3,1
0.0003624784,0.0001615174,3,1
0.0003130485,0.0001660552,3,1
0.0002702632,0.0001699448,3,1
0.0002341226,0.0001756171,3,1
0.00019782,0.0001809652,3,1
0.0001615174,0.0001840444,3,1
0.0001328318,0.0001851789,3,1
0.0001185701,0.0001856651,3,1
0.0001179218,0.0001837203,3,1
0.0001190562,0.0001786963,3,1
0.000110953,0.0001665414,3,1
8.74535e-05,0.0001454729,3,1
6.265751e-05,0.0001151667,3,1
5.325772e-05,7.853991e-05,3,1
5.795762e-05,4.013043e-05,3,1
5.666109e-05,4.962256e-06,3,1
2.732727e-05,-2.323711e-05,3,1
-3.312309e-05,-4.236082e-05,3,1
-0.0001083214,-5.69467e-05,3,1
-0.0001747682,-7.023606e-05,3,1
-0.0002198223,-8.352541e-05,3,1
-0.0002446183,-9.649064e-05,3,1
-0.0002605007,-0.0001109144,3,1
-0.0002831898,-0.0001305243,3,1
-0.0003201407,-0.0001566169,3,1
-0.0003627639,-0.0001844921,3,1
-0.0003870737,-0.0002075054,3,1
-0.0003695707,-0.0002196603,3,1
-0.0003091203,-0.0002211189,3,1
-0.0002212809,-0.0002088019,3,1
-0.0001302002,-0.0001825473,3,1
-6.06742e-05,-0.000142031,3,1
-2.988179e-05,-8.465986e-05,3,1
-3.911951e-05,-8.002969e-06,3,1
-7.412562e-05,7.821578e-05,3,1
-0.0001180453,0.0001564933,3,1
-0.0001577513,0.0002064095,3,1
-0.0001831956,0.0002169437,3,1
-0.0001895161,0.000185503,3,1
-0.0001840059,0.0001205148,3,1
-0.0001781716,3.964424e-05,3,1
-0.0001784957,-3.733679e-05,3,1
-0.0001865989,-9.827335e-05,3,1
-0.0001963229,-0.0001313347,3,1
-0.0002039399,-0.0001261486,3,1
-0.000204102,-8.158062e-05,3,1
-0.0001969711,-6.382317e-06,3,1
-0.0001831956,8.340187e-05,3,1
-0.0001681235,0.0001689724,3,1
-0.0001582375,0.000235095,3,1
-0.0001558065,0.0002683184,3,1
-0.0001583996,0.0002576221,3,1
-0.0001577513,0.0002010613,3,1
-0.0001379794,0.000113546,3,1
-8.854943e-05,2.262738e-05,3,1
-1.448558e-05,-5.192267e-05,3,1
6.46023e-05,-9.454585e-05,3,1
0.0001273216,-9.762509e-05,3,1
0.0001641104,-6.278104e-05,3,1
0.0001741585,1.720949e-06,3,1
0.0001714034,7.951231e-05,3,1
0.0001691344,0.0001483901,3,1
0.0001707551,0.0001890685,3,1
0.0001707551,0.0001968476,3,1
0.0001586002,0.0001712413,3,1
0.0001339663,0.0001182459,3,1
0.0001020394,5.098881e-05,3,1
7.481241e-05,-1.562004e-05,3,1
6.606088e-05,-7.007399e-05,3,1
8.210535e-05,-0.0001058904,3,1
0.0001206769,-0.000122097,3,1
0.0001718896,-0.0001173971,3,1
0.0002209954,-9.924574e-05,3,1
0.0002490327,-8.093236e-05,3,1
0.0002457913,-6.521203e-05,3,1
0.0002128921,-5.516398e-05,3,1
0.0001665414,-5.240886e-05,3,1
0.0001222976,-5.759496e-05,3,1
8.631905e-05,-6.942573e-05,3,1
6.087479e-05,-9.033215e-05,3,1
4.790957e-05,-0.0001152902,3,1
4.612685e-05,-0.0001319829,3,1
5.325772e-05,-0.0001282554,3,1
6.573675e-05,-0.0001078352,3,1
7.821578e-05,-7.931171e-05,3,1
8.664318e-05,-5.516398e-05,3,1
8.437427e-05,-4.317115e-05,3,1
7.043665e-05,-4.608832e-05,3,1
5.115087e-05,-6.229485e-05,3,1
3.218923e-05,-8.498399e-05,3,1
1.436204e-05,-0.0001050801,3,1
-6.220252e-06,-0.000114804,3,1
-2.971972e-05,-0.0001128592,3,1
-5.062615e-05,-0.0001018388,3,1
-5.775702e-05,-8.806324e-05,3,1
-4.414354e-05,-7.833932e-05,3,1
-1.075808e-05,-7.169464e-05,3,1
3.494434e-05,-6.48879e-05,3,1
7.643307e-05,-5.548811e-05,3,1
9.31258e-05,-4.43056e-05,3,1
7.043665e-05,-3.425755e-05,3,1
6.744974e-06,-2.7937e-05,3,1
-8.125649e-05,-2.46957e-05,3,1
-0.0001681235,-2.777494e-05,3,1
-0.0002318152,-3.474375e-05,3,1
-0.000261311,-4.689865e-05,3,1
-0.0002577456,-6.569822e-05,3,1
-0.0002318152,-8.984595e-05,3,1
-0.0002000504,-0.0001131834,3,1
-0.0001737958,-0.0001290658,3,1
-0.0001596961,-0.0001374932,3,1
-0.0001548341,-0.0001425172,3,1
-0.000152079,-0.0001504584,3,1
-0.0001379794,-0.0001611547,3,1
-0.0001007043,-0.0001690959,3,1
-4.300908e-05,-0.0001660166,3,1
1.679302e-05,-0.000147055,3,1
5.131294e-05,-0.0001149661,3,1
4.742337e-05,-7.574627e-05,3,1
9.500085e-06,-3.587821e-05,3,1
-4.706071e-05,-5.479652e-07,3,1
-0.0001007043,3.202716e-05,3,1
-0.0001306864,6.379197e-05,3,1
-0.0001327933,9.458438e-05,3,1
-0.0001157764,0.0001214872,3,1
-9.568031e-05,0.0001419075,3,1
-8.465986e-05,0.0001517934,3,1
-8.352541e-05,0.0001487142,3,1
-8.628052e-05,0.0001351007,3,1
-8.271508e-05,0.0001143563,3,1
-7.574627e-05,9.118101e-05,3,1
-7.18567e-05,7.157111e-05,3,1
-7.201877e-05,5.666109e-05,3,1
-6.974985e-05,4.483033e-05,3,1
-5.532604e-05,3.429608e-05,3,1
-2.291298e-05,2.01964e-05,3,1
2.295151e-05,2.04508e-06,3,1
7.805372e-05,-1.513384e-05,3,1
0.0001414213,-2.647842e-05,3,1
0.0002146748,-2.939559e-05,3,1
0.0002934386,-2.696461e-05,3,1
0.0003603715,-2.177852e-05,3,1
0.0003942432,-1.659243e-05,3,1
0.0003801436,-1.707863e-05,3,1
0.0003229345,-2.680255e-05,3,1
0.0002386605,-4.657452e-05,3,1
0.0001480659,-7.444975e-05,3,1
7.20573e-05,-0.000102325,3,1
3.154097e-05,-0.0001193418,3,1
3.98063e-05,-0.0001204763,3,1
9.766362e-05,-0.0001039456,3,1
0.0001940925,-7.671866e-05,3,1
0.0003052694,-4.349527e-05,3,1
0.0004015361,-7.192643e-06,3,1
0.0004597176,3.18651e-05,3,1
0.0004673347,7.708133e-05,3,1
0.0004287631,0.000133318,3,1
0.0003608578,0.0001970097,3,1
0.0002835526,0.000259891,3,1
0.0002216436,0.0003141829,3,1
0.0001880961,0.0003496752,3,1
0.0001790204,0.0003657197,3,1
0.0001843686,0.0003652335,3,1
0.0001974959,0.0003530786,3,1
0.0002172679,0.0003375204,3,1
0.0002342847,0.0003299033,3,1
0.0002321778,0.0003355756,3,1
0.0002054371,0.0003480546,3,1
0.0001569795,0.0003584268,3,1
0.0001002567,0.000363937,3,1
4.72613e-05,0.0003686369,3,1
6.744974e-06,0.0003756057,3,1
-2.258885e-05,0.0003901916,3,1
-4.657452e-05,0.0004138531,3,1
-6.845333e-05,0.0004451317,3,1
-9.713889e-05,0.0004728449,3,1
-0.0001332795,0.0004817585,3,1
-0.000171851,0.0004577728,3,1
-0.0002071812,0.0003953777,3,1
-0.0002376495,0.0002997591,3,1
-0.000258718,0.0001876099,3,1
-0.0002658489,7.805372e-05,3,1
-0.0002559629,-1.983374e-05,3,1
-0.0002310048,-0.0001013526,3,1
-0.0002005366,-0.0001640719,3,1
-0.0001763888,-0.0002075054,3,1
-0.0001634236,-0.0002348944,3,1
-0.0001647201,-0.0002455907,3,1
-0.0001830335,-0.0002428356,3,1
-0.0002167431,-0.0002327876,3,1
-0.0002619593,-0.0002207947,3,1
-0.0003027998,-0.000208964,3,1
-0.0003217614,-0.0001961608,3,1
-0.0003154408,-0.000176875,3,1
-0.0002972895,-0.0001512687,3,1
-0.0002856209,-0.0001279313,3,1
-0.0002830278,-0.0001177212,3,1
-0.0002744383,-0.0001225832,3,1
-0.0002407288,-0.0001396,3,1
-0.000171851,-0.0001627754,3,1
-8.40116e-05,-0.0001853024,3,1
-4.275467e-06,-0.0002047502,3,1
4.969229e-05,-0.0002182017,3,1
7.562274e-05,-0.0002254946,3,1
7.967438e-05,-0.0002301945,3,1
7.140904e-05,-0.0002374874,3,1
6.217132e-05,-0.000251263,3,1
6.508849e-05,-0.000273628,3,1
8.372601e-05,-0.0002990722,3,1
0.0001127357,-0.0003217614,3,1
0.000135911,-0.0003335922,3,1
0.0001318594,-0.000333106,3,1
9.26396e-05,-0.0003240303,3,1
2.408596e-05,-0.0003094444,3,1
-5.386745e-05,-0.0002938862,3,1
-0.0001177212,-0.0002791382,3,1
-0.0001493239,-0.0002635799,3,1
-0.0001421931,-0.000246401,3,1
-0.0001011905,-0.0002267911,3,1
-3.992984e-05,-0.0002083157,3,1
3.202716e-05,-0.0001959987,3,1
0.000105929,-0.0001930815,3,1
0.0001663793,-0.0002003745,3,1
0.0001996027,-0.00021415,3,1
0.0002008992,-0.0002285739,3,1
0.0001785342,-0.0002334358,3,1
0.0001492004,-0.0002182017,3,1
0.0001261871,-0.0001773612,3,1
0.0001119254,-0.0001131834,3,1
0.0001078737,-3.506788e-05,3,1
0.0001148425,4.434413e-05,3,1
0.0001325077,0.0001090082,3,1
0.0001574657,0.0001428799,3,1
0.0001871237,0.0001338042,3,1
0.0002138645,8.04847e-05,3,1
0.0002229401,9.106227e-07,3,1
0.0002023578,-7.704279e-05,3,1
0.0001488763,-0.0001340898,3,1
7.092284e-05,-0.000164396,3,1
-1.286493e-05,-0.0001684476,3,1
-8.417367e-05,-0.0001468929,3,1
-0.0001285796,-9.276313e-05,3,1
-0.000137169,1.720949e-06,3,1
-0.0001081593,0.0001417454,3,1
-4.560212e-05,0.0003174242,3,1
3.915804e-05,0.0005102821,3,1
0.0001271595,0.0007044364,3,1
0.0001961994,0.0008856256,3,1
0.0002305572,0.001034402,3,1
0.0002235884,0.001129534,3,1
0.000177886,0.001155141,3,1
0.0001064152,0.001108466,3,1
3.170304e-05,0.00100604,3,1
-2.809907e-05,0.0008757396,3,1
-6.132246e-05,0.0007468975,3,1
-7.18567e-05,0.0006433378,3,1
-7.137051e-05,0.0005736496,3,1
-6.91016e-05,0.000532485,3,1
-6.537409e-05,0.000500396,3,1
-5.727083e-05,0.0004602039,3,1
-4.835724e-05,0.0003997535,3,1
-4.657452e-05,0.0003164518,3,1
-5.662256e-05,0.0002167816,3,1
-8.190475e-05,0.0001151667,3,1
-0.0001232314,2.197911e-05,3,1
-0.0001677994,-5.937768e-05,3,1
-0.0001968091,-0.0001285796,3,1
-0.0001987538,-0.000184168,3,1
-0.0001780095,-0.0002227395,3,1
-0.0001535376,-0.0002434839,3,1
-0.0001417068,-0.0002566112,3,1
-0.0001493239,-0.0002718453,3,1
-0.0001720131,-0.0002976137,3,1
-0.0002024813,-0.0003327818,3,1
-0.000231329,-0.0003681121,3,1
-0.0002491561,-0.000395177,3,1
-0.0002457528,-0.0004130042,3,1
-0.0002170672,-0.0004232143,3,1
-0.0001721751,-0.0004285624,3,1
-0.000122097,-0.0004316416,3,1
-7.720486e-05,-0.0004371519,3,1
-4.916756e-05,-0.0004454172,3,1
-4.219875e-05,-0.0004531963,3,1
-4.80331e-05,-0.0004528722,3,1
-5.435365e-05,-0.0004387725,3,1
-5.500191e-05,-0.0004071698,3,1
-4.657452e-05,-0.0003611433,3,1
-2.761287e-05,-0.0003037722,3,1
7.485573e-07,-0.0002421874,3,1
4.207521e-05,-0.0001859507,3,1
9.409818e-05,-0.0001418689,3,1
0.0001514693,-0.000112211,3,1
0.000205275,-9.66527e-05,3,1
0.0002477361,-9.438378e-05,3,1
0.0002728562,-0.000104756,3,1
0.0002809595,-0.00012469,3,1
0.0002739907,-0.0001454344,3,1
0.0002543808,-0.0001592099,3,1
0.0002294227,-0.0001564548,3,1
0.0002060853,-0.0001337657,3,1
0.0001947408,-9.924574e-05,3,1
0.0002018716,-6.375344e-05,3,1
0.0002258573,-3.085418e-05,3,1
0.0002506533,-2.330684e-06,3,1
0.0002496809,1.792748e-05,3,1
0.0002062474,2.862379e-05,3,1
0.0001295905,2.894792e-05,3,1
5.082674e-05,1.987227e-05,3,1
-1.844488e-06,8.203562e-06,3,1
-1.237873e-05,3.017472e-06,3,1
2.230325e-05,1.193106e-05,3,1
9.085688e-05,2.943412e-05,3,1
0.000168162,5.034055e-05,3,1
0.000225209,6.751948e-05,3,1
0.0002428742,7.400208e-05,3,1
0.0002172679,6.573675e-05,3,1
0.0001644345,4.434413e-05,3,1
0.0001104668,1.841368e-05,3,1
7.497447e-05,-2.168618e-06,3,1
5.974033e-05,-7.840905e-06,3,1
5.406805e-05,1.558884e-06,3,1
5.001642e-05,2.181705e-05,3,1
3.964424e-05,4.661304e-05,3,1
1.954813e-05,7.124698e-05,3,1
-6.706447e-06,9.150514e-05,3,1
-3.26369e-05,0.0001044704,3,1
-4.965376e-05,0.0001086841,3,1
-5.111234e-05,0.0001081979,3,1
-3.652646e-05,0.000105929,3,1
-1.092015e-05,0.0001030118,3,1
1.776542e-05,0.0001004187,3,1
4.077869e-05,9.814982e-05,3,1
5.56887e-05,9.604298e-05,3,1
6.006447e-05,9.814982e-05,3,1
5.406805e-05,0.0001056048,3,1
3.948217e-05,0.0001128978,3,1
2.100672e-05,0.0001138702,3,1
-3.465141e-06,0.0001013911,3,1
-3.749886e-05,7.092284e-05,3,1
-8.547019e-05,2.424803e-05,3,1
-0.0001480274,-2.518189e-05,3,1
-0.0002160948,-6.213279e-05,3,1
-0.000271197,-7.169464e-05,3,1
-0.0003027998,-4.738484e-05,3,1
-0.0003089583,7.23117e-06,3,1
-0.000295993,8.226741e-05,3,1
-0.0002708729,0.000162976,3,1
-0.000238946,0.0002365536,3,1
-0.0002057227,0.0002898731,3,1
-0.0001783336,0.0003174242,3,1
-0.0001600202,0.0003196932,3,1
-0.0001485136,0.0003030004,3,1
-0.0001460826,0.0002824181,3,1
-0.0001554824,0.0002712356,3,1
-0.0001729855,0.0002764217,3,1
-0.0001900023,0.0002944109,3,1
-0.0001959987,0.0003154794,3,1
-0.0001877334,0.0003230965,3,1
-0.00016942,0.0003021901,3,1
-0.0001457585,0.0002511395,3,1
-0.0001237176,0.0001811273,3,1
-0.000104756,0.0001072255,3,1
-8.547019e-05,4.385793e-05,3,1
-5.791909e-05,-2.978945e-06,3,1
-1.659243e-05,-3.004385e-05,3,1
3.478228e-05,-3.992984e-05,3,1
8.518459e-05,-4.171256e-05,3,1
0.0001235941,-4.333321e-05,3,1
0.0001406109,-5.046408e-05,3,1
0.0001323456,-6.521203e-05,3,1
0.0001062531,-9.000802e-05,3,1
7.432621e-05,-0.0001212866,3,1
4.742337e-05,-0.0001498101,3,1
3.13789e-05,-0.0001679614,3,1
3.18651e-05,-0.0001776853,3,1
4.839576e-05,-0.0001822232,3,1
7.076078e-05,-0.0001880575,3,1
9.426025e-05,-0.0001968091,3,1
0.0001174356,-0.0002050744,3,1
0.0001396385,-0.0002094502,3,1
0.0001590864,-0.0002081536,3,1
0.0001722137,-0.0002032917,3,1
0.0001769136,-0.0001997262,3,1
0.0001743205,-0.0001989159,3,1
0.000170431,-0.0002019951,3,1
0.0001650828,-0.0002099363,3,1
0.0001577899,-0.000219012,3,1
0.0001496866,-0.000226467,3,1
0.0001404489,-0.000228898,3,1
0.0001300767,-0.0002250084,3,1
0.0001237561,-0.0002100984,3,1
0.0001226217,-0.0001878955,3,1
0.0001247285,-0.0001624512,3,1
0.0001253768,-0.0001410586,3,1
0.0001177597,-0.0001251762,3,1
0.0001005808,-0.0001094559,3,1
8.372601e-05,-8.725291e-05,3,1
7.30297e-05,-5.565017e-05,3,1
7.157111e-05,-1.562004e-05,3,1
7.513654e-05,2.992031e-05,3,1
7.886404e-05,7.918817e-05,3,1
7.90261e-05,0.0001286181,3,1
7.67572e-05,0.0001749688,3,1
7.935024e-05,0.0002188885,3,1
9.020862e-05,0.0002678322,3,1
9.977047e-05,0.0003310377,3,1
9.458438e-05,0.0004125566,3,1
7.157111e-05,0.0005037994,3,1
3.996837e-05,0.0005835356,3,1
1.387585e-05,0.0006319932,3,1
2.207145e-06,0.000636531,3,1
1.234753e-06,0.0005955285,3,1
7.485573e-07,0.0005213025,3,1
-5.085794e-06,0.0004302217,3,1
-1.173047e-05,0.0003410858,3,1
-1.837515e-05,0.0002654013,3,1
-2.599222e-05,0.0002099749,3,1
-3.928157e-05,0.0001717275,3,1
-5.775702e-05,0.000145797,3,1
-7.461182e-05,0.0001269974,3,1
-8.384954e-05,0.0001107909,3,1
-8.709085e-05,9.393612e-05,3,1
-9.017008e-05,7.821578e-05,3,1
-9.811128e-05,7.124698e-05,3,1
-0.0001169109,7.481241e-05,3,1
-0.0001475412,7.999851e-05,3,1
-0.0001875713,7.999851e-05,3,1
-0.0002267911,7.465034e-05,3,1
-0.0002525595,5.876794e-05,3,1
-0.000256287,2.278944e-05,3,1
-0.0002391081,-3.587821e-05,3,1
-0.000208964,-0.0001088076,3,1
-0.0001703924,-0.0001835197,3,1
-0.0001274451,-0.0002480217,3,1
-8.320128e-05,-0.0002955068,3,1
-4.446767e-05,-0.0003233821,3,1
-1.788895e-05,-0.0003376438,3,1
-1.529591e-05,-0.0003462333,3,1
-3.393342e-05,-0.0003590364,3,1
-6.132246e-05,-0.0003804291,3,1
-7.493595e-05,-0.0004029561,3,1
-5.937768e-05,-0.0004194868,3,1
-2.031993e-05,-0.0004245108,3,1
2.505836e-05,-0.0004190006,3,1
5.730935e-05,-0.0004084663,3,1
6.687121e-05,-0.0003982562,3,1
6.006447e-05,-0.0003919357,3,1
4.871989e-05,-0.0003906392,3,1
4.483033e-05,-0.0003950149,3,1
5.293359e-05,-0.0004006872,3,1
7.076078e-05,-0.0004023079,3,1
8.777764e-05,-0.0003937184,3,1
9.182927e-05,-0.0003687603,3,1
7.465034e-05,-0.0003245165,3,1
4.239934e-05,-0.0002630937,3,1
9.500085e-06,-0.0001937298,3,1
-9.947754e-06,-0.0001276072,3,1
-9.623623e-06,-7.056019e-05,3,1
7.717366e-06,-2.518189e-05,3,1
3.93201e-05,1.031041e-05,3,1
8.42122e-05,3.737532e-05,3,1
0.0001368834,5.730935e-05,3,1
0.0001884202,7.351589e-05,3,1
0.0002281262,8.826383e-05,3,1
0.0002509774,0.0001065772,3,1
0.0002563256,0.0001289422,3,1
0.0002441707,0.0001558451,3,1
0.0002167816,0.0001820997,3,1
0.0001769136,0.0002025199,3,1
0.0001271595,0.0002185644,3,1
7.67572e-05,0.0002380122,3,1
3.672706e-05,0.0002741528,3,1
9.013889e-06,0.0003384927,3,1
-5.734056e-06,0.0004226047,3,1
-9.461558e-06,0.0005033132,3,1
4.244267e-07,0.0005550121,3,1
2.81376e-05,0.00055955,3,1
7.465034e-05,0.0005166026,3,1
0.0001378558,0.0004347596,3,1
0.000202682,0.0003342791,3,1
0.0002525981,0.0002393087,3,1
0.0002712356,0.0001691344,3,1
0.0002568118,0.0001305629,3,1
0.0002213195,0.0001190562,3,1
0.0001830721,0.0001313732,3,1
0.0001545486,0.0001624898,3,1
0.0001409351,0.0002018716,3,1
0.0001336421,0.0002360674,3,1
0.000121001,0.0002590807,3,1
9.53947e-05,0.0002652392,3,1
6.379197e-05,0.0002501671,3,1
3.348575e-05,0.0002149989,3,1
9.013889e-06,0.0001649207,3,1
-1.367526e-05,0.0001070634,3,1
-3.798505e-05,5.034055e-05,3,1
-6.0188e-05,4.962256e-06,3,1
-7.120844e-05,-2.064406e-05,3,1
-6.39155e-05,-2.534396e-05,3,1
-4.884343e-05,-1.562004e-05,3,1
-4.673658e-05,-1.520357e-06,3,1
-7.704279e-05,9.66215e-06,3,1
-0.0001376552,1.160693e-05,3,1
-0.0002130156,3.341602e-06,3,1
-0.0002827037,-1.351319e-05,3,1
-0.0003284061,-3.587821e-05,3,1
-0.0003423437,-6.116039e-05,3,1
-0.000325651,-8.563225e-05,3,1
-0.000290969,-0.0001050801,3,1
-0.0002530457,-0.000117235,3,1
-0.0002230636,-0.0001266348,3,1
-0.0002112329,-0.0001400862,3,1
-0.0002203085,-0.0001632615,3,1
-0.000243808,-0.0001961608,3,1
-0.0002703867,-0.0002347323,3,1
-0.0002917793,-0.0002692523,3,1
-0.0002990722,-0.0002888622,3,1
-0.0002883759,-0.0002919414,3,1
-0.0002574215,-0.0002828657,3,1
-0.0002062088,-0.000266173,3,1
-0.0001378173,-0.0002481838,3,1
-6.634648e-05,-0.0002329496,3,1
-5.734056e-06,-0.0002191741,3,1
3.202716e-05,-0.0002018331,3,1
4.515445e-05,-0.000176875,3,1
3.543054e-05,-0.0001402483,3,1
1.1769e-05,-9.357346e-05,3,1
-1.594417e-05,-4.317115e-05,3,1
-3.490581e-05,-1.196227e-06,3,1
-3.668853e-05,1.954813e-05,3,1
-1.99958e-05,1.403791e-05,3,1
1.322759e-05,-8.975362e-06,3,1
5.504044e-05,-3.506788e-05,3,1
9.31258e-05,-5.078821e-05,3,1
0.0001171115,-5.111234e-05,3,1
0.000123432,-3.279896e-05,3,1
0.0001167873,7.879432e-06,3,1
0.0001065772,7.610894e-05,3,1
0.000101067,0.0001694586,3,1
0.0001091703,0.0002696149,3,1
0.0001360731,0.000346596,3,1
0.0001720516,0.0003759298,3,1
0.0002015475,0.0003569682,3,1
0.0002153231,0.0003021901,3,1
0.0002085163,0.0002329882,3,1
0.000185503,0.000165569,3,1
0.0001574657,0.0001088461,3,1
0.0001341283,6.476436e-05,3,1
0.000121001,3.13789e-05,3,1
0.0001255389,6.258778e-06,3,1
0.0001462832,-1.059602e-05,3,1
0.0001718896,-1.821308e-05,3,1
0.0001908512,-1.464765e-05,3,1
0.0001958752,-1.196227e-06,3,1
0.0001814514,1.582063e-05,3,1
0.0001503349,2.586868e-05,3,1
0.0001137081,2.052053e-05,3,1
8.453633e-05,4.151929e-06,3,1
6.735741e-05,-1.529591e-05,3,1
5.763349e-05,-3.279896e-05,3,1
4.531652e-05,-4.641245e-05,3,1
2.716521e-05,-5.32192e-05,3,1
9.338019e-06,-5.111234e-05,3,1
3.503668e-06,-4.236082e-05,3,1
1.338965e-05,-3.036798e-05,3,1
3.834771e-05,-1.837515e-05,3,1
7.189524e-05,-8.813297e-06,3,1
9.912221e-05,-2.330684e-06,3,1
0.0001023635,3.179537e-06,3,1
7.724339e-05,1.063454e-05,3,1
3.380988e-05,2.878586e-05,3,1
-6.544382e-06,5.925414e-05,3,1
-1.772689e-05,0.0001000946,3,1
9.338019e-06,0.0001464453,3,1
6.119892e-05,0.0001867996,3,1
0.000105929,0.0002107852,3,1
0.0001227837,0.0002115956,3,1
0.0001051186,0.0001908512,3,1
6.362991e-05,0.0001584381,3,1
2.003433e-05,0.0001219734,3,1
-1.059602e-05,8.923623e-05,3,1
-2.177852e-05,6.136099e-05,3,1
-1.529591e-05,3.591673e-05,3,1
-2.006553e-06,1.193106e-05,3,1
4.151929e-06,-6.544382e-06,3,1
-5.57199e-06,-1.772689e-05,3,1
-3.425755e-05,-2.09682e-05,3,1
-7.704279e-05,-1.383732e-05,3,1
-0.0001232314,2.855407e-06,3,1
-0.0001677994,2.424803e-05,3,1
-0.0002058847,4.288554e-05,3,1
-0.0002345703,5.698522e-05,3,1
-0.0002499665,6.103686e-05,3,1
-0.000251263,5.277153e-05,3,1
-0.0002391081,3.316162e-05,3,1
-0.0002175534,1.257933e-05,3,1
-0.0001968091,1.234753e-06,3,1
-0.0001857886,9.500085e-06,3,1
-0.00018433,3.996837e-05,3,1
-0.0001848162,8.567078e-05,3,1
-0.0001776853,0.0001289422,3,1
-0.0001558065,0.0001492004,3,1
-0.0001232314,0.0001336421,3,1
-9.081835e-05,8.307774e-05,3,1
-6.537409e-05,8.851824e-06,3,1
-4.47918e-05,-6.991193e-05,3,1
-3.101625e-05,-0.0001408965,3,1
-3.296103e-05,-0.0001963229,3,1
-5.59743e-05,-0.0002357047,3,1
-9.081835e-05,-0.0002598524,3,1
-0.0001149661,-0.0002684419,3,1
-0.0001089697,-0.0002630937,3,1
-7.752899e-05,-0.000246401,3,1
-3.604027e-05,-0.0002219292,3,1
1.002961e-07,-0.0001943781,3,1
2.359977e-05,-0.0001721751,3,1
3.380988e-05,-0.0001627754,3,1
4.045456e-05,-0.0001705545,3,1
5.471631e-05,-0.0001898403,3,1
8.097089e-05,-0.0002122053,3,1
0.0001124116,-0.0002277635,3,1
0.0001412592,-0.0002347323,3,1
0.000168,-0.0002368392,3,1
0.0001960373,-0.0002410529,3,1
0.0002269918,-0.0002451045,3,1
0.0002530843,-0.0002465631,3,1
0.0002654013,-0.0002446183,3,1
0.0002629703,-0.0002332737,3,1
0.0002527602,-0.0002086398,3,1
0.0002415777,-0.0001733096,3,1
0.0002303951,-0.0001313347,3,1
0.0002190506,-9.049421e-05,3,1
0.0002013854,-5.856735e-05,3,1
0.0001752929,-3.441962e-05,3,1
0.0001428799,-9.785688e-06,3,1
0.0001091703,2.311357e-05,3,1
8.210535e-05,7.076078e-05,3,1
6.751948e-05,0.0001380179,3,1
7.20573e-05,0.0002310434,3,1
9.669123e-05,0.0003511338,3,1
0.0001312112,0.0004807861,3,1
0.0001568175,0.0005909906,3,1
0.0001534141,0.0006597064,3,1
0.0001128978,0.0006772094,3,1
4.466826e-05,0.0006431757,3,1
-2.745081e-05,0.0005715428,3,1
-8.368748e-05,0.0004890515,3,1
-0.0001199901,0.0004255218,3,1
-0.0001421931,0.0003997535,3,1
-0.000151917,0.0004081808,3,1
-0.0001475412,0.0004274666,3,1
-0.0001216107,0.0004298976,3,1
-6.81292e-05,0.0004007258,3,1
8.203562e-06,0.0003397893,3,1
8.648112e-05,0.0002564877,3,1
0.0001415833,0.0001665414,3,1
0.0001545486,8.129502e-05,3,1
0.0001247285,9.013889e-06,3,1
6.41161e-05,-4.414354e-05,3,1
-9.947754e-06,-7.720486e-05,3,1
-7.931171e-05,-9.389759e-05,3,1
-0.0001319829,-0.0001042698,3,1
-0.0001621271,-0.0001151281,3,1
-0.0001658546,-0.0001277692,3,1
-0.0001477033,-0.0001379794,3,1
-0.000117235,-0.0001434896,3,1
-8.012204e-05,-0.0001449482,3,1
-4.106429e-05,-0.0001457585,3,1
-9.461558e-06,-0.0001514308,3,1
3.341602e-06,-0.0001648822,3,1
-8.975362e-06,-0.0001848162,3,1
-4.592625e-05,-0.0002076674,3,1
-9.519411e-05,-0.0002245222,3,1
-0.0001394379,-0.0002306807,3,1
-0.0001596961,-0.0002225774,3,1
-0.0001536997,-0.0002034537,3,1
-0.0001293899,-0.0001754164,3,1
-9.762509e-05,-0.0001404103,3,1
-6.845333e-05,-9.892161e-05,3,1
-5.289507e-05,-5.095028e-05,3,1
-5.840528e-05,3.989864e-06,3,1
-7.866345e-05,5.957827e-05,3,1
-0.0001011905,0.000103498,3,1
-0.0001156143,0.0001235941,3,1
-0.0001131834,0.0001114392,3,1
-9.065628e-05,6.281957e-05,3,1
-5.419158e-05,-1.448558e-05,3,1
-1.643037e-05,-0.0001000561,3,1
1.241726e-05,-0.0001721751,3,1
3.218923e-05,-0.0002180396,3,1
5.050261e-05,-0.0002335979,3,1
7.221937e-05,-0.0002245222,3,1
9.782569e-05,-0.0001994021,3,1
0.000120839,-0.0001700683,3,1
0.0001328318,-0.0001447861,3,1
0.000125863,-0.0001287416,3,1
9.782569e-05,-0.0001232314,3,1
5.487838e-05,-0.0001224211,3,1
1.193106e-05,-0.0001195039,3,1
-1.448558e-05,-0.0001126972,3,1
-1.740276e-05,-0.0001042698,3,1
2.623614e-07,-9.632857e-05,3,1
2.992031e-05,-9.114248e-05,3,1
6.152305e-05,-8.465986e-05,3,1
8.956036e-05,-7.169464e-05,3,1
0.0001099806,-4.965376e-05,3,1
0.0001237561,-2.177852e-05,3,1
0.0001325077,4.47606e-06,3,1
0.000135911,2.39239e-05,3,1
0.000135911,3.202716e-05,3,1
0.0001346145,2.76514e-05,3,1
0.0001323456,1.64689e-05,3,1
0.0001269974,1.014835e-05,3,1
0.0001203528,1.630683e-05,3,1
0.0001143563,3.721326e-05,3,1
0.0001091703,6.78436e-05,3,1
0.0001031738,9.831188e-05,3,1
9.069481e-05,0.0001206769,3,1
6.930219e-05,0.0001321835,3,1
4.839576e-05,0.0001368834,3,1
3.624086e-05,0.0001378558,3,1
3.413401e-05,0.0001344524,3,1
3.996837e-05,0.0001263492,3,1
5.277153e-05,0.0001195424,3,1
7.448828e-05,0.0001174356,3,1
0.0001064152,0.0001198666,3,1
0.0001391524,0.000121001,3,1
0.0001563313,0.0001172735,3,1
0.0001516314,0.0001101427,3,1
0.0001253768,0.0001041462,3,1
7.708133e-05,0.0001030118,3,1
1.063454e-05,0.0001054428,3,1
-5.678463e-05,0.0001124116,3,1
-0.0001010285,0.0001260251,3,1
-0.0001065387,0.0001474177,3,1
-7.671866e-05,0.0001748067,3,1
-3.21507e-05,0.0002054371,3,1
5.124321e-06,0.0002365536,3,1
2.230325e-05,0.0002655633,3,1
2.295151e-05,0.0002900352,3,1
1.9224e-05,0.000304297,3,1
1.468618e-05,0.0003052694,3,1
5.448452e-06,0.0002880904,3,1
-1.270286e-05,0.0002480603,3,1
-3.847125e-05,0.0001902029,3,1
-6.796714e-05,0.0001242423,3,1
-9.486997e-05,5.957827e-05,3,1
-0.0001173971,3.503668e-06,3,1
-0.0001334415,-4.203669e-05,3,1
-0.0001425172,-7.720486e-05,3,1
-0.0001488377,-0.0001050801,3,1
-0.0001600202,-0.0001337657,3,1
-0.0001784957,-0.0001671511,3,1
-0.0002076674,-0.0002029675,3,1
-0.0002475355,-0.0002332737,3,1
-0.0002869174,-0.0002494803,3,1
-0.0003094444,-0.0002504527,3,1
-0.000295993,-0.0002451045,3,1
-0.0002378116,-0.0002465631,3,1
-0.000149486,-0.0002622834,3,1
-5.937768e-05,-0.0002901587,3,1
5.286387e-06,-0.0003131719,3,1
3.478228e-05,-0.0003102548,3,1
3.267542e-05,-0.0002694143,3,1
8.689758e-06,-0.0001976194,3,1
-2.955766e-05,-0.0001186936,3,1
-7.299116e-05,-5.921561e-05,3,1
-0.0001089697,-3.506788e-05,3,1
-0.0001292278,-4.560212e-05,3,1
-0.0001284175,-7.671866e-05,3,1
-0.0001086455,-0.0001144799,3,1
-7.639453e-05,-0.0001434896,3,1
-4.300908e-05,-0.0001464067,3,1
-1.578211e-05,-0.0001089697,3,1
3.017472e-06,-3.328516e-05,3,1
1.64689e-05,6.670914e-05,3,1
2.781346e-05,0.0001671896,3,1
4.013043e-05,0.0002438466,3,1
5.017848e-05,0.0002869559,3,1
5.828175e-05,0.0002947351,3,1
6.395404e-05,0.0002717218,3,1
6.573675e-05,0.0002328261,3,1
6.265751e-05,0.0001897167,3,1
6.071273e-05,0.0001459591,3,1
6.865393e-05,0.0001002567,3,1
9.280167e-05,5.844381e-05,3,1
0.0001355869,2.862379e-05,3,1
0.0001944166,1.338965e-05,3,1
0.000259729,1.452411e-05,3,1
0.000314345,3.089271e-05,3,1
0.0003467581,5.56887e-05,3,1
0.0003527545,7.740546e-05,3,1
0.0003331446,8.84259e-05,3,1
0.0002952213,8.907416e-05,3,1
0.0002488706,8.502253e-05,3,1
0.0002083542,7.691926e-05,3,1
0.0001843686,6.557468e-05,3,1
0.0001772377,5.260946e-05,3,1
0.0001801549,4.094075e-05,3,1
0.0001869616,3.18651e-05,3,1
0.0001991165,2.76514e-05,3,1
0.0002198609,2.700314e-05,3,1
0.0002467637,2.732727e-05,3,1
0.0002624841,2.700314e-05,3,1
0.0002503292,2.376183e-05,3,1
0.0002094887,1.695509e-05,3,1
0.0001522796,5.772582e-06,3,1
9.63671e-05,-9.947754e-06,3,1
5.585077e-05,-2.728874e-05,3,1
3.510641e-05,-4.219875e-05,3,1
2.959619e-05,-4.300908e-05,3,1
3.121684e-05,-2.09682e-05,3,1
3.121684e-05,3.008238e-05,3,1
2.473423e-05,0.0001049566,3,1
5.772582e-06,0.0001820997,3,1
-2.664048e-05,0.0002376881,3,1
-6.796714e-05,0.0002508154,3,1
-0.0001091317,0.0002193747,3,1
-0.0001438137,0.000155521,3,1
-0.0001736337,8.275361e-05,3,1
-0.000206695,2.262738e-05,3,1
-0.0002454286,-1.3027e-05,3,1
-0.0002815692,-1.918548e-05,3,1
-0.0002990722,4.151929e-06,3,1
-0.0002870794,5.504044e-05,3,1
-0.0002478596,0.0001305629,3,1
-0.000194216,0.0002256952,3,1
-0.0001438137,0.0003294171,3,1
-0.0001112386,0.0004279528,3,1
-0.0001065387,0.0005050959,3,1
-0.0001251762,0.0005426951,3,1
-0.0001511067,0.0005318367,3,1
-0.0001720131,0.0004702519,3,1
-0.0001833576,0.0003631267,3,1
-0.0001872472,0.0002232643,3,1
-0.0001797922,7.221937e-05,3,1
-0.0001582375,-6.586029e-05,3,1
-0.0001232314,-0.0001710407,3,1
-8.125649e-05,-0.0002360289,3,1
-4.268495e-05,-0.0002658489,3,1
-1.902341e-05,-0.0002694143,3,1
-1.610624e-05,-0.0002621213,3,1
-3.620233e-05,-0.0002582318,3,1
-7.120844e-05,-0.0002671454,3,1
-9.811128e-05,-0.0002878898,3,1
-9.227693e-05,-0.0003131719,3,1
-4.414354e-05,-0.0003327818,3,1
3.283749e-05,-0.0003408851,3,1
0.0001153287,-0.0003347266,3,1
0.0001790204,-0.0003188442,3,1
0.0002078681,-0.0002942103,3,1
0.0002043026,-0.0002595283,3,1
0.0001746447,-0.0002131776,3,1
0.0001294284,-0.0001598582,3,1
7.481241e-05,-0.0001063766,3,1
2.035846e-05,-6.261898e-05,3,1
-2.291298e-05,-3.944364e-05,3,1
-4.706071e-05,-4.625038e-05,3,1
-4.868137e-05,-8.579432e-05,3,1
-3.506788e-05,-0.0001477033,3,1
-1.25408e-05,-0.0002170672,3,1
1.144487e-05,-0.0002794623,3,1
3.121684e-05,-0.0003240303,3,1
3.834771e-05,-0.0003467195,3,1
3.105477e-05,-0.0003491504,3,1
1.209313e-05,-0.0003329439,3,1
-4.761664e-06,-0.0003002067,3,1
-3.303076e-06,-0.0002580697,3,1
2.181705e-05,-0.0002143121,3,1
6.119892e-05,-0.000176875,3,1
0.0001007429,-0.0001433275,3,1
0.0001244044,-0.00010978,3,1
0.000125863,-7.201877e-05,3,1
0.0001065772,-3.036798e-05,3,1
8.04847e-05,1.403791e-05,3,1
6.200925e-05,6.087479e-05,3,1
5.974033e-05,0.0001117633,3,1
7.594687e-05,0.0001738343,3,1
0.0001049566,0.0002551911,3,1
0.0001380179,0.0003525924,3,1
0.0001678379,0.000450642,3,1
0.000185341,0.0005214646,3,1
0.0001864754,0.000539778,3,1
0.0001689724,0.0005013684,3,1
0.0001351007,0.0004187151,3,1
9.750156e-05,0.0003124002,3,1
6.508849e-05,0.0002046267,3,1
4.531652e-05,0.0001177597,3,1
3.737532e-05,6.525056e-05,3,1
3.55926e-05,5.131294e-05,3,1
3.462021e-05,7.092284e-05,3,1
2.781346e-05,0.0001164632,3,1
1.12828e-05,0.0001775618,3,1
-9.299493e-06,0.000247412,3,1
-2.664048e-05,0.0003133726,3,1
-3.247483e-05,0.0003576164,3,1
-2.031993e-05,0.0003691231,3,1
3.665733e-06,0.0003512959,3,1
2.894792e-05,0.0003130485,3,1
4.904402e-05,0.0002655633,3,1
5.909208e-05,0.0002145127,3,1
5.504044e-05,0.0001663793,3,1
3.445814e-05,0.0001232699,3,1
-2.006553e-06,8.631905e-05,3,1
-4.592625e-05,5.439218e-05,3,1
-8.709085e-05,2.522042e-05,3,1
-0.0001159385,2.623614e-07,3,1
-0.0001306864,-1.934754e-05,3,1
-0.0001318209,-3.458168e-05,3,1
-0.0001225832,-4.916756e-05,3,1
-0.0001099421,-6.748094e-05,3,1
-0.0001045939,-8.984595e-05,3,1
-0.0001165867,-0.0001105903,3,1
-0.0001431655,-0.000127121,3,1
-0.0001697442,-0.0001408965,3,1
-0.0001804405,-0.0001527273,3,1
-0.0001713648,-0.0001621271,3,1
-0.0001491618,-0.0001716889,3,1
-0.0001258245,-0.000184168,3,1
-0.0001136696,-0.0001984297,3,1
-0.000119666,-0.0002110708,3,1
-0.0001373311,-0.000221605,3,1
-0.0001514308,-0.000228898,3,1
-0.0001509446,-0.0002310048,3,1
-0.0001323071,-0.0002282497,3,1
-0.0001041077,-0.0002224154,3,1
-7.477388e-05,-0.0002185258,3,1
-5.257093e-05,-0.0002211189,3,1
-4.122636e-05,-0.0002326255,3,1
-3.474375e-05,-0.000251263,3,1
-2.226472e-05,-0.0002690902,3,1
2.04508e-06,-0.0002768693,3,1
3.883391e-05,-0.0002681178,3,1
7.805372e-05,-0.0002402425,3,1
0.0001127357,-0.0001971332,3,1
0.0001414213,-0.0001504584,3,1
0.0001602208,-0.0001086455,3,1
0.0001620036,-7.250496e-05,3,1
0.0001440143,-4.187462e-05,3,1
0.0001041462,-1.886135e-05,3,1
5.536457e-05,-5.409925e-06,3,1
1.59827e-05,-2.654814e-06,3,1
-2.654814e-06,-7.030578e-06,3,1
-3.465141e-06,-9.299493e-06,3,1
6.096713e-06,-4.923729e-06,3,1
1.954813e-05,6.744974e-06,3,1
3.705119e-05,2.230325e-05,3,1
6.136099e-05,3.688912e-05,3,1
9.328786e-05,4.418206e-05,3,1
0.0001274836,4.045456e-05,3,1
0.0001574657,2.230325e-05,3,1
0.0001761032,-7.192643e-06,3,1
0.0001783722,-3.960571e-05,3,1
0.0001649207,-6.958779e-05,3,1
0.0001422316,-9.19528e-05,3,1
0.0001174356,-0.0001024871,3,1
0.0001020394,-0.0001020008,3,1
0.0001015532,-9.438378e-05,3,1
0.0001143563,-7.866345e-05,3,1
0.0001391524,-5.500191e-05,3,1
0.0001675138,-2.550602e-05,3,1
0.000187934,8.851824e-06,3,1
0.0001895547,4.418206e-05,3,1
0.000170431,7.837785e-05,3,1
0.0001375317,0.000105929,3,1
0.0001041462,0.0001278078,3,1
8.016057e-05,0.000145635,3,1
6.670914e-05,0.0001624898,3,1
6.281957e-05,0.0001833962,3,1
6.330578e-05,0.00021273,3,1
6.379197e-05,0.0002537325,3,1
6.103686e-05,0.0003188828,3,1
5.682316e-05,0.0004148255,3,1
5.179914e-05,0.0005345919,3,1
4.790957e-05,0.0006543582,3,1
4.483033e-05,0.0007467355,3,1
3.964424e-05,0.0007947069,3,1
3.445814e-05,0.0007963275,3,1
2.441009e-05,0.0007655351,3,1
7.879432e-06,0.0007253428,3,1
-1.335113e-05,0.0006840162,3,1
-3.847125e-05,0.0006371793,3,1
-6.893953e-05,0.000577053,3,1
-0.0001060525,0.0004982892,3,1
-0.0001460826,0.0004051016,3,1
-0.0001796301,0.0003089969,3,1
-0.0001969711,0.0002209954,3,1
-0.000196647,0.0001503349,3,1
-0.0001856265,0.0001020394,3,1
-0.0001723372,7.076078e-05,3,1
-0.0001614788,4.256141e-05,3,1
-0.0001572651,7.555301e-06,3,1
-0.0001596961,-3.604027e-05,3,1
-0.0001637477,-8.595638e-05,3,1
-0.0001575893,-0.0001378173,3,1
-0.0001352242,-0.0001893541,3,1
-9.649064e-05,-0.0002360289,3,1
-4.689865e-05,-0.0002713591,3,1
1.072688e-06,-0.0002896725,3,1
3.624086e-05,-0.0002888622,3,1
5.212327e-05,-0.0002739521,3,1
5.471631e-05,-0.0002567732,3,1
5.358185e-05,-0.0002478596,3,1
5.066468e-05,-0.0002502906,3,1
4.239934e-05,-0.000261149,3,1
2.76514e-05,-0.0002781658,3,1
2.855407e-06,-0.000300855,3,1
-3.166451e-05,-0.0003251648,3,1
-6.504996e-05,-0.0003460712,3,1
-8.303922e-05,-0.0003608192,3,1
-7.526008e-05,-0.0003681121,3,1
-4.868137e-05,-0.0003664914,3,1
-2.09682e-05,-0.000355633,3,1
-5.247859e-06,-0.0003410472,3,1
-4.761664e-06,-0.0003275957,3,1
-1.643037e-05,-0.0003185201,3,1
-3.587821e-05,-0.0003159271,3,1
-4.673658e-05,-0.000318196,3,1
-3.490581e-05,-0.0003206269,3,1
-1.196227e-06,-0.0003156029,3,1
4.061663e-05,-0.0002968033,3,1
6.330578e-05,-0.0002608248,3,1
3.769945e-05,-0.0002122053,3,1
-4.38194e-05,-0.0001632615,3,1
-0.0001624512,-0.0001219349,3,1
-0.0002783279,-9.276313e-05,3,1
-0.0003512573,-7.623246e-05,3,1
-0.0003600088,-6.634648e-05,3,1
-0.0003016653,-5.727083e-05,3,1
-0.0001911368,-4.446767e-05,3,1
-5.32192e-05,-2.664048e-05,3,1
8.129502e-05,-5.89612e-06,3,1
0.0001843686,1.306552e-05,3,1
0.0002368777,2.538249e-05,3,1
0.0002394708,3.056858e-05,3,1
0.000210137,3.024445e-05,3,1
0.0001733481,2.878586e-05,3,1
0.0001464453,3.008238e-05,3,1
0.0001380179,4.045456e-05,3,1
0.0001470936,5.633696e-05,3,1
0.0001676758,7.286763e-05,3,1
0.0001934442,8.486046e-05,3,1
0.0002185644,9.344993e-05,3,1
0.0002362295,0.0001088461,3,1
0.0002415777,0.00013818,3,1
0.0002412535,0.0001832341,3,1
0.0002396328,0.0002328261,3,1
0.0002368777,0.0002777182,3,1
0.000230071,0.0003089969,3,1
0.0002112714,0.0003250413,3,1
0.000170593,0.0003276344,3,1
0.0001091703,0.0003180725,3,1
3.996837e-05,0.0002958695,3,1
-2.145439e-05,0.0002644289,3,1
-6.294311e-05,0.000227478,3,1
-8.44978e-05,0.000185503,3,1
-8.919769e-05,0.0001425557,3,1
-7.817725e-05,0.0001054428,3,1
