EMG1,EMG2,class,user
-0.0002632558,6.395404e-05,3,1
-0.0002263049,-4.689865e-05,3,1
-0.0001895161,-0.0001285796,3,1
-0.0001590478,-0.0001840059,3,1
-0.0001387897,-0.0002199844,3,1
-0.0001303623,-0.0002417012,3,1
-0.0001306864,-0.0002545043,3,1
-0.0001329553,-0.0002593663,3,1
-0.0001266348,-0.0002603387,3,1
-0.0001050801,-0.0002600145,3,1
-6.845333e-05,-0.0002600145,3,1
-2.015787e-05,-0.0002592042,3,1
2.586868e-05,-0.0002569353,3,1
5.714729e-05,-0.0002520733,3,1
6.622294e-05,-0.0002460769,3,1
5.131294e-05,-0.0002436459,3,1
2.505836e-05,-0.0002439701,3,1
5.772582e-06,-0.0002449425,3,1
1.371378e-05,-0.0002429977,3,1
6.055066e-05,-0.0002348944,3,1
0.000140773,-0.0002186879,3,1
0.0002273159,-0.0001981056,3,1
0.0002851732,-0.0001802784,3,1
0.0002911697,-0.0001660166,3,1
0.0002443328,-0.0001553203,3,1
0.0001641104,-0.0001454344,3,1
8.064677e-05,-0.0001355484,3,1
2.181705e-05,-0.0001293899,3,1
6.744974e-06,-0.0001256624,3,1
3.510641e-05,-0.0001195039,3,1
9.037068e-05,-0.0001117248,3,1
0.0001474177,-0.0001071869,3,1
0.000185503,-0.0001054042,3,1
0.0001961994,-0.0001026491,3,1
0.0001840444,-9.681477e-05,3,1
0.0001626518,-8.433573e-05,3,1
0.0001435281,-6.731888e-05,3,1
0.0001342904,-4.80331e-05,3,1
0.0001454729,-2.388537e-05,3,1
0.0001791825,6.420843e-06,3,1
0.0002195368,3.93201e-05,3,1
0.000244981,6.978839e-05,3,1
0.0002412535,9.085688e-05,3,1
0.0002093267,9.993253e-05,3,1
0.0001621656,9.993253e-05,3,1
0.0001143563,0.0001004187,3,1
7.740546e-05,0.000110953,3,1
5.536457e-05,0.0001391524,3,1
4.839576e-05,0.0001863134,3,1
5.585077e-05,0.0002457913,3,1
7.853991e-05,0.0003036487,3,1
0.0001107909,0.0003444891,3,1
0.0001372076,0.0003563199,3,1
0.0001449867,0.000331848,3,1
0.0001351007,0.0002756114,3,1
0.000113546,0.0002031682,3,1
9.085688e-05,0.00013818,3,1
7.076078e-05,9.814982e-05,3,1
5.1475e-05,8.972242e-05,3,1
3.364782e-05,0.0001067393,3,1
2.068259e-05,0.0001344524,3,1
1.371378e-05,0.0001584381,3,1
2.855407e-06,0.0001717275,3,1
-1.853722e-05,0.0001752929,3,1
-5.548811e-05,0.0001767515,3,1
-0.0001018388,0.0001801549,3,1
-0.0001468929,0.0001842065,3,1
-0.0001828714,0.0001837203,3,1
-0.000204102,0.000170431,3,1
-0.0002088019,0.0001406109,3,1
-0.0001968091,9.458438e-05,3,1
-0.0001697442,4.013043e-05,3,1
-0.0001336036,-1.448558e-05,3,1
-9.535618e-05,-6.229485e-05,3,1
-6.083626e-05,-0.0001026491,3,1
-3.360929e-05,-0.0001405724,3,1
-1.788895e-05,-0.0001763888,3,1
-1.335113e-05,-0.0002075054,3,1
-2.113026e-05,-0.0002350565,3,1
-4.187462e-05,-0.0002598524,3,1
-7.65566e-05,-0.0002776796,3,1
-0.0001209625,-0.0002880518,3,1
-0.0001575893,-0.0002951827,3,1
-0.0001726613,-0.0003021515,3,1
-0.0001650443,-0.0003126857,3,1
-0.0001452723,-0.00032322,3,1
-0.0001253383,-0.000325651,3,1
-0.0001125351,-0.0003105789,3,1
-0.0001086455,-0.0002744383,3,1
-0.0001078352,-0.0002178775,3,1
-0.0001010285,-0.0001480274,3,1
-8.644259e-05,-7.493595e-05,3,1
-6.829127e-05,-7.840905e-06,3,1
-5.565017e-05,5.439218e-05,3,1
-5.338126e-05,0.0001153287,3,1
-5.791909e-05,0.0001761032,3,1
-6.180866e-05,0.0002315296,3,1
-5.986387e-05,0.0002684805,3,1
-5.159854e-05,0.0002749631,3,1
-4.300908e-05,0.000249843,3,1
-3.63644e-05,0.0002070577,3,1
-2.712668e-05,0.000165569,3,1
-1.221667e-05,0.0001474177,3,1
6.90704e-06,0.0001644345,3,1
3.154097e-05,0.0002196988,3,1
6.78436e-05,0.0003077003,3,1
0.0001205148,0.0004132049,3,1
0.00018291,0.0005204921,3,1
0.0002380122,0.0006128695,3,1
0.0002641047,0.0006776956,3,1
0.0002509774,0.0007050846,3,1
0.000202844,0.0006919574,3,1
0.0001355869,0.0006447964,3,1
7.027458e-05,0.0005713807,3,1
2.359977e-05,0.0004796517,3,1
5.610517e-06,0.0003794953,3,1
1.760335e-05,0.0002814457,3,1
5.52025e-05,0.0001934442,3,1
0.0001038221,0.0001231079,3,1
0.0001474177,7.400208e-05,3,1
0.0001751309,3.996837e-05,3,1
0.0001817755,1.565857e-05,3,1
0.0001718896,-2.492749e-06,3,1
0.00015309,-1.788895e-05,3,1
0.000135749,-2.599222e-05,3,1
0.0001310491,-2.907146e-05,3,1
0.0001412592,-3.360929e-05,3,1
0.0001594105,-4.252288e-05,3,1
0.0001720516,-5.402952e-05,3,1
0.0001697827,-6.715681e-05,3,1
0.0001487142,-8.174268e-05,3,1
0.0001114392,-9.875954e-05,3,1
6.006447e-05,-0.0001182074,3,1
5.86492e-07,-0.0001376552,3,1
-5.808115e-05,-0.0001574272,3,1
-0.0001102662,-0.0001747682,3,1
-0.0001522411,-0.0001888679,3,1
-0.0001849783,-0.0001997262,3,1
-0.0002128535,-0.0002117191,3,1
-0.000241377,-0.0002285739,3,1
-0.000268766,-0.0002499665,3,1
-0.0002911311,-0.0002754107,3,1
-0.0002992343,-0.0003062031,3,1
-0.0002852967,-0.0003387782,3,1
-0.0002386219,-0.0003656811,3,1
-0.0001574272,-0.0003822118,3,1
-5.921561e-05,-0.0003895047,3,1
2.359977e-05,-0.0003896668,3,1
6.557468e-05,-0.0003836704,3,1
5.893001e-05,-0.00036795,3,1
2.035846e-05,-0.000338292,3,1
-2.583016e-05,-0.0002951827,3,1
-6.342931e-05,-0.0002480217,3,1
-8.709085e-05,-0.0002050744,3,1
-0.0001055663,-0.000171851,3,1
-0.0001340898,-0.0001483515,3,1
-0.0001791439,-0.0001305243,3,1
-0.0002335979,-0.0001110765,3,1
-0.0002776796,-7.704279e-05,3,1
-0.0002888622,-1.529591e-05,3,1
-0.0002556388,7.319176e-05,3,1
-0.0001924333,0.0001715654,3,1
-0.0001201522,0.0002514636,3,1
-5.483985e-05,0.0002877662,3,1
-2.81688e-06,0.0002684805,3,1
3.526847e-05,0.0001997648,3,1
6.476436e-05,0.0001015532,3,1
9.037068e-05,4.244267e-07,3,1
0.0001150046,-8.141856e-05,3,1
0.000133318,-0.0001323071,3,1
0.0001410971,-0.0001536997,3,1
0.0001363972,-0.0001564548,3,1
0.000121001,-0.0001509446,3,1
0.0001015532,-0.0001417068,3,1
9.053275e-05,-0.0001332795,3,1
8.939829e-05,-0.0001305243,3,1
9.53947e-05,-0.0001352242,3,1
9.863601e-05,-0.0001417068,3,1
8.631905e-05,-0.0001438137,3,1
5.601284e-05,-0.0001358725,3,1
1.906194e-05,-0.0001186936,3,1
-5.409925e-06,-9.713889e-05,3,1
-6.544382e-06,-7.963584e-05,3,1
1.387585e-05,-6.796714e-05,3,1
4.985435e-05,-5.791909e-05,3,1
8.972242e-05,-4.625038e-05,3,1
0.0001302388,-2.923353e-05,3,1
0.0001654069,-1.196227e-06,3,1
0.0001885823,3.316162e-05,3,1
0.0001934442,6.78436e-05,3,1
0.0001798307,9.53947e-05,3,1
0.00015309,0.0001127357,3,1
0.0001218114,0.0001239182,3,1
8.84259e-05,0.0001339663,3,1
4.920609e-05,0.000140773,3,1
7.485573e-07,0.0001423936,3,1
-5.305713e-05,0.0001346145,3,1
-9.551824e-05,0.0001122495,3,1
-0.0001089697,7.756752e-05,3,1
-9.065628e-05,4.385793e-05,3,1
-5.127441e-05,2.327564e-05,3,1
-5.734056e-06,1.760335e-05,3,1
2.797553e-05,2.068259e-05,3,1
3.98063e-05,2.457216e-05,3,1
3.299956e-05,2.570662e-05,3,1
1.841368e-05,2.197911e-05,3,1
4.962256e-06,9.013889e-06,3,1
-3.465141e-06,-1.562004e-05,3,1
-8.165035e-06,-5.192267e-05,3,1
-8.651231e-06,-8.919769e-05,3,1
-1.196227e-06,-0.0001170729,3,1
1.9224e-05,-0.0001314967,3,1
5.406805e-05,-0.0001379794,3,1
9.863601e-05,-0.0001426792,3,1
0.0001474177,-0.000147055,3,1
0.0001932822,-0.0001491618,3,1
0.000227478,-0.0001426792,3,1
0.0002393087,-0.0001195039,3,1
0.0002208333,-6.683268e-05,3,1
0.0001741585,2.084466e-05,3,1
0.0001099806,0.0001367214,3,1
4.142696e-05,0.0002654013,3,1
-1.643037e-05,0.0003851676,3,1
-5.046408e-05,0.0004741415,3,1
-6.06742e-05,0.0005209784,3,1
-5.840528e-05,0.0005282713,3,1
-5.759496e-05,0.0005133613,3,1
-6.116039e-05,0.0004997478,3,1
-6.278104e-05,0.0005133613,3,1
-6.035007e-05,0.0005704083,3,1
-5.840528e-05,0.0006665131,3,1
-5.710876e-05,0.0007768797,3,1
-5.338126e-05,0.0008712018,3,1
-4.625038e-05,0.0009298695,3,1
-4.47918e-05,0.0009473725,3,1
-5.921561e-05,0.0009201455,3,1
-8.887356e-05,0.0008485126,3,1
-0.0001186936,0.0007399287,3,1
-0.0001258245,0.0006059006,3,1
-9.811128e-05,0.0004649037,3,1
-4.446767e-05,0.00033671,3,1
8.851824e-06,0.0002308813,3,1
3.55926e-05,0.0001425557,3,1
2.992031e-05,6.249545e-05,3,1
2.369211e-06,-1.448558e-05,3,1
-2.777494e-05,-8.563225e-05,3,1
-5.176061e-05,-0.0001485136,3,1
-7.072225e-05,-0.0002013469,3,1
-9.000802e-05,-0.0002426735,3,1
-0.000107349,-0.0002746004,3,1
-0.0001217728,-0.0003037722,3,1
-0.0001340898,-0.0003369955,3,1
-0.0001389517,-0.0003744326,3,1
-0.0001293899,-0.0004096008,3,1
-0.0001034594,-0.0004371519,3,1
-6.48879e-05,-0.0004546549,3,1
-2.161646e-05,-0.000462272,3,1
1.695509e-05,-0.0004645409,3,1
4.499239e-05,-0.0004637306,3,1
5.893001e-05,-0.0004574101,3,1
5.682316e-05,-0.0004425001,3,1
4.239934e-05,-0.0004217557,3,1
2.359977e-05,-0.0004032803,3,1
1.014835e-05,-0.0003924218,3,1
9.500085e-06,-0.0003895047,3,1
2.311357e-05,-0.0003895047,3,1
4.839576e-05,-0.0003846427,3,1
7.821578e-05,-0.0003737844,3,1
0.0001047945,-0.0003566054,3,1
0.0001255389,-0.0003368335,3,1
0.0001414213,-0.0003143064,3,1
0.0001548727,-0.0002940482,3,1
0.0001684862,-0.0002804347,3,1
0.0001817755,-0.0002742763,3,1
0.000195227,-0.0002684419,3,1
0.0002115956,-0.0002553146,3,1
0.0002333123,-0.0002276015,3,1
0.0002509774,-0.0001861127,3,1
0.0002501671,-0.0001396,3,1
0.000225209,-9.908367e-05,3,1
0.0001761032,-6.974985e-05,3,1
0.0001158149,-4.80331e-05,3,1
6.119892e-05,-3.020592e-05,3,1
2.262738e-05,-1.367526e-05,3,1
6.420843e-06,2.04508e-06,3,1
1.776542e-05,2.035846e-05,3,1
5.098881e-05,5.228533e-05,3,1
9.037068e-05,0.0001106288,3,1
0.0001214872,0.0001989545,3,1
0.0001406109,0.0003036487,3,1
0.0001534141,0.0003999155,3,1
0.0001624898,0.000462959,3,1
0.000163138,0.0004785172,3,1
0.0001451488,0.0004470765,3,1
0.0001020394,0.0003822504,3,1
4.320967e-05,0.0003018659,3,1
-9.785688e-06,0.0002224539,3,1
-4.268495e-05,0.0001560072,3,1
-5.467778e-05,0.0001051186,3,1
-5.856735e-05,7.221937e-05,3,1
-7.250496e-05,5.893001e-05,3,1
-0.000104918,6.119892e-05,3,1
-0.0001511067,7.400208e-05,3,1
-0.0001977815,9.361199e-05,3,1
-0.0002329496,0.0001175977,3,1
-0.0002493182,0.0001396385,3,1
-0.000246401,0.0001500107,3,1
-0.0002261429,0.0001446626,3,1
-0.0001872472,0.0001248906,3,1
-0.0001323071,9.896015e-05,3,1
-6.861539e-05,7.254349e-05,3,1
-9.137427e-06,5.034055e-05,3,1
3.121684e-05,3.510641e-05,3,1
4.191315e-05,2.538249e-05,3,1
2.197911e-05,1.241726e-05,3,1
-1.740276e-05,-9.947754e-06,3,1
-5.937768e-05,-4.090223e-05,3,1
-8.919769e-05,-7.590833e-05,3,1
-9.697683e-05,-0.0001115627,3,1
-7.817725e-05,-0.0001441378,3,1
-3.522994e-05,-0.0001703924,3,1
1.59827e-05,-0.0001869231,3,1
5.536457e-05,-0.0001934057,3,1
6.670914e-05,-0.0001955125,3,1
4.02925e-05,-0.0001984297,3,1
-1.562004e-05,-0.0002060468,3,1
-8.676672e-05,-0.0002186879,3,1
-0.0001488377,-0.0002344082,3,1
-0.0001770371,-0.0002520733,3,1
-0.0001601823,-0.0002689281,3,1
-0.0001131834,-0.0002781658,3,1
-6.359137e-05,-0.0002763831,3,1
-3.587821e-05,-0.0002703867,3,1
-4.009191e-05,-0.0002682799,3,1
-6.586029e-05,-0.0002733039,3,1
-9.308726e-05,-0.0002783279,3,1
-0.0001032974,-0.0002776796,3,1
-9.033215e-05,-0.0002718453,3,1
-6.116039e-05,-0.0002598524,3,1
-2.615429e-05,-0.0002404046,3,1
1.883015e-06,-0.0002188499,3,1
1.760335e-05,-0.0002019951,3,1
2.149292e-05,-0.0001857886,3,1
1.436204e-05,-0.0001655305,3,1
-2.168618e-06,-0.0001405724,3,1
-2.258885e-05,-0.0001146419,3,1
-3.604027e-05,-9.19528e-05,3,1
-3.279896e-05,-7.153257e-05,3,1
-1.108221e-05,-4.868137e-05,3,1
2.76514e-05,-1.578211e-05,3,1
7.870197e-05,3.267542e-05,3,1
0.0001310491,9.280167e-05,3,1
0.0001709172,0.0001608691,3,1
0.0001876099,0.0002302331,3,1
0.0001809652,0.0002974902,3,1
0.0001613553,0.0003628026,3,1
0.0001385041,0.0004274666,3,1
0.0001190562,0.0004896998,3,1
0.0001007429,0.0005420469,3,1
8.210535e-05,0.0005754323,3,1
6.492643e-05,0.0005851563,3,1
5.163707e-05,0.0005723531,3,1
4.564065e-05,0.0005425331,3,1
4.855783e-05,0.0005036374,3,1
5.19612e-05,0.0004649037,3,1
4.953022e-05,0.0004287631,3,1
4.077869e-05,0.0003918123,3,1
2.700314e-05,0.0003535648,3,1
1.517237e-05,0.0003138588,3,1
1.112074e-05,0.0002733424,3,1
1.582063e-05,0.000235095,3,1
2.910999e-05,0.0002005751,3,1
4.758544e-05,0.0001692965,3,1
6.589881e-05,0.0001410971,3,1
8.615699e-05,0.0001203528,3,1
0.0001119254,0.0001077117,3,1
0.0001376938,0.000103498,3,1
0.000153252,0.0001044704,3,1
0.0001467694,0.0001070634,3,1
0.0001154908,0.0001009049,3,1
6.589881e-05,7.951231e-05,3,1
1.22552e-05,4.239934e-05,3,1
-3.539201e-05,-3.14101e-06,3,1
-6.958779e-05,-4.916756e-05,3,1
-9.211487e-05,-9.098041e-05,3,1
-0.0001110765,-0.0001232314,3,1
-0.0001284175,-0.0001421931,3,1
-0.0001418689,-0.0001442999,3,1
-0.0001515928,-0.0001327933,3,1
-0.0001596961,-0.0001104282,3,1
-0.0001681235,-8.498399e-05,3,1
-0.0001728234,-6.504996e-05,3,1
-0.000169258,-6.035007e-05,3,1
-0.0001566169,-7.428769e-05,3,1
-0.0001310105,-9.924574e-05,3,1
-8.871149e-05,-0.0001256624,3,1
-3.198864e-05,-0.0001512687,3,1
2.635488e-05,-0.0001716889,3,1
7.157111e-05,-0.0001820611,3,1
8.729144e-05,-0.0001804405,3,1
7.659513e-05,-0.0001652063,3,1
5.390598e-05,-0.0001303623,3,1
3.721326e-05,-7.623246e-05,3,1
3.413401e-05,-1.20546e-05,3,1
4.35338e-05,5.131294e-05,3,1
5.212327e-05,0.0001031738,3,1
4.661304e-05,0.0001326697,3,1
1.1769e-05,0.0001367214,3,1
-4.884343e-05,0.0001261871,3,1
-0.000119666,0.0001099806,3,1
-0.000181737,9.831188e-05,3,1
-0.0002227395,9.766362e-05,3,1
-0.0002376495,0.0001093323,3,1
-0.000224036,0.0001274836,3,1
-0.0001882196,0.000140773,3,1
-0.0001439758,0.0001388282,3,1
-0.0001062146,0.0001198666,3,1
-7.785312e-05,8.761557e-05,3,1
-5.386745e-05,5.001642e-05,3,1
-2.615429e-05,1.338965e-05,3,1
5.934648e-06,-1.772689e-05,3,1
3.883391e-05,-4.138842e-05,3,1
7.238143e-05,-5.791909e-05,3,1
0.0001094944,-7.169464e-05,3,1
0.0001522796,-8.611845e-05,3,1
0.0001983062,-0.0001016767,3,1
0.0002384984,-0.0001173971,3,1
0.0002589186,-0.0001310105,3,1
0.0002490327,-0.0001451102,3,1
0.000210299,-0.0001605064,3,1
0.0001574657,-0.0001773612,3,1
0.0001073875,-0.0001940539,3,1
7.140904e-05,-0.0002053985,3,1
5.244739e-05,-0.0002053985,3,1
4.645098e-05,-0.0001838438,3,1
4.969229e-05,-0.0001358725,3,1
5.925414e-05,-6.667062e-05,3,1
7.821578e-05,1.355172e-05,3,1
0.0001078737,9.182927e-05,3,1
0.0001490383,0.0001542244,3,1
0.0001981441,0.000187772,3,1
0.000242388,0.0001889064,3,1
0.0002649151,0.000163138,3,1
0.0002538946,0.0001219734,3,1
0.0002132162,7.497447e-05,3,1
0.0001600588,3.105477e-05,3,1
0.0001164632,-3.951337e-06,3,1
0.0001078737,-2.518189e-05,3,1
0.0001534141,-3.247483e-05,3,1
0.0002487085,-2.388537e-05,3,1
0.0003652335,-3.465141e-06,3,1
0.0004584211,2.01964e-05,3,1
0.0004898618,3.948217e-05,3,1
0.0004418904,5.228533e-05,3,1
0.0003269861,6.136099e-05,3,1
0.0001710792,6.78436e-05,3,1
6.90704e-06,7.221937e-05,3,1
-0.0001383035,7.497447e-05,3,1
-0.000251263,7.059871e-05,3,1
-0.0003237062,5.455425e-05,3,1
-0.0003566054,2.878586e-05,3,1
-0.0003624398,2.693341e-06,3,1
-0.0003491504,-1.448558e-05,3,1
-0.0003225718,-2.064406e-05,3,1
-0.0002864312,-2.453363e-05,3,1
-0.0002475355,-2.955766e-05,3,1
-0.0002143121,-3.63644e-05,3,1
-0.0001895161,-4.43056e-05,3,1
-0.0001686097,-5.257093e-05,3,1
-0.0001418689,-5.889148e-05,3,1
-0.0001039456,-6.310517e-05,3,1
-6.06742e-05,-6.780507e-05,3,1
-2.761287e-05,-7.526008e-05,3,1
-2.09682e-05,-8.514606e-05,3,1
-4.074016e-05,-9.973194e-05,3,1
-7.380149e-05,-0.000119828,3,1
-0.0001092938,-0.0001418689,3,1
-0.0001391138,-0.0001621271,3,1
-0.0001579134,-0.0001791439,3,1
-0.0001650443,-0.0001956746,3,1
-0.0001635857,-0.0002117191,3,1
-0.0001530514,-0.0002271153,3,1
-0.0001332795,-0.0002405667,3,1
-0.0001091317,-0.0002517492,3,1
-8.482193e-05,-0.000261149,3,1
-6.310517e-05,-0.000273628,3,1
-4.689865e-05,-0.0002919414,3,1
-4.268495e-05,-0.0003138202,3,1
-5.078821e-05,-0.0003340784,3,1
-6.261898e-05,-0.0003463953,3,1
-6.877746e-05,-0.0003449367,3,1
-6.48879e-05,-0.0003303509,3,1
-5.240886e-05,-0.0003070135,3,1
-3.26369e-05,-0.0002775176,3,1
-4.923729e-06,-0.0002391081,3,1
2.959619e-05,-0.0001908126,3,1
6.865393e-05,-0.0001329553,3,1
0.0001062531,-6.618442e-05,3,1
0.0001370455,1.1769e-05,3,1
0.0001569795,0.000106091,3,1
0.0001636242,0.0002166196,3,1
0.0001586002,0.000331848,3,1
0.000145797,0.0004341113,3,1
0.0001378558,0.0005083373,3,1
0.0001443384,0.0005415607,3,1
0.0001592484,0.0005289196,3,1
0.0001642725,0.0004768966,3,1
0.0001480659,0.0004057499,3,1
0.0001141943,0.0003410858,3,1
8.064677e-05,0.0003104554,3,1
6.719535e-05,0.0003208276,3,1
8.080883e-05,0.0003579406,3,1
0.000110953,0.000396188,3,1
0.0001404489,0.0004120704,3,1
0.0001584381,0.0003932708,3,1
0.0001628139,0.0003418961,3,1
0.000165569,0.0002684805,3,1
0.0001751309,0.0001926339,3,1
0.000195227,0.0001329939,3,1
0.0002190506,0.0001020394,3,1
0.0002323399,0.0001004187,3,1
0.0002182402,0.0001150046,3,1
0.000168162,0.0001281319,3,1
8.939829e-05,0.0001286181,3,1
2.855407e-06,0.0001179218,3,1
-6.618442e-05,0.0001081979,3,1
-0.0001070249,0.0001175977,3,1
-0.0001235555,0.0001563313,3,1
-0.000129714,0.0002098128,3,1
-0.0001353863,0.0002560015,3,1
-0.0001344139,0.0002790148,3,1
-0.0001170729,0.0002733424,3,1
-7.833932e-05,0.000244981,3,1
-2.372331e-05,0.0002015475,3,1
2.700314e-05,0.0001522796,3,1
5.066468e-05,0.0001094944,3,1
3.705119e-05,8.486046e-05,3,1
-3.951337e-06,8.161915e-05,3,1
-5.030202e-05,9.426025e-05,3,1
-8.547019e-05,0.0001077117,3,1
-0.0001039456,0.0001099806,3,1
-0.0001125351,0.0001020394,3,1
-0.0001186936,9.085688e-05,3,1
-0.0001263107,8.016057e-05,3,1
-0.000132145,6.946425e-05,3,1
-0.0001287416,5.293359e-05,3,1
-0.0001135075,2.781346e-05,3,1
-9.616651e-05,-3.303076e-06,3,1
-8.692878e-05,-3.409549e-05,3,1
-8.563225e-05,-6.472583e-05,3,1
-8.352541e-05,-9.405965e-05,3,1
-7.752899e-05,-0.0001180453,3,1
-7.007399e-05,-0.0001339277,3,1
-6.456377e-05,-0.0001451102,3,1
-6.44017e-05,-0.0001564548,3,1
-7.477388e-05,-0.0001702304,3,1
-8.82253e-05,-0.0001822232,3,1
-9.405965e-05,-0.0001901644,3,1
-8.790117e-05,-0.0001948643,3,1
-7.785312e-05,-0.0001998883,3,1
-7.882551e-05,-0.0002079916,3,1
-0.0001015147,-0.0002217671,3,1
-0.0001399241,-0.0002407288,3,1
-0.0001833576,-0.0002668213,3,1
-0.000216581,-0.0002979378,3,1
-0.0002230636,-0.000325651,3,1
-0.0001969711,-0.0003447747,3,1
-0.0001451102,-0.0003564434,3,1
-8.935975e-05,-0.0003626019,3,1
-5.030202e-05,-0.0003638984,3,1
-3.247483e-05,-0.0003640605,3,1
-2.777494e-05,-0.000365357,3,1
-2.388537e-05,-0.0003674638,3,1
-8.813297e-06,-0.0003707051,3,1
1.9224e-05,-0.0003771877,3,1
5.406805e-05,-0.0003859393,3,1
8.275361e-05,-0.0003909633,3,1
9.620504e-05,-0.0003904771,3,1
9.004655e-05,-0.0003880461,3,1
6.735741e-05,-0.0003814014,3,1
3.445814e-05,-0.0003651949,3,1
-6.176923e-08,-0.0003303509,3,1
-2.177852e-05,-0.0002767073,3,1
-2.015787e-05,-0.0002071812,3,1
8.041497e-06,-0.0001326312,3,1
5.763349e-05,-6.537409e-05,3,1
0.0001161391,-2.226472e-05,3,1
0.0001717275,-1.3027e-05,3,1
0.0002149989,-3.604027e-05,3,1
0.0002440086,-7.55842e-05,3,1
0.0002626462,-0.0001099421,3,1
0.000274801,-0.0001208004,3,1
0.000277232,-0.0001008664,3,1
0.0002634565,-4.673658e-05,3,1
0.0002313675,4.061663e-05,3,1
0.0001918236,0.0001573037,3,1
0.0001636242,0.0003055935,3,1
0.000155521,0.0004846757,3,1
0.0001639484,0.0006804507,3,1
0.0001751309,0.0008639088,3,1
0.0001795066,0.001001989,3,1
0.0001861513,0.001070704,3,1
0.0002185644,0.001066977,3,1
0.0002906835,0.00100523,3,1
0.0003801436,0.0009100975,3,1
0.0004469145,0.0007977861,3,1
0.0004592314,0.0006793162,3,1
0.0004120704,0.0005665187,3,1
0.0003271482,0.0004777069,3,1
0.0002370398,0.000420984,3,1
0.000162976,0.0003892192,3,1
0.0001062531,0.000368961,3,1
5.828175e-05,0.0003509718,3,1
1.1769e-05,0.000331848,3,1
-2.939559e-05,0.0003120761,3,1
-6.164659e-05,0.0002884145,3,1
-8.692878e-05,0.0002568118,3,1
-0.000112211,0.0002156472,3,1
-0.0001425172,0.0001676758,3,1
-0.0001750923,0.0001154908,3,1
-0.0002039399,6.735741e-05,3,1
-0.0002217671,2.910999e-05,3,1
-0.0002256567,2.855407e-06,3,1
-0.0002136638,-1.756482e-05,3,1
-0.0001927574,-3.944364e-05,3,1
-0.0001765509,-6.650855e-05,3,1
-0.0001788198,-9.940781e-05,3,1
-0.0001977815,-0.0001361966,3,1
-0.0002162569,-0.0001731475,3,1
-0.0002126914,-0.0002094502,3,1
-0.0001728234,-0.0002392702,3,1
-0.0001042698,-0.0002603387,3,1
-3.182657e-05,-0.000271035,3,1
1.014835e-05,-0.0002746004,3,1
-5.409925e-06,-0.0002767073,3,1
-8.498399e-05,-0.0002838381,3,1
-0.0002143121,-0.0002979378,3,1
-0.0003601709,-0.0003121996,3,1
-0.0004792889,-0.0003222476,3,1
-0.0005405495,-0.0003264613,3,1
-0.0005374703,-0.000325651,3,1
-0.0004807475,-0.0003190063,3,1
-0.0003908012,-0.0003055549,3,1
-0.0002893484,-0.0002906449,3,1
-0.0001888679,-0.0002771934,3,1
-9.875954e-05,-0.0002652006,3,1
-2.647842e-05,-0.0002533699,3,1
1.64689e-05,-0.0002433218,3,1
2.34377e-05,-0.0002361909,3,1
1.883015e-06,-0.0002361909,3,1
-3.036798e-05,-0.0002415391,3,1
-5.467778e-05,-0.000246401,3,1
-5.889148e-05,-0.0002478596,3,1
-4.657452e-05,-0.0002459149,3,1
-2.615429e-05,-0.0002431597,3,1
-1.520357e-06,-0.0002395943,3,1
2.959619e-05,-0.0002295462,3,1
6.476436e-05,-0.0002126914,3,1
9.68533e-05,-0.0001948643,3,1
0.0001197045,-0.0001838438,3,1
0.0001316974,-0.0001802784,3,1
0.0001396385,-0.000184168,3,1
0.0001513072,-0.0001909747,3,1
0.0001683241,-0.0001927574,3,1
0.0001876099,-0.0001835197,3,1
0.0001994406,-0.0001603444,3,1
0.0001983062,-0.0001224211,3,1
0.0001876099,-7.444975e-05,3,1
0.0001746447,-2.0482e-05,3,1
0.0001650828,3.575467e-05,3,1
0.0001618415,9.426025e-05,3,1
0.000168,0.0001539003,3,1
0.0001827479,0.0002093267,3,1
0.0002047888,0.0002542187,3,1
0.0002359054,0.0002814457,3,1
0.000274639,0.0002892249,3,1
0.0003149933,0.0002806354,3,1
0.0003472443,0.0002628082,3,1
0.0003613439,0.0002454672,3,1
0.0003480546,0.0002295848,3,1
0.0003075383,0.0002161334,3,1
0.0002555152,0.0002073819,3,1
0.0002106232,0.0002036544,3,1
0.0001846927,0.0002038164,3,1
0.000178048,0.0002041406,3,1
0.0001749688,0.0002043026,3,1
0.0001592484,0.0002013854,3,1
0.0001240803,0.0001955511,3,1
7.384002e-05,0.0001882582,3,1
3.073064e-05,0.0001825859,3,1
1.257933e-05,0.0001791825,3,1
2.376183e-05,0.0001744826,3,1
4.969229e-05,0.0001649207,3,1
6.606088e-05,0.0001477418,3,1
5.260946e-05,0.0001257009,3,1
1.112074e-05,9.814982e-05,3,1
-4.317115e-05,6.557468e-05,3,1
-9.098041e-05,3.13789e-05,3,1
-0.0001224211,1.558884e-06,3,1
-0.000134576,-2.064406e-05,3,1
-0.000127283,-3.539201e-05,3,1
-0.0001092938,-4.300908e-05,3,1
-9.746302e-05,-4.171256e-05,3,1
-9.811128e-05,-3.150244e-05,3,1
-0.0001104282,-1.821308e-05,3,1
-0.0001292278,-2.006553e-06,3,1
-0.0001459206,1.64689e-05,3,1
-0.0001551583,3.348575e-05,3,1
-0.0001524032,4.499239e-05,3,1
-0.0001417068,4.82337e-05,3,1
-0.0001318209,4.175109e-05,3,1
-0.0001267968,2.927205e-05,3,1
-0.0001279313,1.97102e-05,3,1
-0.000137169,2.538249e-05,3,1
-0.0001553203,4.936815e-05,3,1
-0.0001778474,8.761557e-05,3,1
-0.0001956746,0.0001365593,3,1
-0.0002006986,0.0001937684,3,1
-0.0001890299,0.0002506533,3,1
-0.0001655305,0.0002918179,3,1
-0.000137169,0.0003025142,3,1
-0.0001133454,0.0002804733,3,1
-9.892161e-05,0.0002286124,3,1
-9.130454e-05,0.0001521176,3,1
-8.854943e-05,6.03886e-05,3,1
-8.530812e-05,-3.247483e-05,3,1
-7.833932e-05,-0.0001118868,3,1
-6.974985e-05,-0.0001695821,3,1
-6.423963e-05,-0.0002021572,3,1
-6.310517e-05,-0.0002173914,3,1
-6.359137e-05,-0.0002246843,3,1
-6.002594e-05,-0.0002292221,3,1
-4.916756e-05,-0.000231491,3,1
-2.971972e-05,-0.0002347323,3,1
-7.516774e-06,-0.0002412149,3,1
8.041497e-06,-0.0002556388,3,1
1.322759e-05,-0.0002802727,3,1
1.274139e-05,-0.0003091203,3,1
1.436204e-05,-0.0003297026,3,1
2.230325e-05,-0.0003345645,3,1
3.462021e-05,-0.0003196545,3,1
4.758544e-05,-0.0002895104,3,1
6.03886e-05,-0.000251101,3,1
7.465034e-05,-0.00021415,3,1
9.21534e-05,-0.0001836818,3,1
0.000113546,-0.0001626133,3,1
0.0001404489,-0.0001447861,3,1
0.0001663793,-0.0001274451,3,1
0.0001817755,-0.0001084835,3,1
0.0001782101,-8.498399e-05,3,1
0.0001584381,-5.824322e-05,3,1
0.0001304008,-2.988179e-05,3,1
0.0001020394,3.341602e-06,3,1
8.064677e-05,3.818565e-05,3,1
6.946425e-05,7.270556e-05,3,1
6.897806e-05,0.0001020394,3,1
8.502253e-05,0.0001235941,3,1
0.000113384,0.0001386662,3,1
0.0001467694,0.0001543865,3,1
0.0001756171,0.0001751309,3,1
0.0001918236,0.0001987924,3,1
0.0001902029,0.0002195368,3,1
0.000173024,0.000230071,3,1
0.0001503349,0.0002245608,3,1
0.0001328318,0.0002046267,3,1
0.0001231079,0.0001748067,3,1
0.0001140322,0.0001425557,3,1
0.0001005808,0.0001106288,3,1
7.384002e-05,7.870197e-05,3,1
3.60788e-05,4.191315e-05,3,1
-7.354709e-06,2.207145e-06,3,1
-4.80331e-05,-3.150244e-05,3,1
-7.850138e-05,-4.80331e-05,3,1
-8.692878e-05,-4.041603e-05,3,1
-7.023606e-05,-6.706447e-06,3,1
-3.150244e-05,4.82337e-05,3,1
1.614476e-05,0.0001141943,3,1
5.504044e-05,0.0001816135,3,1
7.497447e-05,0.0002383363,3,1
7.659513e-05,0.0002684805,3,1
6.800567e-05,0.0002600531,3,1
5.61749e-05,0.0002122438,3,1
4.677511e-05,0.0001415833,3,1
3.850978e-05,7.124698e-05,3,1
2.473423e-05,1.873781e-05,3,1
-3.627206e-06,-6.706447e-06,3,1
-4.916756e-05,-3.789272e-06,3,1
-0.0001024871,2.76514e-05,3,1
-0.0001486757,8.583286e-05,3,1
-0.0001737958,0.0001709172,3,1
-0.0001737958,0.0002900352,3,1
-0.0001498101,0.0004548557,3,1
-0.0001133454,0.0006535479,3,1
-7.493595e-05,0.0008433265,3,1
-4.219875e-05,0.0009694134,3,1
-2.356124e-05,0.0009867544,3,1
-2.323711e-05,0.0008812498,3,1
-4.592625e-05,0.0006759129,3,1
-8.854943e-05,0.0004182289,3,1
-0.0001457585,0.0001595726,3,1
-0.0002071812,-5.808115e-05,3,1
-0.0002575835,-0.0002096122,3,1
-0.0002815692,-0.0002964792,3,1
-0.000273628,-0.0003326198,3,1
-0.0002365151,-0.0003384541,3,1
-0.0001747682,-0.0003322956,3,1
-0.0001028112,-0.0003271096,3,1
-3.425755e-05,-0.0003293785,3,1
1.873781e-05,-0.0003418575,3,1
4.72613e-05,-0.000362926,3,1
5.066468e-05,-0.0003906392,3,1
4.061663e-05,-0.0004196489,3,1
2.684107e-05,-0.0004381243,3,1
1.12828e-05,-0.0004376381,3,1
-1.399939e-05,-0.0004172179,3,1
-5.419158e-05,-0.0003848048,3,1
-0.0001024871,-0.0003452609,3,1
-0.0001433275,-0.0002977757,3,1
-0.000159534,-0.0002358668,3,1
-0.0001451102,-0.0001551583,3,1
-0.0001115627,-5.889148e-05,3,1
-7.023606e-05,4.013043e-05,3,1
-2.923353e-05,0.0001216493,3,1
4.638125e-06,0.0001684862,3,1
3.073064e-05,0.0001697827,3,1
6.071273e-05,0.0001269974,3,1
0.0001090082,5.212327e-05,3,1
0.0001759412,-3.036798e-05,3,1
0.0002457913,-9.859748e-05,3,1
0.0002926282,-0.0001421931,3,1
0.0002981384,-0.0001603444,3,1
0.000262322,-0.0001611547,3,1
0.0002015475,-0.0001530514,3,1
0.0001402868,-0.0001381414,3,1
0.00010366,-0.0001135075,3,1
0.0001017153,-8.012204e-05,3,1
0.000125863,-4.47918e-05,3,1
0.0001608691,-1.513384e-05,3,1
0.00019782,2.207145e-06,3,1
0.0002315296,5.772582e-06,3,1
0.0002618358,-1.844488e-06,3,1
0.0002898731,-1.529591e-05,3,1
0.0003141829,-2.583016e-05,3,1
0.0003321722,-2.583016e-05,3,1
0.0003371962,-1.25408e-05,3,1
0.0003245551,1.063454e-05,3,1
0.0002901973,3.283749e-05,3,1
0.000230071,3.915804e-05,3,1
0.000143204,2.684107e-05,3,1
3.850978e-05,-1.682422e-06,3,1
-6.407757e-05,-3.604027e-05,3,1
-0.0001447861,-6.569822e-05,3,1
-0.0001950263,-8.141856e-05,3,1
-0.0002151224,-8.02841e-05,3,1
-0.0002104225,-6.650855e-05,3,1
-0.000181737,-4.43056e-05,3,1
-0.0001350622,-1.562004e-05,3,1
-7.995997e-05,2.327564e-05,3,1
-2.745081e-05,7.6271e-05,3,1
6.744974e-06,0.0001412592,3,1
1.274139e-05,0.0002054371,3,1
-1.25408e-05,0.0002585945,3,1
-6.148453e-05,0.0002989488,3,1
-0.0001206384,0.0003294171,3,1
-0.0001765509,0.0003493511,3,1
-0.0002220912,0.0003527545,3,1
-0.0002504527,0.00033671,3,1
-0.0002564491,0.0002984626,3,1
-0.0002334358,0.0002443328,3,1
-0.0001775233,0.0001846927,3,1
-9.211487e-05,0.0001304008,3,1
1.720949e-06,8.810177e-05,3,1
7.400208e-05,5.714729e-05,3,1
0.0001012291,3.397195e-05,3,1
7.789165e-05,1.403791e-05,3,1
2.376183e-05,-7.516774e-06,3,1
-3.701266e-05,-3.555408e-05,3,1
-9.130454e-05,-7.33153e-05,3,1
-0.0001381414,-0.0001170729,3,1
-0.0001762268,-0.0001583996,3,1
-0.0002019951,-0.0001909747,3,1
-0.0002052365,-0.000213988,3,1
-0.0001762268,-0.0002285739,3,1
-0.0001151281,-0.0002420253,3,1
-3.749886e-05,-0.0002596904,3,1
3.348575e-05,-0.0002789762,3,1
8.194328e-05,-0.0002912931,3,1
0.0001026876,-0.0002891863,3,1
0.0001007429,-0.0002752487,3,1
9.053275e-05,-0.0002519113,3,1
8.405014e-05,-0.0002191741,3,1
8.729144e-05,-0.0001780095,3,1
9.928428e-05,-0.0001340898,3,1
0.0001119254,-9.535618e-05,3,1
0.0001167873,-7.104638e-05,3,1
0.0001104668,-6.326724e-05,3,1
8.891209e-05,-6.667062e-05,3,1
5.601284e-05,-6.213279e-05,3,1
1.97102e-05,-3.458168e-05,3,1
-1.010982e-05,1.565857e-05,3,1
-2.485776e-05,7.400208e-05,3,1
-2.518189e-05,0.0001250527,3,1
-1.707863e-05,0.0001547106,3,1
-5.409925e-06,0.0001568175,3,1
5.448452e-06,0.0001279698,3,1
9.013889e-06,7.432621e-05,3,1
6.096713e-06,1.144487e-05,3,1
8.203562e-06,-4.317115e-05,3,1
3.202716e-05,-7.509801e-05,3,1
8.664318e-05,-7.461182e-05,3,1
0.0001645966,-4.38194e-05,3,1
0.0002456293,2.531276e-06,3,1
0.0003028383,5.633696e-05,3,1
0.0003198552,0.0001151667,3,1
0.0002973281,0.0001830721,3,1
0.0002525981,0.0002610255,3,1
0.0002137024,0.0003418961,3,1
0.0002041406,0.0004190393,3,1
0.0002305572,0.0004819206,3,1
0.0002806354,0.0005140096,3,1
0.0003313618,0.0005042856,3,1
0.0003568061,0.0004561522,3,1
0.0003401134,0.0003846814,3,1
0.0002798251,0.0003085106,3,1
0.0001867996,0.0002383363,3,1
8.502253e-05,0.0001827479,3,1
-2.81688e-06,0.0001438522,3,1
-6.650855e-05,0.0001171115,3,1
-0.0001065387,9.555677e-05,3,1
-0.0001310105,7.367795e-05,3,1
-0.0001559686,5.017848e-05,3,1
-0.0001934057,2.716521e-05,3,1
-0.0002332737,6.744974e-06,3,1
-0.0002525595,-9.785688e-06,3,1
-0.0002321393,-2.339918e-05,3,1
-0.0001750923,-3.749886e-05,3,1
-0.0001054042,-5.159854e-05,3,1
-5.467778e-05,-6.472583e-05,3,1
-5.386745e-05,-7.33153e-05,3,1
-0.0001169109,-7.509801e-05,3,1
-0.0002258187,-7.23429e-05,3,1
-0.0003376438,-6.877746e-05,3,1
-0.0004094387,-6.650855e-05,3,1
-0.0004241867,-6.521203e-05,3,1
-0.0003912874,-6.650855e-05,3,1
-0.0003275957,-6.974985e-05,3,1
-0.0002496423,-7.60704e-05,3,1
-0.000164396,-8.271508e-05,3,1
-7.218083e-05,-8.417367e-05,3,1
1.614476e-05,-7.299116e-05,3,1
7.870197e-05,-4.90055e-05,3,1
9.474644e-05,-1.724069e-05,3,1
5.779555e-05,1.64689e-05,3,1
-2.275091e-05,4.272347e-05,3,1
-0.000114804,5.115087e-05,3,1
-0.000179306,3.591673e-05,3,1
-0.000194216,2.531276e-06,3,1
-0.0001609926,-3.749886e-05,3,1
-0.0001005423,-7.639453e-05,3,1
-4.122636e-05,-0.0001102662,3,1
-3.303076e-06,-0.0001394379,3,1
1.047248e-05,-0.0001622891,3,1
1.290346e-05,-0.0001763888,3,1
1.663096e-05,-0.0001818991,3,1
2.359977e-05,-0.0001812508,3,1
3.008238e-05,-0.0001783336,3,1
2.603075e-05,-0.0001765509,3,1
8.527692e-06,-0.0001791439,3,1
-1.432352e-05,-0.0001846542,3,1
-3.620233e-05,-0.0001895161,3,1
-5.176061e-05,-0.0001927574,3,1
-6.051213e-05,-0.0001955125,3,1
-5.953974e-05,-0.0001959987,3,1
-4.90055e-05,-0.0001924333,3,1
-3.117831e-05,-0.0001851404,3,1
-9.623623e-06,-0.0001784957,3,1
1.419998e-05,-0.0001720131,3,1
3.737532e-05,-0.0001635857,3,1
5.957827e-05,-0.000152079,3,1
7.594687e-05,-0.0001363587,3,1
8.226741e-05,-0.0001209625,3,1
7.708133e-05,-0.0001114006,3,1
6.557468e-05,-0.0001117248,3,1
5.876794e-05,-0.0001175591,3,1
6.995045e-05,-0.0001230693,3,1
9.701536e-05,-0.0001224211,3,1
0.0001295905,-0.0001143178,3,1
0.000160545,-9.794922e-05,3,1
0.0001871237,-7.169464e-05,3,1
0.000202682,-3.21507e-05,3,1
0.000210137,2.197911e-05,3,1
0.0002172679,8.307774e-05,3,1
0.0002339606,0.0001422316,3,1
0.0002662116,0.000192796,3,1
0.0003083486,0.0002342847,3,1
0.0003485408,0.0002631324,3,1
0.0003775505,0.0002793389,3,1
0.0003843572,0.0002864697,3,1
0.0003632887,0.0002937627,3,1
0.0003211517,0.0003038107,3,1
0.0002688046,0.0003180725,3,1
0.0002161334,0.0003323342,3,1
0.000170431,0.000344165,3,1
0.0001355869,0.0003527545,3,1
0.0001127357,0.0003563199,3,1
0.0001000946,0.00035162,3,1
9.004655e-05,0.0003386548,3,1
6.914012e-05,0.000316776,3,1
2.992031e-05,0.0002867939,3,1
-2.777494e-05,0.0002519498,3,1
-9.600444e-05,0.000215161,3,1
-0.0001627754,0.0001799928,3,1
-0.0002135018,0.0001453108,3,1
-0.0002361909,0.0001150046,3,1
-0.000223874,9.750156e-05,3,1
-0.0001823853,9.426025e-05,3,1
-0.0001280934,0.0001015532,3,1
-8.320128e-05,0.0001127357,3,1
-6.002594e-05,0.0001239182,3,1
-6.035007e-05,0.0001281319,3,1
-7.315322e-05,0.0001205148,3,1
-8.482193e-05,9.766362e-05,3,1
-8.465986e-05,7.124698e-05,3,1
-7.137051e-05,5.666109e-05,3,1
-5.013995e-05,6.492643e-05,3,1
-3.166451e-05,9.328786e-05,3,1
-2.485776e-05,0.0001247285,3,1
-2.923353e-05,0.0001414213,3,1
-4.074016e-05,0.0001385041,3,1
-5.727083e-05,0.0001237561,3,1
-8.093236e-05,0.0001077117,3,1
-0.0001183694,9.069481e-05,3,1
-0.0001723372,6.719535e-05,3,1
-0.0002340841,3.380988e-05,3,1
-0.0002878898,-8.489166e-06,3,1
-0.0003178718,-5.791909e-05,3,1
-0.0003199787,-0.0001117248,3,1
-0.0002982619,-0.0001653684,3,1
-0.0002579077,-0.0002100984,3,1
-0.0002070192,-0.0002405667,3,1
-0.0001533756,-0.0002554767,3,1
-0.0001015147,-0.0002596904,3,1
-5.905355e-05,-0.0002575835,3,1
-3.085418e-05,-0.0002533699,3,1
-1.837515e-05,-0.000248832,3,1
-1.432352e-05,-0.0002426735,3,1
-8.975362e-06,-0.0002300324,3,1
5.610517e-06,-0.0002063709,3,1
2.489629e-05,-0.0001759026,3,1
4.142696e-05,-0.0001486757,3,1
5.228533e-05,-0.0001344139,3,1
5.844381e-05,-0.0001326312,3,1
6.006447e-05,-0.0001361966,3,1
5.358185e-05,-0.0001399241,3,1
3.008238e-05,-0.0001415448,3,1
-1.270286e-05,-0.0001407345,3,1
-6.602235e-05,-0.0001331174,3,1
-0.0001149661,-0.0001130213,3,1
-0.0001425172,-7.250496e-05,3,1
-0.0001405724,-9.299493e-06,3,1
-0.0001120489,6.557468e-05,3,1
-6.974985e-05,0.0001329939,3,1
-3.506788e-05,0.0001770756,3,1
-2.453363e-05,0.0001924718,3,1
-3.928157e-05,0.0001790204,3,1
-6.002594e-05,0.0001396385,3,1
-5.516398e-05,8.291568e-05,3,1
-4.599598e-06,2.457216e-05,3,1
8.988449e-05,-1.934754e-05,3,1
0.0002007372,-4.171256e-05,3,1
0.0002923041,-4.300908e-05,3,1
0.0003389789,-2.89094e-05,3,1
0.0003371962,-5.409925e-06,3,1
0.0003030004,2.197911e-05,3,1
0.0002582704,4.645098e-05,3,1
0.0002258573,6.006447e-05,3,1
0.000217754,6.103686e-05,3,1
0.0002341226,5.115087e-05,3,1
0.000264753,3.235129e-05,3,1
0.0002903593,7.555301e-06,3,1
0.000294573,-1.99958e-05,3,1
0.0002738286,-4.625038e-05,3,1
0.0002397949,-6.731888e-05,3,1
0.0002070577,-8.40116e-05,3,1
0.0001814514,-9.535618e-05,3,1
0.0001623277,-0.0001032974,3,1
0.0001467694,-0.0001058904,3,1
0.0001294284,-9.940781e-05,3,1
0.0001051186,-8.044617e-05,3,1
7.351589e-05,-5.289507e-05,3,1
3.688912e-05,-2.809907e-05,3,1
4.47606e-06,-1.416145e-05,3,1
-1.707863e-05,-1.140634e-05,3,1
-2.971972e-05,-7.354709e-06,3,1
-3.26369e-05,1.095867e-05,3,1
-1.772689e-05,5.358185e-05,3,1
1.857574e-05,0.0001193804,3,1
7.173317e-05,0.0001974959,3,1
0.0001171115,0.0002699391,3,1
0.0001302388,0.0003174242,3,1
0.0001004187,0.0003274723,3,1
3.445814e-05,0.0003015418,3,1
-4.770897e-05,0.0002496809,3,1
-0.00012469,0.00018291,3,1
-0.0001784957,0.0001119254,3,1
-0.0001994021,4.596478e-05,3,1
-0.0001856265,-6.868513e-06,3,1
-0.0001468929,-4.38194e-05,3,1
-9.989401e-05,-6.553616e-05,3,1
-6.116039e-05,-7.866345e-05,3,1
-4.05781e-05,-9.211487e-05,3,1
-3.749886e-05,-0.0001060525,3,1
-4.80331e-05,-0.0001193418,3,1
-6.845333e-05,-0.0001277692,3,1
-0.0001034594,-0.0001282554,3,1
-0.0001478653,-0.0001190177,3,1
-0.0001898403,-0.0001020008,3,1
-0.0002118811,-8.336335e-05,3,1
-0.0002070192,-6.423963e-05,3,1
-0.0001783336,-4.462973e-05,3,1
-0.0001342519,-1.886135e-05,3,1
-9.438378e-05,2.214118e-05,3,1
-7.898758e-05,7.772959e-05,3,1
-9.843541e-05,0.0001396385,3,1
-0.0001399241,0.0001923098,3,1
-0.0001780095,0.0002235884,3,1
-0.0001971332,0.000227478,3,1
-0.0001998883,0.0002090025,3,1
-0.0001929195,0.000177886,3,1
-0.0001797922,0.0001461212,3,1
-0.0001632615,0.0001221355,3,1
-0.0001441378,0.0001067393,3,1
-0.0001266348,9.26396e-05,3,1
-0.0001067007,6.83298e-05,3,1
-7.250496e-05,2.910999e-05,3,1
-1.416145e-05,-2.46957e-05,3,1
6.233338e-05,-8.854943e-05,3,1
0.0001386662,-0.0001507825,3,1
0.0001984683,-0.0002023193,3,1
0.0002360674,-0.0002382978,3,1
0.0002571359,-0.0002608248,3,1
0.0002663737,-0.0002737901,3,1
0.0002607014,-0.0002789762,3,1
0.0002342847,-0.0002771934,3,1
0.0001889064,-0.0002703867,3,1
0.000140773,-0.0002603387,3,1
0.0001022015,-0.000246239,3,1
7.999851e-05,-0.000226467,3,1
7.286763e-05,-0.000201509,3,1
7.90261e-05,-0.0001746061,3,1
9.53947e-05,-0.0001462447,3,1
0.0001150046,-0.000119666,3,1
0.0001328318,-9.308726e-05,3,1
0.0001480659,-6.456377e-05,3,1
0.0001633001,-2.777494e-05,3,1
0.0001814514,2.603075e-05,3,1
0.0001986303,0.0001072255,3,1
0.0002068957,0.0002098128,3,1
0.0001974959,0.0003107795,3,1
0.0001731861,0.000383871,3,1
0.0001399627,0.00041596,3,1
0.000103498,0.0004098015,3,1
6.849186e-05,0.0003819262,3,1
3.915804e-05,0.0003488649,3,1
2.473423e-05,0.0003230965,3,1
3.299956e-05,0.0003088348,3,1
6.184718e-05,0.0003051073,3,1
9.944634e-05,0.0003049452,3,1
0.0001334801,0.0002973281,3,1
0.0001542244,0.0002780424,3,1
0.0001563313,0.0002508154,3,1
0.0001394765,0.000220023,3,1
0.0001047945,0.000187934,3,1
6.217132e-05,0.000158114,3,1
1.825161e-05,0.0001373696,3,1
-2.0482e-05,0.0001305629,3,1
-5.419158e-05,0.0001365593,3,1
-8.352541e-05,0.0001466074,3,1
-0.0001054042,0.0001529279,3,1
-0.000119666,0.0001516314,3,1
-0.0001266348,0.000140773,3,1
-0.0001331174,0.0001224596,3,1
-0.0001462447,9.814982e-05,3,1
-0.0001681235,7.351589e-05,3,1
-0.0001976194,5.179914e-05,3,1
-0.0002293842,2.797553e-05,3,1
-0.0002517492,-2.168618e-06,3,1
-0.0002580697,-4.041603e-05,3,1
-0.0002371633,-8.384954e-05,3,1
-0.0001893541,-0.0001259865,3,1
-0.0001225832,-0.0001637477,3,1
-5.143648e-05,-0.0001925954,3,1
3.827799e-06,-0.0002160948,3,1
2.846173e-05,-0.0002400805,3,1
1.987227e-05,-0.0002682799,3,1
-9.137427e-06,-0.0003002067,3,1
-4.155049e-05,-0.0003369955,3,1
-6.569822e-05,-0.0003750809,3,1
-7.785312e-05,-0.00041268,3,1
-8.968389e-05,-0.000444769,3,1
-0.0001120489,-0.0004690787,3,1
-0.0001467309,-0.0004839888,3,1
-0.0001846542,-0.000489661,3,1
-0.0002117191,-0.0004854474,3,1
-0.0002191741,-0.0004703753,3,1
-0.0002060468,-0.0004428242,3,1
-0.0001781716,-0.0004037664,3,1
-0.0001415448,-0.0003510952,3,1
-0.0001045939,-0.0002812451,3,1
-7.153257e-05,-0.0001945401,3,1
-4.219875e-05,-9.308726e-05,3,1
-1.092015e-05,1.59827e-05,3,1
2.586868e-05,0.0001287802,3,1
6.703327e-05,0.0002472499,3,1
0.0001064152,0.0003662059,3,1
0.0001321835,0.0004721967,3,1
0.0001328318,0.0005475571,3,1
0.0001077117,0.0005752703,3,1
6.41161e-05,0.0005525811,3,1
9.986281e-06,0.0004929411,3,1
-3.68506e-05,0.0004107739,3,1
-5.953974e-05,0.0003159656,3,1
-5.095028e-05,0.0002213195,3,1
-1.724069e-05,0.0001385041,3,1
3.008238e-05,7.52986e-05,3,1
7.967438e-05,3.429608e-05,3,1
0.0001248906,1.112074e-05,3,1
0.0001587623,4.244267e-07,3,1
0.0001785342,-2.81688e-06,3,1
0.0001744826,-5.247859e-06,3,1
0.0001475797,-1.432352e-05,3,1
0.0001030118,-2.826114e-05,3,1
5.228533e-05,-4.268495e-05,3,1
8.041497e-06,-5.2733e-05,3,1
-1.756482e-05,-5.808115e-05,3,1
-2.113026e-05,-6.099833e-05,3,1
-4.761664e-06,-6.197072e-05,3,1
2.586868e-05,-6.278104e-05,3,1
6.703327e-05,-6.634648e-05,3,1
0.0001171115,-7.072225e-05,3,1
0.0001783722,-7.18567e-05,3,1
0.0002509774,-7.039812e-05,3,1
0.0003289309,-6.780507e-05,3,1
0.0003944053,-6.278104e-05,3,1
0.000426008,-5.22468e-05,3,1
0.0004146635,-3.717473e-05,3,1
0.0003632887,-1.934754e-05,3,1
0.0002850112,-3.951337e-06,3,1
0.0001984683,6.744974e-06,3,1
0.0001185701,1.711715e-05,3,1
4.888196e-05,3.316162e-05,3,1
-7.354709e-06,6.184718e-05,3,1
-4.997789e-05,0.000103498,3,1
-7.671866e-05,0.0001485521,3,1
-9.162867e-05,0.0001827479,3,1
-9.049421e-05,0.0001939304,3,1
-6.861539e-05,0.0001819376,3,1
-2.761287e-05,0.0001560072,3,1
1.987227e-05,0.0001297526,3,1
5.504044e-05,0.0001096565,3,1
6.233338e-05,9.944634e-05,3,1
3.575467e-05,9.944634e-05,3,1
-2.323711e-05,0.0001078737,3,1
-0.0001028112,0.0001278078,3,1
-0.0001828714,0.0001641104,3,1
-0.0002429977,0.0002187264,3,1
-0.0002715212,0.0002874421,3,1
-0.0002642282,0.0003597233,3,1
-0.0002287359,0.0004208219,3,1
-0.0001831956,0.0004571246,3,1
-0.0001454344,0.0004615004,3,1
-0.0001285796,0.0004427008,3,1
-0.0001314967,0.0004172565,3,1
-0.0001412206,0.0003984569,3,1
-0.0001417068,0.0003864641,3,1
-0.0001177212,0.0003702575,3,1
-6.731888e-05,0.0003397893,3,1
-7.100305e-07,0.00029198,3,1
6.654708e-05,0.0002282883,3,1
0.0001174356,0.0001514693,3,1
0.0001417454,6.444023e-05,3,1
0.0001354248,-2.242678e-05,3,1
0.0001065772,-9.778715e-05,3,1
7.059871e-05,-0.0001558065,3,1
3.850978e-05,-0.0002008607,3,1
1.193106e-05,-0.0002418632,3,1
-9.623623e-06,-0.0002822175,3,1
-3.328516e-05,-0.0003233821,3,1
-6.326724e-05,-0.0003635742,3,1
-9.632857e-05,-0.0003969597,3,1
-0.0001227452,-0.0004186764,3,1
-0.0001365208,-0.000424997,3,1
-0.0001415448,-0.0004146248,3,1
-0.0001442999,-0.0003896668,3,1
-0.0001457585,-0.0003590364,3,1
-0.0001428413,-0.0003342404,3,1
-0.0001326312,-0.0003212752,3,1
-0.0001120489,-0.0003177098,3,1
-7.801519e-05,-0.0003193304,3,1
-3.393342e-05,-0.0003162512,3,1
1.290346e-05,-0.0003026377,3,1
5.19612e-05,-0.0002818933,3,1
7.335383e-05,-0.0002577456,3,1
7.432621e-05,-0.0002379736,3,1
6.006447e-05,-0.0002263049,3,1
4.175109e-05,-0.0002204706,3,1
2.667901e-05,-0.0002110708,3,1
2.035846e-05,-0.0001943781,3,1
2.278944e-05,-0.0001700683,3,1
3.494434e-05,-0.0001402483,3,1
5.439218e-05,-0.0001104282,3,1
7.740546e-05,-8.563225e-05,3,1
9.879808e-05,-6.699475e-05,3,1
0.0001143563,-4.997789e-05,3,1
0.0001195424,-3.004385e-05,3,1
0.0001094944,-6.868513e-06,3,1
8.648112e-05,1.371378e-05,3,1
6.670914e-05,2.473423e-05,3,1
6.978839e-05,2.457216e-05,3,1
0.0001064152,2.068259e-05,3,1
0.0001675138,2.003433e-05,3,1
0.000234933,2.667901e-05,3,1
0.0002867939,3.591673e-05,3,1
0.0003135347,4.385793e-05,3,1
0.0003085106,4.920609e-05,3,1
0.0002702632,4.904402e-05,3,1
0.000205275,4.418206e-05,3,1
0.0001271595,3.948217e-05,3,1
5.374392e-05,4.191315e-05,3,1
1.558884e-06,5.52025e-05,3,1
-2.356124e-05,7.821578e-05,3,1
-2.728874e-05,0.0001070634,3,1
-2.339918e-05,0.0001365593,3,1
-2.501983e-05,0.0001645966,3,1
-3.425755e-05,0.0001947408,3,1
-4.300908e-05,0.0002269918,3,1
-4.203669e-05,0.0002574601,3,1
-3.182657e-05,0.0002780424,3,1
-1.788895e-05,0.0002840388,3,1
-6.544382e-06,0.0002735045,3,1
2.855407e-06,0.0002496809,3,1
6.744974e-06,0.0002222919,3,1
1.002961e-07,0.0002034923,3,1
-2.372331e-05,0.0001944166,3,1
-6.0188e-05,0.0001876099,3,1
-0.0001010285,0.0001726999,3,1
-0.0001400862,0.0001503349,3,1
-0.000171851,0.0001239182,3,1
-0.0001898403,9.652917e-05,3,1
-0.0001925954,7.238143e-05,3,1
-0.0001757406,5.763349e-05,3,1
-0.0001392759,5.666109e-05,3,1
-9.017008e-05,6.654708e-05,3,1
-4.722278e-05,8.016057e-05,3,1
-3.166451e-05,8.907416e-05,3,1
-5.192267e-05,9.296373e-05,3,1
-0.0001005423,9.53947e-05,3,1
-0.0001596961,0.0001002567,3,1
-0.0002092881,0.0001038221,3,1
-0.0002321393,0.0001031738,3,1
-0.0002222533,9.717743e-05,3,1
-0.0001893541,8.275361e-05,3,1
-0.000147055,5.471631e-05,3,1
-0.0001078352,1.436204e-05,3,1
-7.963584e-05,-3.020592e-05,3,1
-6.278104e-05,-7.509801e-05,3,1
-5.2733e-05,-0.0001167488,3,1
-4.641245e-05,-0.0001475412,3,1
-3.830919e-05,-0.0001629374,3,1
-2.323711e-05,-0.0001645581,3,1
-2.978945e-06,-0.0001600202,3,1
2.01964e-05,-0.0001567789,3,1
4.790957e-05,-0.0001574272,3,1
8.291568e-05,-0.0001579134,3,1
0.0001148425,-0.0001561307,3,1
0.0001326697,-0.0001498101,3,1
0.0001352628,-0.0001373311,3,1
0.0001302388,-0.0001217728,3,1
0.0001279698,-0.0001078352,3,1
0.0001334801,-9.308726e-05,3,1
0.0001414213,-7.623246e-05,3,1
0.0001412592,-5.613637e-05,3,1
0.000123432,-4.106429e-05,3,1
8.210535e-05,-3.782299e-05,3,1
2.278944e-05,-4.625038e-05,3,1
-3.393342e-05,-6.148453e-05,3,1
-5.516398e-05,-7.590833e-05,3,1
-1.497178e-05,-8.579432e-05,3,1
8.097089e-05,-8.968389e-05,3,1
0.0001970097,-8.773911e-05,3,1
0.0002914938,-7.720486e-05,3,1
0.0003371962,-5.565017e-05,3,1
0.0003328204,-2.501983e-05,3,1
0.0002960316,5.772582e-06,3,1
0.0002464396,2.910999e-05,3,1
0.0002005751,4.256141e-05,3,1
0.0001683241,4.936815e-05,3,1
0.0001558451,4.693717e-05,3,1
0.0001634622,3.478228e-05,3,1
0.0001864754,1.906194e-05,3,1
0.0002143507,8.041497e-06,3,1
0.0002354192,6.582909e-06,3,1
0.0002406053,1.290346e-05,3,1
0.0002284504,2.262738e-05,3,1
0.0002005751,3.073064e-05,3,1
0.0001624898,3.721326e-05,3,1
0.000120839,4.337174e-05,3,1
8.307774e-05,4.807163e-05,3,1
5.374392e-05,5.017848e-05,3,1
3.462021e-05,5.098881e-05,3,1
2.651694e-05,5.423012e-05,3,1
3.640293e-05,6.395404e-05,3,1
7.043665e-05,8.340187e-05,3,1
0.0001219734,0.0001141943,3,1
0.0001743205,0.0001521176,3,1
0.0002054371,0.0001893926,3,1
0.0001971717,0.0002240746,3,1
0.000140773,0.000262322,3,1
4.466826e-05,0.0003101313,3,1
-6.472583e-05,0.0003733368,3,1
-0.0001588858,0.0004546936,3,1
-0.0002212809,0.0005394538,3,1
-0.0002494803,0.000599256,3,1
-0.0002478596,0.0006060627,3,1
-0.0002267911,0.0005446399,3,1
-0.0002013469,0.0004226047,3,1
-0.0001810887,0.0002655633,3,1
-0.0001754164,0.0001041462,3,1
-0.000186761,-3.814712e-05,3,1
-0.0002031296,-0.000147055,3,1
-0.0002125294,-0.0002175534,3,1
-0.0002169052,-0.0002491561,3,1
-0.0002207947,-0.0002457528,3,1
-0.0002287359,-0.0002079916,3,1
-0.0002404046,-0.0001426792,3,1
-0.0002532078,-6.132246e-05,3,1
-0.0002647144,2.554455e-05,3,1
-0.000276221,0.0001125736,3,1
-0.0002830278,0.0001996027,3,1
-0.0002770314,0.0002867939,3,1
-0.0002553146,0.0003722023,3,1
-0.0002211189,0.0004428628,3,1
-0.0001825473,0.000483055,3,1
-0.0001404103,0.0004845136,3,1
-0.0001002181,0.0004443214,3,1
-6.569822e-05,0.0003692851,3,1
-4.122636e-05,0.0002699391,3,1
-2.534396e-05,0.0001595726,3,1
-1.399939e-05,5.066468e-05,3,1
7.485573e-07,-4.38194e-05,3,1
2.327564e-05,-0.0001146419,3,1
5.017848e-05,-0.0001598582,3,1
6.751948e-05,-0.0001835197,3,1
6.395404e-05,-0.0001950263,3,1
3.478228e-05,-0.000204102,3,1
-1.399939e-05,-0.0002152845,3,1
-6.683268e-05,-0.0002340841,3,1
-0.0001034594,-0.0002608248,3,1
-0.000112373,-0.0002921034,3,1
-9.422172e-05,-0.0003222476,3,1
-5.856735e-05,-0.0003475298,3,1
-1.788895e-05,-0.0003606571,3,1
1.97102e-05,-0.0003616295,3,1
5.001642e-05,-0.0003541745,3,1
7.465034e-05,-0.0003436402,3,1
9.831188e-05,-0.0003316474,3,1
0.000125863,-0.0003156029,3,1
0.0001602208,-0.000293562,3,1
0.0001974959,-0.0002692523,3,1
0.0002307193,-0.0002460769,3,1
0.000249843,-0.0002266291,3,1
0.0002509774,-0.0002102605,3,1
0.0002362295,-0.0001969711,3,1
0.0002184023,-0.0001856265,3,1
0.0002171058,-0.0001752544,3,1
0.0002401191,-0.0001639098,3,1
0.0002759355,-0.0001486757,3,1
0.000299597,-0.0001298761,3,1
0.0002882525,-0.0001101041,3,1
0.0002380122,-9.454585e-05,3,1
0.0001589243,-8.336335e-05,3,1
6.897806e-05,-7.380149e-05,3,1
-1.237873e-05,-6.0188e-05,3,1
-6.748094e-05,-3.960571e-05,3,1
-8.530812e-05,-1.189254e-05,3,1
-6.81292e-05,1.954813e-05,3,1
-2.858527e-05,4.904402e-05,3,1
1.306552e-05,7.092284e-05,3,1
4.596478e-05,8.064677e-05,3,1
6.930219e-05,7.935024e-05,3,1
8.826383e-05,6.330578e-05,3,1
0.0001031738,3.299956e-05,3,1
0.0001064152,-6.382317e-06,3,1
9.037068e-05,-4.317115e-05,3,1
5.487838e-05,-7.363943e-05,3,1
6.420843e-06,-9.859748e-05,3,1
-4.738484e-05,-0.0001216107,3,1
-9.486997e-05,-0.0001438137,3,1
-0.0001188556,-0.0001676373,3,1
-0.0001125351,-0.0001906506,3,1
-7.947377e-05,-0.0002075054,3,1
-3.296103e-05,-0.0002125294,3,1
3.665733e-06,-0.0002045882,3,1
1.063454e-05,-0.0001883817,3,1
-1.724069e-05,-0.0001705545,3,1
-6.845333e-05,-0.0001566169,3,1
-0.0001229073,-0.0001475412,3,1
-0.0001642339,-0.0001410586,3,1
-0.0001796301,-0.0001302002,3,1
-0.000166989,-0.000104756,3,1
-0.0001336036,-5.791909e-05,3,1
-9.454585e-05,8.527692e-06,3,1
-5.872941e-05,8.826383e-05,3,1
-2.566809e-05,0.0001790204,3,1
3.341602e-06,0.0002780424,3,1
2.035846e-05,0.0003790091,3,1
1.727922e-05,0.0004692795,3,1
-8.651231e-06,0.0005392918,3,1
-4.770897e-05,0.0005858046,3,1
-8.239095e-05,0.0006037938,3,1
-0.0001002181,0.0005853184,3,1
-0.0001050801,0.0005303781,3,1
-0.0001131834,0.0004501558,3,1
-0.0001431655,0.0003585888,3,1
-0.0001947022,0.0002728562,3,1
-0.0002429977,0.0002093267,3,1
-0.0002609869,0.000175455,3,1
-0.0002370013,0.0001676758,3,1
-0.0001828714,0.0001726999,3,1
-0.0001259865,0.0001762653,3,1
-9.324933e-05,0.0001618415,3,1
-9.632857e-05,0.0001206769,3,1
-0.0001233935,5.94162e-05,3,1
-0.00015451,-9.137427e-06,3,1
-0.0001746061,-6.845333e-05,3,1
-0.0001750923,-0.0001075111,3,1
-0.0001502963,-0.0001232314,3,1
-9.892161e-05,-0.0001225832,3,1
-2.874733e-05,-0.000119666,3,1
5.423012e-05,-0.0001199901,3,1
0.000145797,-0.0001204763,3,1
0.0002333123,-0.0001143178,3,1
0.0002952213,-0.0001024871,3,1
0.0003128864,-9.114248e-05,3,1
0.0002866318,-8.174268e-05,3,1
0.000235095,-7.428769e-05,3,1
0.0001916615,-6.667062e-05,3,1
0.00018291,-5.759496e-05,3,1
0.0002112714,-4.819517e-05,3,1
0.0002608634,-4.138842e-05,3,1
0.0003073762,-3.944364e-05,3,1
0.0003311998,-3.68506e-05,3,1
0.0003264999,-2.955766e-05,3,1
0.0002947351,-1.497178e-05,3,1
0.0002480603,4.151929e-06,3,1
0.0002068957,2.424803e-05,3,1
0.0001859892,3.915804e-05,3,1
0.0001882582,4.223728e-05,3,1
0.0002122438,3.316162e-05,3,1
0.0002485465,1.889987e-05,3,1
0.0002739907,1.031041e-05,3,1
0.0002582704,1.371378e-05,3,1
0.0001846927,2.619281e-05,3,1
6.735741e-05,4.483033e-05,3,1
-4.738484e-05,6.233338e-05,3,1
-0.000112211,7.416415e-05,3,1
-0.0001041077,8.129502e-05,3,1
-3.425755e-05,8.712937e-05,3,1
5.876794e-05,9.588091e-05,3,1
0.0001320215,0.0001064152,3,1
0.0001628139,0.0001163011,3,1
0.0001529279,0.0001240803,3,1
0.0001235941,0.0001268354,3,1
9.474644e-05,0.0001245665,3,1
7.465034e-05,0.0001201907,3,1
6.184718e-05,0.0001154908,3,1
5.131294e-05,0.000110953,3,1
4.288554e-05,0.0001046324,3,1
4.158902e-05,9.814982e-05,3,1
4.936815e-05,9.16672e-05,3,1
6.022653e-05,8.599492e-05,3,1
6.638502e-05,8.259155e-05,3,1
5.56887e-05,7.918817e-05,3,1
2.862379e-05,7.286763e-05,3,1
-9.299493e-06,6.103686e-05,3,1
-4.608832e-05,4.709924e-05,3,1
-7.526008e-05,3.510641e-05,3,1
-0.0001010285,2.457216e-05,3,1
-0.0001318209,1.290346e-05,3,1
-0.0001765509,-3.14101e-06,3,1
-0.0002271153,-2.777494e-05,3,1
-0.0002650386,-6.375344e-05,3,1
-0.0002733039,-0.0001075111,3,1
-0.0002507768,-0.0001543479,3,1
-0.0002138259,-0.0002003745,3,1
-0.0001849783,-0.0002441321,3,1
-0.0001746061,-0.0002827037,3,1
-0.0001830335,-0.0003167374,3,1
-0.0002011848,-0.0003481781,3,1
-0.0002157707,-0.0003771877,3,1
-0.00021415,-0.0004053871,3,1
-0.0001908126,-0.0004301831,3,1
-0.0001577513,-0.0004463896,3,1
-0.0001313347,-0.0004446069,3,1
-0.0001191798,-0.0004254832,3,1
-0.0001170729,-0.0003969597,3,1
-0.0001146419,-0.0003668155,3,1
-0.0001071869,-0.0003384541,3,1
-9.535618e-05,-0.0003091203,3,1
-7.623246e-05,-0.0002673075,3,1
-4.835724e-05,-0.0001982676,3,1
-1.643037e-05,-9.179074e-05,3,1
1.22552e-05,4.936815e-05,3,1
2.81376e-05,0.0002125679,3,1
2.505836e-05,0.000376416,3,1
6.096713e-06,0.0005154681,3,1
-1.529591e-05,0.0006031455,3,1
-2.307504e-05,0.0006308587,3,1
-4.923729e-06,0.0006088178,3,1
3.251336e-05,0.0005551741,3,1
7.30297e-05,0.0004911583,3,1
0.0001002567,0.0004294114,3,1
0.0001091703,0.0003700955,3,1
9.733949e-05,0.00030689,3,1
6.719535e-05,0.0002373639,3,1
2.408596e-05,0.0001610312,3,1
-2.356124e-05,7.67572e-05,3,1
-6.229485e-05,-9.461558e-06,3,1
-7.833932e-05,-8.563225e-05,3,1
-6.650855e-05,-0.0001355484,3,1
-3.377136e-05,-0.0001512687,3,1
4.47606e-06,-0.000134738,3,1
3.413401e-05,-9.2439e-05,3,1
4.628891e-05,-3.26369e-05,3,1
4.920609e-05,3.55926e-05,3,1
6.055066e-05,0.0001046324,3,1
9.896015e-05,0.0001642725,3,1
0.0001618415,0.0002086784,3,1
0.0002294227,0.0002333123,3,1
0.0002736666,0.0002388225,3,1
0.0002811216,0.0002284504,3,1
0.0002566497,0.0002088404,3,1
0.0002182402,0.0001885823,3,1
0.0001890685,0.0001795066,3,1
0.0001783722,0.0001859892,3,1
0.0001814514,0.000202682,3,1
0.0001890685,0.000220023,3,1
0.0001955511,0.0002354192,3,1
0.0001973338,0.0002525981,3,1
0.0001973338,0.0002809595,3,1
0.0001937684,0.0003195311,3,1
0.0001833962,0.0003571303,3,1
0.0001636242,0.0003781987,3,1
0.0001355869,0.0003700955,3,1
9.944634e-05,0.0003360618,3,1
5.714729e-05,0.0002911697,3,1
1.1769e-05,0.0002569738,3,1
-3.409549e-05,0.0002448189,3,1
-7.65566e-05,0.0002513016,3,1
-0.0001105903,0.0002602152,3,1
-0.0001266348,0.000252436,3,1
-0.0001178833,0.0002166196,3,1
-8.498399e-05,0.0001535762,3,1
-3.879538e-05,7.351589e-05,3,1
4.638125e-06,-7.030578e-06,3,1
3.283749e-05,-7.266703e-05,3,1
3.60788e-05,-0.000117235,3,1
1.744129e-05,-0.0001449482,3,1
-1.934754e-05,-0.0001621271,3,1
-7.120844e-05,-0.000174444,3,1
-0.000137169,-0.0001864369,3,1
-0.0002118811,-0.0002018331,3,1
-0.000278652,-0.0002220912,3,1
-0.0003203028,-0.0002467252,3,1
-0.0003350507,-0.0002718453,3,1
-0.0003300267,-0.0002946965,3,1
-0.0003160891,-0.0003141443,3,1
-0.0002951827,-0.0003340784,3,1
-0.0002632558,-0.000355633,3,1
-0.0002152845,-0.0003775118,3,1
-0.0001538618,-0.0003948528,3,1
-9.114248e-05,-0.000405225,3,1
-3.766092e-05,-0.0004040906,3,1
-1.682422e-06,-0.0003935563,3,1
1.906194e-05,-0.000372974,3,1
2.829966e-05,-0.0003433161,3,1
3.348575e-05,-0.0003063652,3,1
3.915804e-05,-0.0002677937,3,1
4.645098e-05,-0.000238946,3,1
5.244739e-05,-0.0002276015,3,1
5.601284e-05,-0.0002399184,3,1
5.406805e-05,-0.0002700626,3,1
4.531652e-05,-0.0003055549,3,1
2.781346e-05,-0.0003352128,3,1
4.151929e-06,-0.0003517435,3,1
-1.740276e-05,-0.0003536883,3,1
-2.826114e-05,-0.0003403989,3,1
-2.647842e-05,-0.0003144685,3,1
-1.480971e-05,-0.0002827037,3,1
5.86492e-07,-0.0002499665,3,1
1.371378e-05,-0.0002196603,3,1
2.133085e-05,-0.0001929195,3,1
2.570662e-05,-0.0001697442,3,1
2.781346e-05,-0.0001467309,3,1
2.489629e-05,-0.000119666,3,1
1.695509e-05,-8.919769e-05,3,1
4.313994e-06,-5.629844e-05,3,1
-5.085794e-06,-2.226472e-05,3,1
-1.196227e-06,1.322759e-05,3,1
2.165498e-05,5.179914e-05,3,1
5.633696e-05,9.426025e-05,3,1
8.486046e-05,0.0001448246,3,1
9.020862e-05,0.0002099749,3,1
6.719535e-05,0.0002882525,3,1
3.267542e-05,0.0003632887,3,1
1.306552e-05,0.0004153117,3,1
2.586868e-05,0.0004337872,3,1
7.367795e-05,0.0004169324,3,1
0.0001370455,0.0003694472,3,1
0.0001908512,0.0002984626,3,1
0.0002182402,0.0002166196,3,1
0.0002195368,0.0001417454,3,1
0.0002054371,9.085688e-05,3,1
0.0001944166,6.962632e-05,3,1
0.0001976579,7.124698e-05,3,1
0.0002094887,7.870197e-05,3,1
0.0002219677,7.853991e-05,3,1
0.0002282883,6.78436e-05,3,1
0.0002239125,5.228533e-05,3,1
0.0002090025,3.899597e-05,3,1
0.0001830721,3.056858e-05,3,1
0.0001467694,2.278944e-05,3,1
0.0001075496,1.403791e-05,3,1
7.027458e-05,8.527692e-06,3,1
4.013043e-05,9.013889e-06,3,1
1.987227e-05,1.808955e-05,3,1
9.986281e-06,3.672706e-05,3,1
7.717366e-06,6.233338e-05,3,1
8.527692e-06,9.037068e-05,3,1
8.041497e-06,0.000115977,3,1
-1.196227e-06,0.0001367214,3,1
-2.745081e-05,0.0001535762,3,1
-6.81292e-05,0.0001649207,3,1
-0.0001110765,0.0001683241,3,1
-0.0001462447,0.0001639484,3,1
-0.0001686097,0.0001547106,3,1
-0.0001760647,0.0001438522,3,1
-0.0001736337,0.0001325077,3,1
-0.0001622891,0.0001203528,3,1
-0.0001417068,0.0001030118,3,1
-0.0001152902,8.210535e-05,3,1
-8.757704e-05,6.427817e-05,3,1
-6.91016e-05,5.277153e-05,3,1
-6.537409e-05,4.920609e-05,3,1
-7.65566e-05,4.936815e-05,3,1
-9.535618e-05,4.45062e-05,3,1
-0.0001115627,2.716521e-05,3,1
-0.0001178833,-1.520357e-06,3,1
-0.0001094559,-4.074016e-05,3,1
-8.757704e-05,-8.206682e-05,3,1
-5.289507e-05,-0.0001186936,3,1
-1.578211e-05,-0.000147055,3,1
1.095867e-05,-0.0001684476,3,1
1.857574e-05,-0.0001861127,3,1
1.031041e-05,-0.0002029675,3,1
-1.043395e-05,-0.000221605,3,1
-3.571614e-05,-0.0002366771,3,1
-5.483985e-05,-0.0002404046,3,1
-5.905355e-05,-0.0002329496,3,1
-4.657452e-05,-0.0002198223,3,1
-2.42095e-05,-0.0002050744,3,1
-2.654814e-06,-0.0001890299,3,1
8.365628e-06,-0.0001720131,3,1
-1.682422e-06,-0.0001499722,3,1
-3.198864e-05,-0.0001156143,3,1
-7.266703e-05,-6.667062e-05,3,1
-0.0001079973,-7.354709e-06,3,1
-0.0001224211,5.99024e-05,3,1
-0.0001104282,0.0001271595,3,1
-8.222889e-05,0.0001837203,3,1
-4.997789e-05,0.0002158093,3,1
-2.064406e-05,0.0002159713,3,1
1.558884e-06,0.0001863134,3,1
1.825161e-05,0.0001320215,3,1
3.964424e-05,6.719535e-05,3,1
7.30297e-05,1.1769e-05,3,1
0.0001167873,-2.599222e-05,3,1
0.000160545,-4.738484e-05,3,1
0.0001880961,-5.500191e-05,3,1
0.0001864754,-4.835724e-05,3,1
0.0001519555,-3.134038e-05,3,1
9.26396e-05,-7.516774e-06,3,1
2.878586e-05,1.695509e-05,3,1
-1.513384e-05,3.478228e-05,3,1
-2.339918e-05,4.35338e-05,3,1
3.179537e-06,4.580272e-05,3,1
4.904402e-05,4.547859e-05,3,1
9.620504e-05,4.499239e-05,3,1
0.0001289422,4.888196e-05,3,1
0.0001368834,6.816773e-05,3,1
0.000123432,0.0001166253,3,1
0.000101067,0.0002070577,3,1
7.967438e-05,0.0003334687,3,1
6.444023e-05,0.0004743035,3,1
5.633696e-05,0.0005984457,3,1
5.309566e-05,0.000681099,3,1
5.179914e-05,0.0007013571,3,1
5.131294e-05,0.0006543582,3,1
6.184718e-05,0.0005574431,3,1
9.134307e-05,0.0004380009,3,1
0.0001385041,0.0003277964,3,1
0.0001897167,0.0002472499,3,1
0.0002235884,0.0002057612,3,1
0.0002242366,0.0001979821,3,1
0.0001910133,0.0002137024,3,1
0.0001373696,0.0002462775,3,1
7.513654e-05,0.000294573,3,1
1.257933e-05,0.0003504856,3,1
-4.38194e-05,0.0003997535,3,1
-8.547019e-05,0.0004273046,3,1
-0.0001058904,0.0004266563,3,1
-0.000104918,0.0003957018,3,1
-9.114248e-05,0.0003362238,3,1
-7.526008e-05,0.0002530843,3,1
-5.937768e-05,0.000160545,3,1
-4.074016e-05,7.562274e-05,3,1
-2.031993e-05,8.203562e-06,3,1
-3.789272e-06,-4.090223e-05,3,1
4.244267e-07,-7.493595e-05,3,1
-1.027188e-05,-0.0001008664,3,1
-2.955766e-05,-0.0001240417,3,1
-4.787104e-05,-0.0001451102,3,1
-6.294311e-05,-0.0001656925,3,1
-7.412562e-05,-0.0001896782,3,1
-8.125649e-05,-0.0002175534,3,1
-7.898758e-05,-0.000246401,3,1
-6.893953e-05,-0.0002742763,3,1
-6.083626e-05,-0.0002976137,3,1
-6.407757e-05,-0.0003146305,3,1
-7.671866e-05,-0.0003241924,3,1
-8.692878e-05,-0.000325813,3,1
-8.498399e-05,-0.0003225718,3,1
-6.877746e-05,-0.0003178718,3,1
-4.916756e-05,-0.0003156029,3,1
-3.377136e-05,-0.0003143064,3,1
-2.777494e-05,-0.0003167374,3,1
-3.506788e-05,-0.0003243544,3,1
-5.013995e-05,-0.0003347266,3,1
-6.44017e-05,-0.0003436402,3,1
-7.137051e-05,-0.0003491504,3,1
-6.586029e-05,-0.0003512573,3,1
-5.046408e-05,-0.000348016,3,1
-2.907146e-05,-0.0003395886,3,1
-3.789272e-06,-0.0003259751,3,1
2.133085e-05,-0.0003126857,3,1
4.158902e-05,-0.0003026377,3,1
5.358185e-05,-0.0002961551,3,1
5.860588e-05,-0.0002893484,3,1
6.168512e-05,-0.0002801106,3,1
6.978839e-05,-0.0002689281,3,1
8.518459e-05,-0.0002569353,3,1
9.977047e-05,-0.0002481838,3,1
0.0001054428,-0.0002391081,3,1
9.960841e-05,-0.0002253326,3,1
8.405014e-05,-0.0002060468,3,1
6.670914e-05,-0.0001815749,3,1
5.471631e-05,-0.000156941,3,1
5.034055e-05,-0.0001314967,3,1
5.066468e-05,-0.000107349,3,1
4.953022e-05,-8.368748e-05,3,1
4.418206e-05,-6.099833e-05,3,1
4.110282e-05,-3.879538e-05,3,1
5.050261e-05,-1.464765e-05,3,1
7.497447e-05,1.12828e-05,3,1
0.0001107909,3.721326e-05,3,1
0.0001522796,5.94162e-05,3,1
0.000187934,7.789165e-05,3,1
0.0002072198,9.798775e-05,3,1
0.0002093267,0.0001203528,3,1
0.000202844,0.0001425557,3,1
0.0001960373,0.000163138,3,1
0.000190365,0.0001795066,3,1
0.0001773998,0.000192796,3,1
0.0001470936,0.0002059233,3,1
9.490851e-05,0.0002196988,3,1
2.846173e-05,0.0002347709,3,1
-3.604027e-05,0.0002496809,3,1
-8.02841e-05,0.0002610255,3,1
-9.632857e-05,0.0002641047,3,1
-8.854943e-05,0.0002610255,3,1
-6.91016e-05,0.0002558394,3,1
-4.770897e-05,0.000249843,3,1
-2.971972e-05,0.000247412,3,1
-1.853722e-05,0.0002462775,3,1
-1.335113e-05,0.0002415777,3,1
-1.108221e-05,0.0002305572,3,1
-1.092015e-05,0.0002119197,3,1
-1.545797e-05,0.0001890685,3,1
-2.858527e-05,0.0001634622,3,1
-4.787104e-05,0.0001370455,3,1
-6.796714e-05,0.0001130598,3,1
-8.692878e-05,9.085688e-05,3,1
-9.713889e-05,6.719535e-05,3,1
-9.762509e-05,4.434413e-05,3,1
-9.373552e-05,2.570662e-05,3,1
-8.935975e-05,1.12828e-05,3,1
-8.838737e-05,3.341602e-06,3,1
-9.276313e-05,1.234753e-06,3,1
-0.000104756,3.341602e-06,3,1
-0.0001240417,6.258778e-06,3,1
-0.0001408965,7.717366e-06,3,1
-0.0001376552,4.47606e-06,3,1
-0.0001060525,-6.220252e-06,3,1
-5.516398e-05,-2.113026e-05,3,1
-7.840905e-06,-3.425755e-05,3,1
1.063454e-05,-3.911951e-05,3,1
-1.124428e-05,-3.393342e-05,3,1
-6.683268e-05,-1.902341e-05,3,1
-0.0001344139,3.017472e-06,3,1
-0.0001888679,2.943412e-05,3,1
-0.0002186879,6.703327e-05,3,1
-0.000223874,0.0001219734,3,1
-0.0002081536,0.0001871237,3,1
-0.0001762268,0.0002441707,3,1
-0.0001384655,0.000277232,3,1
-0.0001075111,0.0002765838,3,1
-9.2439e-05,0.0002435224,3,1
-9.422172e-05,0.000185341,3,1
-0.0001096179,0.0001099806,3,1
-0.0001344139,2.81376e-05,3,1
-0.0001583996,-4.560212e-05,3,1
-0.0001705545,-9.892161e-05,3,1
-0.0001640719,-0.0001295519,3,1
-0.0001433275,-0.0001447861,3,1
-0.0001255003,-0.000149486,3,1
-0.0001203142,-0.0001496481,3,1
-0.00012469,-0.0001472171,3,1
-0.000127121,-0.0001426792,3,1
-0.0001157764,-0.000137007,3,1
-8.611845e-05,-0.0001318209,3,1
-4.333321e-05,-0.0001277692,3,1
7.485573e-07,-0.0001235555,3,1
2.878586e-05,-0.0001183694,3,1
3.93201e-05,-0.0001125351,3,1
4.256141e-05,-0.0001079973,3,1
5.19612e-05,-0.0001039456,3,1
7.335383e-05,-9.681477e-05,3,1
0.0001052807,-8.044617e-05,3,1
0.0001438522,-5.69467e-05,3,1
0.0001838824,-3.21507e-05,3,1
0.0002188885,-1.367526e-05,3,1
0.0002404432,-2.654814e-06,3,1
0.0002475741,2.531276e-06,3,1
0.0002472499,5.934648e-06,3,1
0.000252274,8.527692e-06,3,1
0.000267346,8.203562e-06,3,1
0.0002872801,6.744974e-06,3,1
0.0002983005,9.66215e-06,3,1
0.000297004,1.873781e-05,3,1
0.0002880904,3.18651e-05,3,1
0.0002837146,4.661304e-05,3,1
0.0002905214,6.200925e-05,3,1
0.0003047831,7.67572e-05,3,1
0.0003127243,8.956036e-05,3,1
0.0003015418,9.766362e-05,3,1
0.0002691288,9.831188e-05,3,1
0.0002227781,8.972242e-05,3,1
0.0001710792,7.67572e-05,3,1
0.0001235941,6.751948e-05,3,1
8.74535e-05,6.249545e-05,3,1
6.217132e-05,5.698522e-05,3,1
4.02925e-05,4.742337e-05,3,1
1.452411e-05,3.55926e-05,3,1
-1.513384e-05,2.214118e-05,3,1
-4.155049e-05,8.851824e-06,3,1
-5.921561e-05,7.485573e-07,3,1
-7.104638e-05,-2.238346e-07,3,1
-8.563225e-05,7.069105e-06,3,1
-0.0001037836,2.01964e-05,3,1
-0.0001264727,3.769945e-05,3,1
-0.0001436516,5.504044e-05,3,1
-0.0001352242,6.638502e-05,3,1
-9.29252e-05,6.930219e-05,3,1
-3.377136e-05,6.914012e-05,3,1
1.144487e-05,7.708133e-05,3,1
2.278944e-05,0.0001007429,3,1
-3.789272e-06,0.0001328318,3,1
-5.840528e-05,0.000158114,3,1
-0.0001175591,0.0001545486,3,1
-0.0001562927,0.000106091,3,1
-0.0001541859,1.22552e-05,3,1
-0.0001062146,-0.0001115627,3,1
-2.664048e-05,-0.000238946,3,1
5.504044e-05,-0.0003467195,3,1
0.0001094944,-0.0004181903,3,1
0.0001222976,-0.0004491447,3,1
9.409818e-05,-0.0004468758,3,1
3.802358e-05,-0.0004233763,3,1
-3.425755e-05,-0.0003901529,3,1
-0.0001094559,-0.0003528779,3,1
-0.0001705545,-0.0003152788,3,1
-0.0002075054,-0.0002781658,3,1
-0.0002191741,-0.0002394322,3,1
-0.0002075054,-0.0001888679,3,1
-0.0001754164,-0.0001118868,3,1
-0.0001306864,3.827799e-06,3,1
-8.174268e-05,0.0001563313,3,1
-3.587821e-05,0.0003277964,3,1
-1.358292e-06,0.0004921307,3,1
1.695509e-05,0.0006212969,3,1
1.987227e-05,0.0006963331,3,1
9.338019e-06,0.0007154569,3,1
-8.327101e-06,0.0006895264,3,1
-2.437157e-05,0.0006298863,3,1
-3.425755e-05,0.0005443158,3,1
-3.474375e-05,0.0004414042,3,1
-3.020592e-05,0.0003297412,3,1
-2.777494e-05,0.0002167816,3,1
-3.312309e-05,0.0001114392,3,1
-4.47918e-05,2.197911e-05,3,1
-5.532604e-05,-4.349527e-05,3,1
-5.078821e-05,-7.914964e-05,3,1
-1.886135e-05,-8.40116e-05,3,1
3.591673e-05,-6.48879e-05,3,1
9.296373e-05,-3.247483e-05,3,1
0.0001310491,-1.358292e-06,3,1
0.0001378558,1.938607e-05,3,1
0.0001185701,3.008238e-05,3,1
8.405014e-05,3.413401e-05,3,1
4.855783e-05,3.202716e-05,3,1
2.619281e-05,1.64689e-05,3,1
3.672706e-05,-1.529591e-05,3,1
8.46984e-05,-5.808115e-05,3,1
0.000158114,-0.0001063766,3,1
0.0002365536,-0.0001514308,3,1
0.0002979764,-0.0001870851,3,1
0.0003237448,-0.0002102605,3,1
0.0003098072,-0.0002170672,3,1
0.0002676702,-0.0002062088,3,1
0.0002156472,-0.0001796301,3,1
0.0001670276,-0.0001405724,3,1
0.0001338042,-9.503204e-05,3,1
0.0001180839,-4.462973e-05,3,1
0.000110953,4.151929e-06,3,1
0.0001022015,5.131294e-05,3,1
8.631905e-05,9.960841e-05,3,1
6.119892e-05,0.0001529279,3,1
2.910999e-05,0.0002208333,3,1
-1.196227e-06,0.0003064038,3,1
-1.950961e-05,0.0003931088,3,1
-2.242678e-05,0.000453235,3,1
-1.691656e-05,0.0004700898,3,1
-1.25408e-05,0.000438325,3,1
-1.934754e-05,0.0003650715,3,1
-3.506788e-05,0.0002666978,3,1
-4.868137e-05,0.0001621656,3,1
-4.041603e-05,7.286763e-05,3,1
5.448452e-06,1.112074e-05,3,1
8.599492e-05,-1.950961e-05,3,1
0.0001684862,-2.46957e-05,3,1
0.0002104611,-8.975362e-06,3,1
0.0001887444,1.776542e-05,3,1
0.0001141943,4.158902e-05,3,1
1.695509e-05,4.790957e-05,3,1
-7.137051e-05,2.862379e-05,3,1
-0.0001319829,-1.643037e-05,3,1
-0.0001652063,-8.255302e-05,3,1
-0.0001883817,-0.0001598582,3,1
-0.0002169052,-0.0002405667,3,1
-0.0002535319,-0.0003199787,3,1
-0.0002917793,-0.0003922598,3,1
-0.0003194925,-0.0004478482,3,1
-0.0003274337,-0.0004778303,3,1
-0.0003050687,-0.0004792889,3,1
-0.0002527216,-0.0004588687,3,1
-0.0001781716,-0.0004298589,3,1
-9.632857e-05,-0.0004066836,3,1
-2.615429e-05,-0.0003946908,3,1
1.533444e-05,-0.0003935563,3,1
1.938607e-05,-0.0003985804,3,1
-1.335113e-05,-0.0004018217,3,1
-6.91016e-05,-0.0003984183,3,1
-0.0001235555,-0.0003873979,3,1
-0.0001627754,-0.0003689224,3,1
-0.0001802784,-0.0003457471,3,1
-0.0001773612,-0.0003198166,3,1
-0.0001567789,-0.0002921034,3,1
-0.000122259,-0.0002635799,3,1
-8.465986e-05,-0.0002376495,3,1
-5.354332e-05,-0.0002170672,3,1
-3.344723e-05,-0.0002031296,3,1
-2.080613e-05,-0.0001903264,3,1
-9.785688e-06,-0.0001705545,3,1
2.207145e-06,-0.0001386276,3,1
1.630683e-05,-9.373552e-05,3,1
3.478228e-05,-3.879538e-05,3,1
5.260946e-05,2.457216e-05,3,1
6.444023e-05,0.0001009049,3,1
6.638502e-05,0.0001958752,3,1
5.698522e-05,0.0003089969,3,1
4.061663e-05,0.0004224426,3,1
2.39239e-05,0.0005096338,3,1
1.014835e-05,0.0005512846,3,1
-2.238346e-07,0.0005431813,3,1
-4.113403e-06,0.0004932652,3,1
3.503668e-06,0.000418391,3,1
2.927205e-05,0.0003384927,3,1
7.157111e-05,0.0002675081,3,1
0.0001242423,0.0002096508,3,1
0.0001723757,0.0001689724,3,1
0.0002054371,0.0001490383,3,1
0.000217754,0.0001488763,3,1
0.0002124059,0.0001594105,3,1
0.0001961994,0.000168,3,1
0.0001765894,0.0001710792,3,1
0.000153252,0.0001725378,3,1
0.0001326697,0.0001757791,3,1
0.0001185701,0.0001848548,3,1
0.0001151667,0.0001976579,3,1
0.0001266733,0.0002068957,3,1
0.0001592484,0.0002062474,3,1
0.0002070577,0.0001936063,3,1
0.0002563256,0.0001736723,3,1
0.000292142,0.0001529279,3,1
0.0003046211,0.0001378558,3,1
0.0002924662,0.0001352628,3,1
0.0002594049,0.0001412592,3,1
0.0002138645,0.0001483901,3,1
0.0001665414,0.0001521176,3,1
0.0001237561,0.000153252,3,1
8.323981e-05,0.0001534141,3,1
4.434413e-05,0.0001561692,3,1
4.638125e-06,0.0001626518,3,1
-3.247483e-05,0.000170593,3,1
-6.310517e-05,0.0001777239,3,1
-8.790117e-05,0.0001827479,3,1
-0.0001070249,0.0001861513,3,1
-0.0001178833,0.0001864754,3,1
-0.0001146419,0.0001820997,3,1
-9.600444e-05,0.0001714034,3,1
-6.861539e-05,0.0001553589,3,1
-3.863332e-05,0.0001344524,3,1
-9.137427e-06,0.0001091703,3,1
1.452411e-05,8.340187e-05,3,1
2.797553e-05,5.828175e-05,3,1
2.068259e-05,3.283749e-05,3,1
-1.740276e-05,1.014835e-05,3,1
-8.465986e-05,-7.192643e-06,3,1
-0.0001588858,-1.918548e-05,3,1
-0.0002135018,-2.647842e-05,3,1
-0.0002269532,-3.036798e-05,3,1
-0.0001989159,-3.68506e-05,3,1
-0.0001498101,-4.738484e-05,3,1
-0.0001078352,-6.278104e-05,3,1
-9.308726e-05,-8.579432e-05,3,1
-0.0001081593,-0.0001138316,3,1
-0.0001415448,-0.0001436516,3,1
-0.0001788198,-0.0001676373,3,1
-0.0002086398,-0.0001833576,3,1
-0.0002229016,-0.0001903264,3,1
-0.0002182017,-0.0001885437,3,1
-0.0001977815,-0.0001786577,3,1
-0.0001673132,-0.0001653684,3,1
-0.0001323071,-0.0001564548,3,1
-9.827335e-05,-0.0001583996,3,1
-7.039812e-05,-0.0001708786,3,1
-5.127441e-05,-0.0001896782,3,1
-3.895745e-05,-0.0002104225,3,1
-3.474375e-05,-0.0002303566,3,1
-3.782299e-05,-0.0002459149,3,1
-4.365734e-05,-0.0002556388,3,1
-4.706071e-05,-0.0002580697,3,1
-4.884343e-05,-0.0002517492,3,1
-4.932962e-05,-0.0002415391,3,1
-4.495386e-05,-0.0002342462,3,1
-3.279896e-05,-0.0002311669,3,1
-1.643037e-05,-0.0002274394,3,1
4.244267e-07,-0.0002188499,3,1
1.695509e-05,-0.0002023193,3,1
3.60788e-05,-0.0001781716,3,1
6.022653e-05,-0.0001473791,3,1
8.923623e-05,-0.0001165867,3,1
0.0001227837,-8.773911e-05,3,1
0.0001514693,-5.402952e-05,3,1
0.000168,-6.706447e-06,3,1
0.0001684862,5.844381e-05,3,1
0.0001577899,0.0001376938,3,1
0.0001409351,0.0002203471,3,1
0.0001229458,0.0002931144,3,1
0.0001051186,0.0003399513,3,1
8.615699e-05,0.0003488649,3,1
6.978839e-05,0.0003149933,3,1
6.022653e-05,0.0002490327,3,1
6.103686e-05,0.0001722137,3,1
7.740546e-05,0.0001049566,3,1
0.0001171115,5.666109e-05,3,1
0.0001809652,2.34377e-05,3,1
0.0002543808,1.396819e-06,3,1
0.0003148312,-8.327101e-06,3,1
0.000339141,-5.89612e-06,3,1
0.0003211517,6.744974e-06,3,1
0.0002717218,2.165498e-05,3,1
0.0002094887,3.575467e-05,3,1
0.000155683,4.904402e-05,3,1
0.0001224596,6.136099e-05,3,1
0.0001107909,7.20573e-05,3,1
0.0001091703,8.453633e-05,3,1
9.831188e-05,9.733949e-05,3,1
7.562274e-05,0.0001075496,3,1
5.325772e-05,0.0001125736,3,1
4.35338e-05,0.0001153287,3,1
5.179914e-05,0.0001244044,3,1
6.687121e-05,0.0001449867,3,1
7.319176e-05,0.0001759412,3,1
6.395404e-05,0.0002124059,3,1
3.624086e-05,0.0002488706,3,1
-4.923729e-06,0.0002795009,3,1
-4.997789e-05,0.0002934386,3,1
-8.563225e-05,0.0002838767,3,1
-0.0001041077,0.0002482223,3,1
-0.0001081593,0.0001916615,3,1
-0.0001054042,0.0001304008,3,1
-0.0001015147,7.805372e-05,3,1
-9.697683e-05,3.786152e-05,3,1
-0.0001000561,9.986281e-06,3,1
-0.0001151281,-8.002969e-06,3,1
-0.0001379794,-1.886135e-05,3,1
-0.000156941,-2.161646e-05,3,1
-0.0001645581,-1.724069e-05,3,1
-0.0001536997,-7.840905e-06,3,1
-0.0001251762,2.04508e-06,3,1
-9.438378e-05,6.744974e-06,3,1
-7.866345e-05,5.772582e-06,3,1
-8.271508e-05,-6.176923e-08,3,1
-9.730096e-05,-5.734056e-06,3,1
-0.0001094559,-5.734056e-06,3,1
-0.0001131834,-1.682422e-06,3,1
-0.00010978,4.638125e-06,3,1
-0.0001088076,8.851824e-06,3,1
-0.0001216107,6.90704e-06,3,1
-0.0001501342,-1.043395e-05,3,1
-0.0001849783,-5.013995e-05,3,1
-0.0002100984,-0.0001117248,3,1
-0.0002183637,-0.0001846542,3,1
-0.0002123673,-0.000251263,3,1
-0.0002006986,-0.0002961551,3,1
-0.0001909747,-0.0003147926,3,1
-0.0001851404,-0.0003104168,3,1
-0.0001838438,-0.0002955068,3,1
-0.0001880575,-0.0002812451,3,1
-0.0001921092,-0.0002775176,3,1
-0.0001830335,-0.0002891863,3,1
-0.0001475412,-0.0003121996,3,1
-8.887356e-05,-0.0003391024,3,1
-2.129233e-05,-0.0003585502,3,1
4.142696e-05,-0.0003601709,3,1
8.777764e-05,-0.0003420196,3,1
0.0001154908,-0.0003113892,3,1
0.0001269974,-0.0002737901,3,1
0.0001250527,-0.0002321393,3,1
0.0001086841,-0.0001887058,3,1
8.291568e-05,-0.0001498101,3,1
6.249545e-05,-0.0001159385,3,1
5.957827e-05,-8.547019e-05,3,1
7.756752e-05,-5.159854e-05,3,1
0.0001117633,-5.734056e-06,3,1
0.0001516314,5.730935e-05,3,1
0.0001889064,0.0001295905,3,1
0.0002229401,0.0001947408,3,1
0.0002480603,0.000237526,3,1
0.0002550291,0.0002511395,3,1
0.0002362295,0.0002370398,3,1
0.0001960373,0.0002111094,3,1
0.0001508211,0.000190365,3,1
0.0001248906,0.0001890685,3,1
0.0001329939,0.000217754,3,1
0.0001738343,0.0002837146,3,1
0.0002289366,0.0003799815,3,1
0.0002780424,0.0004867825,3,1
0.0003030004,0.0005762426,3,1
0.0003034866,0.0006250244,3,1
0.0002916559,0.0006219451,3,1
0.0002751252,0.0005676532,3,1
0.0002543808,0.0004767345,3,1
0.0002279642,0.000368799,3,1
0.0001864754,0.0002660495,3,1
0.0001201907,0.0001872858,3,1
2.959619e-05,0.0001402868,3,1
-7.299116e-05,0.0001200286,3,1
-0.0001656925,0.0001203528,3,1
-0.0002233878,0.0001352628,3,1
-0.0002306807,0.0001568175,3,1
-0.0001921092,0.0001793446,3,1
-0.0001230693,0.0001984683,3,1
-4.576419e-05,0.0002145127,3,1
1.97102e-05,0.0002273159,3,1
6.168512e-05,0.0002363916,3,1
7.805372e-05,0.0002389846,3,1
7.432621e-05,0.0002294227,3,1
6.006447e-05,0.0002017096,3,1
4.661304e-05,0.0001564933,3,1
3.899597e-05,0.0001026876,3,1
3.543054e-05,4.871989e-05,3,1
2.781346e-05,9.106227e-07,3,1
7.393236e-06,-4.05781e-05,3,1
-2.7937e-05,-7.736692e-05,3,1
-7.785312e-05,-0.0001133454,3,1
-0.0001357104,-0.0001512687,3,1
-0.0001903264,-0.0001900023,3,1
-0.0002321393,-0.0002232257,3,1
-0.0002546664,-0.0002478596,3,1
-0.0002527216,-0.0002642282,3,1
-0.0002209568,-0.000278652,3,1
-0.0001652063,-0.0002911311,3,1
-9.827335e-05,-0.000303448,3,1
-3.976777e-05,-0.0003100927,3,1
-5.89612e-06,-0.0003099306,3,1
-5.734056e-06,-0.0003094444,3,1
-4.090223e-05,-0.0003113892,3,1
-0.0001005423,-0.0003144685,3,1
-0.0001618029,-0.0003126857,3,1
-0.0002050744,-0.0003000446,3,1
-0.0002225774,-0.0002746004,3,1
-0.0002154466,-0.0002408908,3,1
-0.0001943781,-0.0002013469,3,1
-0.0001686097,-0.0001571031,3,1
-0.0001389517,-0.0001076731,3,1
-0.0001094559,-5.613637e-05,3,1
-8.968389e-05,-1.383732e-05,3,1
-8.676672e-05,3.503668e-06,3,1
-0.0001052422,-9.461558e-06,3,1
-0.0001374932,-4.868137e-05,3,1
-0.0001639098,-0.0001000561,3,1
-0.0001600202,-0.0001491618,3,1
-0.0001139937,-0.0001848162,3,1
-3.279896e-05,-0.0002031296,3,1
6.055066e-05,-0.0002060468,3,1
0.000145797,-0.0002021572,3,1
0.0002072198,-0.0001977815,3,1
0.0002368777,-0.000194216,3,1
0.0002359054,-0.0001895161,3,1
0.0002130541,-0.0001809267,3,1
0.0001827479,-0.0001707166,3,1
0.0001563313,-0.0001600202,3,1
0.0001363972,-0.0001426792,3,1
0.0001263492,-0.0001110765,3,1
0.0001299146,-6.39155e-05,3,1
0.0001519555,5.124321e-06,3,1
0.0001937684,9.588091e-05,3,1
0.0002537325,0.0001983062,3,1
0.0003230965,0.0002952213,3,1
0.000383709,0.000368799,3,1
0.0004221185,0.0004086671,3,1
0.0004240633,0.0004073705,3,1
0.0003905157,0.0003684748,3,1
0.0003310377,0.000304297,3,1
0.0002574601,0.0002323399,3,1
0.0001840444,0.000168162,3,1
0.0001222976,0.0001231079,3,1
7.659513e-05,0.00010366,3,1
4.693717e-05,0.0001145184,3,1
3.154097e-05,0.00015309,3,1
2.522042e-05,0.0002107852,3,1
2.327564e-05,0.0002718839,3,1
3.024445e-05,0.0003226103,3,1
5.212327e-05,0.0003527545,3,1
8.777764e-05,0.0003506476,3,1
0.0001266733,0.0003065659,3,1
0.0001472556,0.0002256952,3,1
0.0001398006,0.0001235941,3,1
0.0001096565,2.133085e-05,3,1
6.930219e-05,-6.44017e-05,3,1
2.862379e-05,-0.000122097,3,1
-3.303076e-06,-0.0001507825,3,1
-2.583016e-05,-0.0001522411,3,1
-4.398147e-05,-0.0001326312,3,1
-6.278104e-05,-0.0001003802,3,1
-8.384954e-05,-6.423963e-05,3,1
-0.0001058904,-3.069211e-05,3,1
-0.0001237176,-1.196227e-06,3,1
-0.0001342519,2.505836e-05,3,1
-0.0001373311,5.163707e-05,3,1
-0.0001340898,8.518459e-05,3,1
-0.0001308485,0.0001415833,3,1
-0.0001308485,0.000220023,3,1
-0.0001314967,0.0003018659,3,1
-0.000127121,0.0003613439,3,1
-0.0001120489,0.0003772264,3,1
-8.320128e-05,0.0003444891,3,1
-4.446767e-05,0.0002720459,3,1
-1.189254e-05,0.0001811273,3,1
-3.14101e-06,9.199134e-05,3,1
-2.988179e-05,1.663096e-05,3,1
-9.033215e-05,-3.928157e-05,3,1
-0.0001682856,-8.060823e-05,3,1
-0.0002429977,-0.000112373,3,1
-0.0002971275,-0.0001379794,3,1
-0.0003209511,-0.000156941,3,1
-0.0003151167,-0.0001674752,3,1
-0.0002974516,-0.0001715269,3,1
-0.0002851347,-0.0001752544,3,1
-0.0002896725,-0.0001814128,3,1
-0.0003057169,-0.0001932436,3,1
-0.0003149546,-0.0002110708,3,1
-0.0003029619,-0.0002316531,3,1
-0.0002715212,-0.0002519113,3,1
-0.0002311669,-0.0002697385,3,1
-0.0001937298,-0.0002825416,3,1
-0.0001629374,-0.0002828657,3,1
-0.0001404103,-0.0002655248,3,1
-0.0001242038,-0.0002324634,3,1
-0.0001146419,-0.0001896782,3,1
-0.0001107524,-0.0001504584,3,1
-0.0001092938,-0.0001279313,3,1
-0.000104756,-0.0001212866,3,1
-8.968389e-05,-0.0001209625,3,1
-5.467778e-05,-0.0001188556,3,1
5.610517e-06,-0.0001152902,3,1
8.502253e-05,-0.0001157764,3,1
0.0001756171,-0.0001251762,3,1
0.0002592428,-0.0001433275,3,1
0.0003149933,-0.00016942,3,1
0.0003350894,-0.0001985918,3,1
0.0003211517,-0.0002269532,3,1
0.0002819319,-0.0002498044,3,1
0.0002318537,-0.0002648765,3,1
0.0001835583,-0.0002724935,3,1
0.0001479039,-0.0002763831,3,1
0.0001278078,-0.0002775176,3,1
0.0001211631,-0.0002773555,3,1
0.0001213252,-0.0002718453,3,1
0.0001253768,-0.0002580697,3,1
0.000133318,-0.0002350565,3,1
0.0001446626,-0.0002049123,3,1
0.0001602208,-0.0001697442,3,1
0.000180479,-0.0001276072,3,1
0.0002060853,-7.55842e-05,3,1
0.0002308813,-1.075808e-05,3,1
0.0002464396,6.41161e-05,3,1
0.0002490327,0.0001485521,3,1
0.0002380122,0.0002478982,3,1
0.0002132162,0.0003704196,3,1
0.0001762653,0.0005196818,3,1
0.0001362352,0.0006793162,3,1
0.0001018773,0.0008178822,3,1
7.90261e-05,0.0009070183,3,1
7.059871e-05,0.0009394314,3,1
7.270556e-05,0.0009251696,3,1
8.145709e-05,0.0008862739,3,1
9.085688e-05,0.0008399231,3,1
9.458438e-05,0.0007935724,3,1
8.696731e-05,0.0007475458,3,1
7.043665e-05,0.0006968193,3,1
4.790957e-05,0.0006344241,3,1
2.927205e-05,0.0005610085,3,1
1.938607e-05,0.0004817585,3,1
2.181705e-05,0.0004016982,3,1
3.235129e-05,0.0003237448,3,1
4.661304e-05,0.0002511395,3,1
5.601284e-05,0.0001884202,3,1
5.974033e-05,0.0001399627,3,1
5.552663e-05,0.0001046324,3,1
4.02925e-05,8.291568e-05,3,1
1.12828e-05,6.800567e-05,3,1
-2.712668e-05,5.504044e-05,3,1
-6.699475e-05,3.867184e-05,3,1
-9.341139e-05,1.679302e-05,3,1
-0.0001011905,-1.075808e-05,3,1
-9.632857e-05,-4.138842e-05,3,1
-8.595638e-05,-7.201877e-05,3,1
-7.995997e-05,-0.0001000561,3,1
-8.303922e-05,-0.0001248521,3,1
-9.29252e-05,-0.0001477033,3,1
-0.0001067007,-0.0001724993,3,1
-0.0001206384,-0.0001981056,3,1
-0.0001331174,-0.0002224154,3,1
-0.0001392759,-0.000243808,3,1
-0.0001352242,-0.0002632558,3,1
-0.0001214487,-0.0002831898,3,1
-0.0001050801,-0.0003044204,3,1
-9.357346e-05,-0.0003227338,3,1
-9.130454e-05,-0.0003352128,3,1
-9.341139e-05,-0.0003433161,3,1
-8.838737e-05,-0.000350609,3,1
-6.278104e-05,-0.0003546606,3,1
-1.432352e-05,-0.0003527159,3,1
4.142696e-05,-0.000345585,3,1
8.405014e-05,-0.00033813,3,1
9.766362e-05,-0.0003369955,3,1
8.178122e-05,-0.0003408851,3,1
5.034055e-05,-0.0003433161,3,1
2.100672e-05,-0.0003394265,3,1
7.23117e-06,-0.0003290543,3,1
1.322759e-05,-0.0003146305,3,1
2.76514e-05,-0.0002945344,3,1
4.061663e-05,-0.0002692523,3,1
4.790957e-05,-0.0002417012,3,1
4.418206e-05,-0.0002113949,3,1
3.089271e-05,-0.0001806025,3,1
9.66215e-06,-0.000151917,3,1
-1.270286e-05,-0.0001258245,3,1
-2.907146e-05,-0.0001003802,3,1
-3.458168e-05,-7.850138e-05,3,1
-2.761287e-05,-6.132246e-05,3,1
-8.002969e-06,-5.013995e-05,3,1
1.906194e-05,-4.932962e-05,3,1
4.35338e-05,-5.872941e-05,3,1
5.844381e-05,-7.477388e-05,3,1
6.152305e-05,-8.984595e-05,3,1
5.795762e-05,-9.681477e-05,3,1
5.957827e-05,-9.486997e-05,3,1
7.52986e-05,-8.611845e-05,3,1
0.0001020394,-7.169464e-05,3,1
0.0001292664,-5.143648e-05,3,1
0.000145797,-2.453363e-05,3,1
0.0001483901,4.80019e-06,3,1
0.0001388282,3.397195e-05,3,1
0.0001231079,5.893001e-05,3,1
0.0001101427,8.129502e-05,3,1
0.0001062531,0.0001051186,3,1
0.0001054428,0.0001299146,3,1
9.442231e-05,0.0001492004,3,1
6.265751e-05,0.0001592484,3,1
8.689758e-06,0.0001644345,3,1
-6.423963e-05,0.0001714034,3,1
-0.0001428413,0.0001830721,3,1
-0.0002045882,0.0002013854,3,1
-0.0002316531,0.0002271538,3,1
-0.0002201465,0.0002560015,3,1
-0.0001801163,0.0002814457,3,1
-0.0001259865,0.0002916559,3,1
-7.574627e-05,0.0002812837,3,1
-3.847125e-05,0.0002534084,3,1
-1.886135e-05,0.0002135403,3,1
-1.399939e-05,0.0001641104,3,1
-2.210265e-05,0.0001103047,3,1
-4.090223e-05,5.730935e-05,3,1
-6.132246e-05,1.1769e-05,3,1
-7.526008e-05,-2.356124e-05,3,1
-8.206682e-05,-5.013995e-05,3,1
-8.611845e-05,-7.282909e-05,3,1
-8.838737e-05,-9.632857e-05,3,1
-9.29252e-05,-0.0001185315,3,1
-0.0001031353,-0.0001337657,3,1
-0.0001135075,-0.0001392759,3,1
-0.0001139937,-0.0001342519,3,1
-9.405965e-05,-0.0001219349,3,1
-5.613637e-05,-0.0001052422,3,1
-1.335113e-05,-8.093236e-05,3,1
2.133085e-05,-4.544006e-05,3,1
4.094075e-05,4.962256e-06,3,1
4.239934e-05,7.319176e-05,3,1
2.81376e-05,0.0001522796,3,1
1.396819e-06,0.0002373639,3,1
-3.68506e-05,0.0003179104,3,1
-8.07703e-05,0.0003851676,3,1
-0.000122259,0.0004295735,3,1
-0.0001480274,0.0004449697,3,1
-0.0001447861,0.0004269804,3,1
-0.0001079973,0.0003790091,3,1
-5.046408e-05,0.0003128864,3,1
6.420843e-06,0.0002409294,3,1
4.402e-05,0.0001691344,3,1
5.860588e-05,0.0001015532,3,1
6.152305e-05,4.045456e-05,3,1
6.249545e-05,-9.299493e-06,3,1
6.525056e-05,-4.608832e-05,3,1
6.200925e-05,-6.974985e-05,3,1
4.337174e-05,-8.352541e-05,3,1
1.12828e-05,-9.276313e-05,3,1
-2.437157e-05,-0.0001008664,3,1
-5.095028e-05,-0.0001088076,3,1
-5.467778e-05,-0.0001183694,3,1
-2.89094e-05,-0.0001264727,3,1
1.987227e-05,-0.0001284175,3,1
7.481241e-05,-0.0001243659,3,1
0.0001172735,-0.000119828,3,1
0.0001315353,-0.000119666,3,1
0.0001169494,-0.000122259,3,1
8.42122e-05,-0.0001204763,3,1
5.341979e-05,-0.0001034594,3,1
3.802358e-05,-6.326724e-05,3,1
3.786152e-05,-6.382317e-06,3,1
4.709924e-05,4.790957e-05,3,1
6.071273e-05,8.161915e-05,3,1
8.486046e-05,8.437427e-05,3,1
0.0001287802,5.925414e-05,3,1
0.0001869616,1.695509e-05,3,1
0.0002406053,-2.664048e-05,3,1
0.0002736666,-5.59743e-05,3,1
0.0002785285,-6.586029e-05,3,1
0.0002568118,-5.872941e-05,3,1
0.0002208333,-4.106429e-05,3,1
0.0001874478,-2.015787e-05,3,1
0.000168162,7.485573e-07,3,1
0.0001658931,2.311357e-05,3,1
0.0001738343,4.337174e-05,3,1
0.0001840444,5.876794e-05,3,1
0.0001908512,6.816773e-05,3,1
0.0001919856,6.995045e-05,3,1
0.0001871237,6.670914e-05,3,1
0.0001770756,6.346784e-05,3,1
0.0001582761,6.735741e-05,3,1
0.0001273216,7.756752e-05,3,1
8.777764e-05,9.150514e-05,3,1
4.612685e-05,0.0001005808,3,1
6.258778e-06,0.0001031738,3,1
-2.583016e-05,0.0001023635,3,1
-4.365734e-05,0.0001026876,3,1
-4.106429e-05,0.0001054428,3,1
-1.286493e-05,0.0001112771,3,1
3.494434e-05,0.0001203528,3,1
8.242948e-05,0.0001316974,3,1
0.0001065772,0.0001453108,3,1
9.993253e-05,0.0001564933,3,1
7.140904e-05,0.0001592484,3,1
3.964424e-05,0.0001537382,3,1
1.419998e-05,0.0001404489,3,1
-8.489166e-06,0.0001244044,3,1
-3.992984e-05,0.0001093323,3,1
-8.222889e-05,9.847395e-05,3,1
-0.0001284175,9.069481e-05,3,1
-0.0001650443,8.340187e-05,3,1
-0.0001820611,7.465034e-05,3,1
-0.0001797922,6.168512e-05,3,1
-0.0001665028,4.612685e-05,3,1
-0.0001511067,3.267542e-05,3,1
-0.0001378173,2.408596e-05,3,1
-0.0001237176,2.246531e-05,3,1
-0.0001063766,2.359977e-05,3,1
-8.628052e-05,2.376183e-05,3,1
-7.704279e-05,1.889987e-05,3,1
-9.551824e-05,1.063454e-05,3,1
-0.0001511067,-3.627206e-06,3,1
-0.0002326255,-2.46957e-05,3,1
-0.0003110651,-5.111234e-05,3,1
-0.0003562813,-7.444975e-05,3,1
-0.0003535262,-8.887356e-05,3,1
-0.0003062031,-9.438378e-05,3,1
-0.0002326255,-9.616651e-05,3,1
-0.0001524032,-9.956988e-05,3,1
-8.174268e-05,-0.000107349,3,1
-2.664048e-05,-0.0001185315,3,1
1.338965e-05,-0.0001326312,3,1
3.672706e-05,-0.0001533756,3,1
3.964424e-05,-0.0001784957,3,1
2.943412e-05,-0.0002062088,3,1
1.760335e-05,-0.0002355427,3,1
7.069105e-06,-0.0002603387,3,1
-2.330684e-06,-0.0002723315,3,1
-1.140634e-05,-0.0002694143,3,1
-2.323711e-05,-0.0002561249,3,1
-4.317115e-05,-0.0002370013,3,1
-7.704279e-05,-0.0002175534,3,1
-0.0001217728,-0.0002013469,3,1
-0.0001661787,-0.000191623,3,1
-0.0001955125,-0.0001856265,3,1
-0.0001997262,-0.0001828714,3,1
-0.0001716889,-0.0001809267,3,1
-0.0001101041,-0.0001726613,3,1
-2.064406e-05,-0.0001493239,3,1
8.875003e-05,-0.0001131834,3,1
0.0001963614,-7.266703e-05,3,1
0.0002743149,-3.976777e-05,3,1
0.0003008936,-2.113026e-05,3,1
0.0002689667,-1.707863e-05,3,1
0.0001902029,-2.210265e-05,3,1
8.259155e-05,-2.7937e-05,3,1
-3.069211e-05,-2.826114e-05,3,1
-0.0001290658,-2.161646e-05,3,1
-0.0001938919,-9.947754e-06,3,1
-0.0002117191,2.693341e-06,3,1
-0.0001827094,1.452411e-05,3,1
-0.000122097,2.700314e-05,3,1
-5.824322e-05,4.110282e-05,3,1
-1.20546e-05,5.811968e-05,3,1
1.306552e-05,7.659513e-05,3,1
2.943412e-05,9.68533e-05,3,1
5.277153e-05,0.0001151667,3,1
9.21534e-05,0.0001260251,3,1
0.0001474177,0.0001268354,3,1
0.0002038164,0.0001214872,3,1
0.0002441707,0.0001125736,3,1
0.0002551911,0.0001033359,3,1
0.0002386605,9.977047e-05,3,1
0.0002085163,0.0001067393,3,1
0.0001819376,0.0001244044,3,1
0.0001710792,0.0001433661,3,1
0.0001751309,0.0001545486,3,1
0.0001833962,0.000153252,3,1
0.0001842065,0.0001449867,3,1
0.0001738343,0.0001402868,3,1
0.0001521176,0.0001477418,3,1
0.0001200286,0.000165569,3,1
8.145709e-05,0.0001885823,3,1
4.158902e-05,0.0002064095,3,1
4.47606e-06,0.0002111094,3,1
-3.085418e-05,0.000202844,3,1
-6.180866e-05,0.0001897167,3,1
-7.396356e-05,0.0001833962,3,1
-4.868137e-05,0.0001926339,3,1
1.9224e-05,0.0002203471,3,1
0.0001128978,0.0002619979,3,1
0.0002008992,0.000309483,3,1
0.0002534084,0.0003477304,3,1
0.0002490327,0.0003629646,3,1
0.0001937684,0.0003485408,3,1
0.000113546,0.0003038107,3,1
4.191315e-05,0.0002342847,3,1
-1.034161e-06,0.000145635,3,1
-1.497178e-05,5.098881e-05,3,1
-1.691656e-05,-3.63644e-05,3,1
-2.404744e-05,-0.0001032974,3,1
-4.738484e-05,-0.0001442999,3,1
-8.709085e-05,-0.0001530514,3,1
-0.0001310105,-0.0001267968,3,1
-0.0001634236,-7.250496e-05,3,1
-0.0001752544,-6.868513e-06,3,1
-0.0001705545,5.001642e-05,3,1
-0.000159372,7.951231e-05,3,1
-0.0001498101,7.481241e-05,3,1
-0.000144462,4.077869e-05,3,1
-0.0001417068,-6.706447e-06,3,1
-0.0001360346,-5.338126e-05,3,1
-0.0001237176,-8.611845e-05,3,1
-0.0001031353,-9.535618e-05,3,1
-7.898758e-05,-7.201877e-05,3,1
-5.808115e-05,-1.092015e-05,3,1
-4.252288e-05,8.567078e-05,3,1
-3.522994e-05,0.0001986303,3,1
-3.458168e-05,0.0002953834,3,1
-3.717473e-05,0.0003383307,3,1
-4.009191e-05,0.000309483,3,1
-3.458168e-05,0.0002140265,3,1
-1.286493e-05,7.643307e-05,3,1
2.505836e-05,-7.299116e-05,3,1
6.78436e-05,-0.0002053985,3,1
9.896015e-05,-0.000303448,3,1
0.0001114392,-0.0003640605,3,1
0.0001067393,-0.0003917736,3,1
9.879808e-05,-0.0003961493,3,1
0.0001012291,-0.0003883702,3,1
0.0001127357,-0.0003776739,3,1
0.000120839,-0.0003656811,3,1
0.000113384,-0.0003562813,3,1
8.988449e-05,-0.0003485022,3,1
5.860588e-05,-0.0003363473,3,1
3.073064e-05,-0.0003146305,3,1
1.014835e-05,-0.0002849726,3,1
-2.330684e-06,-0.0002501286,3,1
-8.975362e-06,-0.0002084778,3,1
-6.544382e-06,-0.0001572651,3,1
1.12828e-05,-9.19528e-05,3,1
4.531652e-05,-7.030578e-06,3,1
8.242948e-05,9.604298e-05,3,1
0.0001098185,0.0002106232,3,1
0.0001218114,0.0003153174,3,1
0.0001240803,0.0003926226,3,1
0.0001273216,0.0004347596,3,1
0.0001360731,0.0004425387,3,1
0.0001496866,0.0004132049,3,1
0.0001620036,0.00035162,3,1
0.0001654069,0.0002696149,3,1
0.0001551968,0.0001838824,3,1
0.0001329939,0.0001150046,3,1
0.0001107909,7.30297e-05,3,1
9.604298e-05,5.212327e-05,3,1
8.907416e-05,4.320967e-05,3,1
9.037068e-05,3.915804e-05,3,1
9.879808e-05,3.818565e-05,3,1
0.0001148425,3.672706e-05,3,1
0.0001370455,3.251336e-05,3,1
0.0001598967,2.34377e-05,3,1
0.0001728619,9.66215e-06,3,1
0.0001636242,-8.327101e-06,3,1
0.0001339663,-2.761287e-05,3,1
9.361199e-05,-4.317115e-05,3,1
5.374392e-05,-5.046408e-05,3,1
2.246531e-05,-4.981582e-05,3,1
2.207145e-06,-4.673658e-05,3,1
-1.416145e-05,-4.608832e-05,3,1
-3.587821e-05,-5.013995e-05,3,1
-7.104638e-05,-5.727083e-05,3,1
-0.0001167488,-6.683268e-05,3,1
-0.0001640719,-7.752899e-05,3,1
-0.0002036158,-8.806324e-05,3,1
-0.0002267911,-9.794922e-05,3,1
-0.0002297083,-0.0001076731,3,1
-0.0002125294,-0.0001139937,3,1
-0.0001862748,-0.0001126972,3,1
-0.0001596961,-0.0001052422,3,1
-0.0001400862,-9.454585e-05,3,1
-0.0001300382,-7.866345e-05,3,1
-0.0001266348,-6.148453e-05,3,1
-0.0001279313,-4.787104e-05,3,1
-0.0001303623,-3.992984e-05,3,1
-0.0001310105,-3.895745e-05,3,1
-0.0001319829,-3.960571e-05,3,1
-0.0001391138,-3.830919e-05,3,1
-0.000152079,-3.814712e-05,3,1
-0.0001642339,-4.608832e-05,3,1
-0.0001700683,-6.359137e-05,3,1
-0.0001712027,-8.628052e-05,3,1
-0.0001728234,-0.0001063766,3,1
-0.0001781716,-0.0001211246,3,1
-0.0001877334,-0.0001311726,3,1
-0.0002023193,-0.0001396,3,1
-0.000221605,-0.0001475412,3,1
-0.0002378116,-0.0001459206,3,1
-0.0002420253,-0.0001350622,3,1
-0.0002357047,-0.0001242038,3,1
-0.0002206326,-0.0001263107,3,1
-0.0002029675,-0.0001452723,3,1
-0.0001904885,-0.000174282,3,1
-0.0001859507,-0.0001972953,3,1
-0.0001820611,-0.0002010227,3,1
-0.000169258,-0.0001840059,3,1
-0.0001425172,-0.0001528894,3,1
-9.908367e-05,-0.000122259,3,1
-3.911951e-05,-0.000104756,3,1
2.700314e-05,-0.0001054042,3,1
8.550872e-05,-0.0001206384,3,1
0.0001247285,-0.0001447861,3,1
0.0001410971,-0.0001728234,3,1
0.0001428799,-0.0001985918,3,1
0.0001396385,-0.0002149604,3,1
0.0001399627,-0.0002156086,3,1
0.0001461212,-0.0001995642,3,1
0.000160545,-0.0001702304,3,1
0.0001827479,-0.0001267968,3,1
0.0002109473,-6.845333e-05,3,1
0.0002401191,-1.358292e-06,3,1
0.0002611876,6.395404e-05,3,1
0.0002712356,0.0001180839,3,1
0.0002749631,0.000155521,3,1
0.0002765838,0.0001752929,3,1
0.0002752873,0.0001793446,3,1
0.0002691288,0.0001694586,3,1
0.0002605393,0.0001469315,3,1
0.0002551911,0.0001164632,3,1
0.0002517878,8.712937e-05,3,1
0.0002478982,6.589881e-05,3,1
0.0002435224,5.536457e-05,3,1
0.0002454672,5.99024e-05,3,1
0.000254867,8.388807e-05,3,1
0.0002657254,0.0001245665,3,1
0.0002668598,0.0001739964,3,1
0.0002525981,0.0002286124,3,1
0.0002279642,0.0002939248,3,1
0.0002018716,0.0003775505,3,1
0.0001832341,0.0004794896,3,1
0.0001699448,0.0005960147,3,1
0.0001560072,0.0007154569,3,1
0.000138342,0.0008242028,3,1
0.0001221355,0.0009060458,3,1
0.0001091703,0.0009481829,3,1
9.798775e-05,0.0009426727,3,1
8.405014e-05,0.0008874084,3,1
6.703327e-05,0.0007872519,3,1
5.017848e-05,0.0006582477,3,1
3.267542e-05,0.0005222749,3,1
8.203562e-06,0.0004020224,3,1
-2.46957e-05,0.0003078624,3,1
-6.229485e-05,0.0002388225,3,1
-0.0001013526,0.000187934,3,1
-0.0001340898,0.0001493625,3,1
-0.00015451,0.0001175977,3,1
-0.0001655305,9.150514e-05,3,1
-0.000176713,7.108491e-05,3,1
-0.0001945401,5.406805e-05,3,1
-0.0002241981,3.737532e-05,3,1
-0.0002663351,1.54965e-05,3,1
-0.0003134961,-1.448558e-05,3,1
-0.0003499608,-5.078821e-05,3,1
-0.0003630881,-8.709085e-05,3,1
-0.0003463953,-0.0001188556,3,1
-0.0003092824,-0.0001423551,3,1
-0.0002645523,-0.0001598582,3,1
-0.0002237119,-0.0001765509,3,1
-0.0001882196,-0.0001951884,3,1
-0.0001553203,-0.0002151224,3,1
-0.0001190177,-0.0002323013,3,1
-8.012204e-05,-0.0002436459,3,1
-4.349527e-05,-0.0002478596,3,1
-1.62683e-05,-0.000246401,3,1
-7.192643e-06,-0.0002449425,3,1
-1.821308e-05,-0.0002486699,3,1
-4.592625e-05,-0.0002585559,3,1
-7.882551e-05,-0.0002729798,3,1
-9.989401e-05,-0.0002906449,3,1
-9.438378e-05,-0.0003086341,3,1
-5.808115e-05,-0.0003220855,3,1
1.558884e-06,-0.0003253268,3,1
7.108491e-05,-0.0003170615,3,1
0.0001325077,-0.0003019894,3,1
0.0001689724,-0.0002833519,3,1
0.0001770756,-0.0002656868,3,1
0.0001595726,-0.000251263,3,1
0.000128294,-0.0002392702,3,1
9.750156e-05,-0.0002282497,3,1
7.886404e-05,-0.0002207947,3,1
7.967438e-05,-0.0002149604,3,1
9.63671e-05,-0.0002053985,3,1
0.000121001,-0.0001903264,3,1
0.0001443384,-0.0001707166,3,1
0.0001598967,-0.0001472171,3,1
0.0001645966,-0.0001264727,3,1
0.0001569795,-0.0001115627,3,1
0.00013818,-0.0001003802,3,1
0.0001093323,-9.130454e-05,3,1
7.481241e-05,-7.947377e-05,3,1
4.239934e-05,-6.748094e-05,3,1
2.39239e-05,-5.69467e-05,3,1
2.635488e-05,-4.495386e-05,3,1
4.904402e-05,-2.84232e-05,3,1
7.448828e-05,-8.975362e-06,3,1
8.826383e-05,1.403791e-05,3,1
8.534666e-05,3.753739e-05,3,1
6.541262e-05,5.844381e-05,3,1
3.899597e-05,6.946425e-05,3,1
1.873781e-05,7.059871e-05,3,1
1.614476e-05,6.800567e-05,3,1
2.878586e-05,6.687121e-05,3,1
4.661304e-05,7.20573e-05,3,1
6.022653e-05,8.275361e-05,3,1
6.897806e-05,9.53947e-05,3,1
7.384002e-05,0.0001046324,3,1
7.870197e-05,0.0001093323,3,1
9.182927e-05,0.0001096565,3,1
0.0001148425,0.0001046324,3,1
0.0001441764,9.831188e-05,3,1
0.0001749688,9.555677e-05,3,1
0.0002008992,9.652917e-05,3,1
0.0002128921,9.814982e-05,3,1
0.0002033302,9.620504e-05,3,1
0.0001720516,9.26396e-05,3,1
0.0001237561,9.053275e-05,3,1
6.119892e-05,8.615699e-05,3,1
-6.058186e-06,7.821578e-05,3,1
-7.056019e-05,6.362991e-05,3,1
-0.0001248521,4.612685e-05,3,1
-0.0001572651,3.380988e-05,3,1
-0.0001601823,2.943412e-05,3,1
-0.0001360346,3.413401e-05,3,1
-9.373552e-05,5.066468e-05,3,1
-4.80331e-05,7.999851e-05,3,1
-1.237873e-05,0.000118408,3,1
4.638125e-06,0.000155521,3,1
4.313994e-06,0.000185503,3,1
-2.492749e-06,0.0002156472,3,1
-7.192643e-06,0.0002560015,3,1
-8.489166e-06,0.0003117519,3,1
-1.3027e-05,0.0003746333,3,1
-3.377136e-05,0.0004266563,3,1
-7.752899e-05,0.0004486972,3,1
-0.000147055,0.0004315182,3,1
-0.0002353806,0.0003754436,3,1
-0.0003279199,0.0002882525,3,1
-0.0004057112,0.0001845306,3,1
-0.0004559515,7.837785e-05,3,1
-0.0004724821,-1.983374e-05,3,1
-0.000449955,-0.0001028112,3,1
-0.0003930701,-0.0001656925,3,1
-0.0003167374,-0.0002081536,3,1
-0.0002347323,-0.0002345703,3,1
-0.0001632615,-0.0002502906,3,1
-0.0001112386,-0.0002624455,3,1
-7.963584e-05,-0.0002789762,3,1
-6.261898e-05,-0.0003071755,3,1
-5.386745e-05,-0.0003517435,3,1
-4.770897e-05,-0.0004044147,3,1
-4.398147e-05,-0.0004541688,3,1
-4.625038e-05,-0.0004961436,3,1
-6.132246e-05,-0.000529205,3,1
-8.644259e-05,-0.000546708,3,1
-0.0001062146,-0.0005408737,3,1
-0.0001042698,-0.0005134846,3,1
-7.428769e-05,-0.0004710235,3,1
-2.437157e-05,-0.0004254832,3,1
2.862379e-05,-0.0003854531,3,1
7.335383e-05,-0.0003527159,3,1
0.0001091703,-0.0003254889,3,1
0.0001412592,-0.0003005308,3,1
0.0001686482,-0.0002721694,3,1
0.000187934,-0.0002352185,3,1
0.0001939304,-0.0001880575,3,1
0.0001897167,-0.0001311726,3,1
0.0001842065,-6.359137e-05,3,1
0.0001827479,1.889987e-05,3,1
0.0001819376,0.0001253768,3,1
0.000177886,0.0002629703,3,1
0.0001671896,0.0004297355,3,1
0.0001503349,0.0006097901,3,1
0.0001321835,0.0007785003,3,1
0.0001192183,0.0009050734,3,1
0.0001205148,0.0009630929,3,1
0.0001394765,0.0009439692,3,1
0.0001722137,0.0008583986,3,1
0.0002114335,0.0007324737,3,1
0.0002485465,0.0005973112,3,1
0.0002751252,0.0004856481,3,1
0.0002838767,0.0004107739,3,1
0.0002759355,0.0003718782,3,1
0.0002616738,0.0003534027,3,1
0.0002487085,0.0003384927,3,1
0.000232502,0.000316938,3,1
0.0002104611,0.0002853353,3,1
0.000177886,0.0002485465,3,1
0.0001344524,0.0002162954,3,1
8.875003e-05,0.0001918236,3,1
5.504044e-05,0.000170593,3,1
4.45062e-05,0.0001436902,3,1
5.358185e-05,0.0001104668,3,1
6.881599e-05,7.416415e-05,3,1
7.57848e-05,4.288554e-05,3,1
6.330578e-05,1.841368e-05,3,1
3.056858e-05,5.286387e-06,3,1
-1.724069e-05,-1.682422e-06,3,1
-7.18567e-05,-8.813297e-06,3,1
-0.0001229073,-1.99958e-05,3,1
-0.000164396,-3.717473e-05,3,1
-0.000191785,-5.791909e-05,3,1
-0.000206533,-8.125649e-05,3,1
-0.0002144742,-0.0001029732,3,1
-0.0002222533,-0.0001203142,3,1
-0.0002326255,-0.0001340898,3,1
-0.0002371633,-0.0001464067,3,1
-0.0002237119,-0.0001559686,3,1
-0.0001927574,-0.0001639098,3,1
-0.0001562927,-0.000174282,3,1
-0.0001229073,-0.0001878955,3,1
-9.276313e-05,-0.0002026434,3,1
-6.472583e-05,-0.0002154466,3,1
-3.895745e-05,-0.0002246843,3,1
-2.015787e-05,-0.0002300324,3,1
-8.651231e-06,-0.0002303566,3,1
-3.303076e-06,-0.0002261429,3,1
-2.238346e-07,-0.0002188499,3,1
4.151929e-06,-0.0002118811,3,1
1.095867e-05,-0.0002073433,3,1
1.54965e-05,-0.0002011848,3,1
1.160693e-05,-0.0001919471,3,1
-4.113403e-06,-0.0001818991,3,1
-2.955766e-05,-0.0001771992,3,1
-5.921561e-05,-0.0001830335,3,1
-8.206682e-05,-0.000196647,3,1
-8.984595e-05,-0.0002117191,3,1
-8.320128e-05,-0.000221443,3,1
-7.039812e-05,-0.0002254946,3,1
-6.294311e-05,-0.0002248464,3,1
-6.229485e-05,-0.0002248464,3,1
-5.953974e-05,-0.0002269532,3,1
-4.38194e-05,-0.0002318152,3,1
-8.327101e-06,-0.0002366771,3,1
4.094075e-05,-0.0002397564,3,1
8.988449e-05,-0.0002392702,3,1
0.0001257009,-0.0002352185,3,1
0.0001440143,-0.0002308428,3,1
0.0001435281,-0.0002254946,3,1
0.0001211631,-0.000221605,3,1
8.275361e-05,-0.0002193361,3,1
3.656499e-05,-0.0002183637,3,1
-1.010982e-05,-0.0002131776,3,1
-5.419158e-05,-0.0001982676,3,1
-9.584238e-05,-0.0001754164,3,1
-0.0001245279,-0.0001454344,3,1
-0.0001261486,-0.0001125351,3,1
-9.632857e-05,-8.725291e-05,3,1
-4.932962e-05,-7.866345e-05,3,1
-4.113403e-06,-8.82253e-05,3,1
2.732727e-05,-0.0001088076,3,1
4.385793e-05,-0.0001300382,3,1
6.168512e-05,-0.0001442999,3,1
0.00010366,-0.0001457585,3,1
0.0001796687,-0.0001314967,3,1
0.0002705873,-0.0001013526,3,1
0.0003383307,-5.370539e-05,3,1
0.00035162,9.66215e-06,3,1
0.0003096451,8.323981e-05,3,1
0.0002376881,0.0001613553,3,1
0.000170431,0.0002352571,3,1
0.0001325077,0.0002979764,3,1
0.0001312112,0.0003496752,3,1
0.0001535762,0.0003971604,3,1
0.000177886,0.0004477248,3,1
0.0001910133,0.0005015305,3,1
0.0001963614,0.0005550121,3,1
0.0002020337,0.0006008766,3,1
0.0002128921,0.000629076,3,1
0.0002271538,0.0006350724,3,1
0.0002367157,0.0006188659,3,1
0.0002305572,0.0005874252,3,1
0.0002062474,0.0005512846,3,1
0.0001714034,0.0005234093,3,1
0.0001380179,0.0005136854,3,1
0.0001130598,0.0005200059,3,1
9.831188e-05,0.0005287575,3,1
8.583286e-05,0.000522599,3,1
6.800567e-05,0.0004911583,3,1
3.672706e-05,0.0004298976,3,1
-1.545797e-05,0.0003435168,3,1
-8.530812e-05,0.0002440086,3,1
-0.0001575893,0.0001487142,3,1
-0.0002144742,6.946425e-05,3,1
-0.0002496423,9.824215e-06,3,1
-0.0002669833,-3.425755e-05,3,1
-0.0002757348,-6.780507e-05,3,1
-0.0002874036,-9.438378e-05,3,1
-0.0002998826,-0.000114804,3,1
-0.0003013411,-0.0001310105,3,1
-0.0002755728,-0.0001426792,3,1
-0.0002188499,-0.0001449482,3,1
-0.0001493239,-0.0001340898,3,1
-9.470791e-05,-0.0001089697,3,1
-7.639453e-05,-7.671866e-05,3,1
-9.859748e-05,-4.80331e-05,3,1
-0.0001475412,-3.474375e-05,3,1
-0.0002034537,-4.203669e-05,3,1
-0.0002489941,-6.310517e-05,3,1
-0.0002768693,-8.773911e-05,3,1
-0.0002874036,-0.0001115627,3,1
-0.000278652,-0.0001336036,3,1
-0.0002486699,-0.0001491618,3,1
-0.0002019951,-0.0001543479,3,1
-0.0001485136,-0.0001473791,3,1
-9.584238e-05,-0.0001336036,3,1
-4.608832e-05,-0.000117235,3,1
-3.789272e-06,-0.0001044318,3,1
2.149292e-05,-0.0001024871,3,1
2.230325e-05,-0.0001114006,3,1
-7.100305e-07,-0.0001302002,3,1
-3.879538e-05,-0.0001525652,3,1
-7.817725e-05,-0.0001749302,3,1
-0.0001028112,-0.0001935677,3,1
-0.0001068628,-0.0002042641,3,1
-8.838737e-05,-0.0002062088,3,1
-4.252288e-05,-0.0001987538,3,1
2.797553e-05,-0.0001846542,3,1
0.0001069013,-0.0001648822,3,1
0.0001769136,-0.0001410586,3,1
0.0002253711,-0.0001161005,3,1
0.000244981,-9.632857e-05,3,1
0.0002376881,-8.303922e-05,3,1
0.0002109473,-7.590833e-05,3,1
0.0001722137,-7.60704e-05,3,1
0.0001328318,-8.271508e-05,3,1
9.669123e-05,-9.146661e-05,3,1
6.670914e-05,-9.503204e-05,3,1
5.244739e-05,-9.081835e-05,3,1
5.325772e-05,-7.995997e-05,3,1
6.606088e-05,-6.48879e-05,3,1
8.486046e-05,-4.835724e-05,3,1
0.0001013911,-3.036798e-05,3,1
0.0001104668,-1.140634e-05,3,1
0.0001099806,5.448452e-06,3,1
0.0001047945,1.857574e-05,3,1
0.0001004187,3.18651e-05,3,1
9.912221e-05,4.628891e-05,3,1
0.0001026876,6.152305e-05,3,1
0.0001077117,7.384002e-05,3,1
0.000113384,8.226741e-05,3,1
0.0001195424,8.777764e-05,3,1
0.0001180839,9.150514e-05,3,1
0.00010366,9.507057e-05,3,1
7.935024e-05,0.0001044704,3,1
5.52025e-05,0.0001198666,3,1
4.256141e-05,0.0001349386,3,1
4.142696e-05,0.0001443384,3,1
4.758544e-05,0.0001440143,3,1
5.374392e-05,0.0001347766,3,1
5.828175e-05,0.0001177597,3,1
5.828175e-05,9.426025e-05,3,1
5.066468e-05,6.670914e-05,3,1
3.737532e-05,2.927205e-05,3,1
2.116879e-05,-2.226472e-05,3,1
1.419998e-05,-8.514606e-05,3,1
2.684107e-05,-0.0001533756,3,1
5.99024e-05,-0.0002185258,3,1
9.53947e-05,-0.0002733039,3,1
0.0001125736,-0.0003172236,3,1
0.0001025256,-0.00035304,3,1
6.573675e-05,-0.0003804291,3,1
9.66215e-06,-0.00039777,3,1
-5.013995e-05,-0.0004037664,3,1
-0.0001026491,-0.0003958252,3,1
-0.0001397621,-0.0003698948,3,1
-0.0001596961,-0.0003287302,3,1
-0.000166989,-0.0002705488,3,1
-0.0001647201,-0.0001872472,3,1
-0.0001540238,-6.829127e-05,3,1
-0.0001387897,8.939829e-05,3,1
-0.0001229073,0.0002788527,3,1
-0.0001011905,0.0004783552,3,1
-6.845333e-05,0.0006608408,3,1
-2.615429e-05,0.0007947069,3,1
1.776542e-05,0.0008630985,3,1
4.888196e-05,0.0008731466,3,1
6.152305e-05,0.0008554814,3,1
5.666109e-05,0.0008399231,3,1
4.077869e-05,0.0008336026,3,1
2.295151e-05,0.0008135065,3,1
5.124321e-06,0.0007464114,3,1
-1.189254e-05,0.0006148142,3,1
-2.939559e-05,0.0004264942,3,1
-4.868137e-05,0.0002198609,3,1
-7.104638e-05,4.256141e-05,3,1
-9.454585e-05,-7.007399e-05,3,1
-0.0001161005,-0.0001126972,3,1
-0.0001324691,-0.000104756,3,1
-0.0001428413,-7.380149e-05,3,1
-0.0001426792,-4.47918e-05,3,1
-0.0001253383,-3.344723e-05,3,1
-8.82253e-05,-3.701266e-05,3,1
-4.090223e-05,-3.976777e-05,3,1
4.80019e-06,-3.296103e-05,3,1
4.191315e-05,-1.140634e-05,3,1
7.027458e-05,2.052053e-05,3,1
9.037068e-05,5.001642e-05,3,1
0.0001025256,5.811968e-05,3,1
0.0001031738,3.056858e-05,3,1
9.26396e-05,-3.717473e-05,3,1
8.145709e-05,-0.0001329553,3,1
8.502253e-05,-0.0002298704,3,1
0.000103498,-0.0003040963,3,1
0.0001237561,-0.0003462333,3,1
0.0001242423,-0.0003577399,3,1
9.377406e-05,-0.0003485022,3,1
4.272347e-05,-0.0003300267,3,1
-4.113403e-06,-0.0003065273,3,1
-2.258885e-05,-0.000278652,3,1
-8.002969e-06,-0.0002459149,3,1
2.878586e-05,-0.0002102605,3,1
6.78436e-05,-0.0001786577,3,1
9.21534e-05,-0.0001558065,3,1
9.31258e-05,-0.0001415448,3,1
7.092284e-05,-0.0001361966,3,1
3.591673e-05,-0.0001363587,3,1
6.420843e-06,-0.0001392759,3,1
-5.409925e-06,-0.0001396,3,1
2.04508e-06,-0.000132145,3,1
2.862379e-05,-0.0001125351,3,1
6.444023e-05,-8.482193e-05,3,1
9.750156e-05,-5.727083e-05,3,1
0.0001201907,-3.782299e-05,3,1
0.0001279698,-2.550602e-05,3,1
0.0001266733,-1.902341e-05,3,1
0.0001221355,-1.480971e-05,3,1
0.0001192183,-1.059602e-05,3,1
0.0001229458,-3.627206e-06,3,1
0.00013818,4.638125e-06,3,1
0.0001589243,1.1769e-05,3,1
0.0001738343,1.808955e-05,3,1
0.0001686482,2.586868e-05,3,1
0.0001406109,3.429608e-05,3,1
9.150514e-05,4.045456e-05,3,1
3.413401e-05,3.964424e-05,3,1
-1.659243e-05,3.056858e-05,3,1
-5.030202e-05,1.825161e-05,3,1
-6.375344e-05,1.031041e-05,3,1
-6.504996e-05,1.160693e-05,3,1
-6.683268e-05,2.214118e-05,3,1
-7.671866e-05,3.688912e-05,3,1
-8.790117e-05,5.212327e-05,3,1
-9.66527e-05,6.281957e-05,3,1
-0.0001091317,6.184718e-05,3,1
-0.0001349001,4.77475e-05,3,1
-0.0001726613,2.441009e-05,3,1
-0.0002008607,1.720949e-06,3,1
-0.0001977815,-1.448558e-05,3,1
-0.0001618029,-1.967167e-05,3,1
-0.0001138316,-1.464765e-05,3,1
-7.720486e-05,-2.978945e-06,3,1
-6.44017e-05,1.274139e-05,3,1
-7.120844e-05,2.943412e-05,3,1
-8.336335e-05,4.142696e-05,3,1
-8.806324e-05,4.256141e-05,3,1
-8.595638e-05,2.910999e-05,3,1
-8.952183e-05,2.369211e-06,3,1
-0.0001058904,-2.971972e-05,3,1
-0.0001280934,-6.245691e-05,3,1
-0.0001426792,-9.017008e-05,3,1
-0.0001400862,-0.0001075111,3,1
-0.0001211246,-0.0001136696,3,1
-9.373552e-05,-0.0001104282,3,1
-6.618442e-05,-0.0001041077,3,1
-4.544006e-05,-0.0001031353,3,1
-2.858527e-05,-0.0001107524,3,1
-1.464765e-05,-0.0001238797,3,1
-5.89612e-06,-0.0001353863,3,1
-5.734056e-06,-0.0001410586,3,1
-1.367526e-05,-0.0001404103,3,1
-3.117831e-05,-0.0001349001,3,1
-5.386745e-05,-0.0001292278,3,1
-7.509801e-05,-0.0001245279,3,1
-8.644259e-05,-0.0001185315,3,1
-8.239095e-05,-0.0001076731,3,1
-6.083626e-05,-9.146661e-05,3,1
-2.518189e-05,-7.282909e-05,3,1
1.64689e-05,-5.2733e-05,3,1
5.487838e-05,-3.166451e-05,3,1
7.999851e-05,-4.761664e-06,3,1
9.280167e-05,2.424803e-05,3,1
0.0001009049,4.790957e-05,3,1
0.0001091703,6.622294e-05,3,1
0.000118408,7.691926e-05,3,1
0.0001248906,7.740546e-05,3,1
0.0001213252,7.011252e-05,3,1
0.0001046324,5.649903e-05,3,1
7.384002e-05,3.786152e-05,3,1
3.380988e-05,1.906194e-05,3,1
-8.489166e-06,6.582909e-06,3,1
-3.798505e-05,5.286387e-06,3,1
-4.592625e-05,1.744129e-05,3,1
-3.296103e-05,3.721326e-05,3,1
-4.275467e-06,5.61749e-05,3,1
2.959619e-05,7.027458e-05,3,1
5.860588e-05,8.032264e-05,3,1
7.967438e-05,9.037068e-05,3,1
9.474644e-05,0.0001017153,3,1
0.0001030118,0.0001140322,3,1
0.0001020394,0.0001240803,3,1
9.199134e-05,0.0001268354,3,1
7.659513e-05,0.0001252147,3,1
6.03886e-05,0.000125863,3,1
5.034055e-05,0.0001351007,3,1
4.677511e-05,0.00015309,3,1
4.72613e-05,0.0001767515,3,1
4.839576e-05,0.0002059233,3,1
5.1475e-05,0.0002409294,3,1
5.471631e-05,0.0002880904,3,1
5.828175e-05,0.0003493511,3,1
6.103686e-05,0.0004164462,3,1
6.168512e-05,0.0004743035,3,1
5.828175e-05,0.0005084993,3,1
5.439218e-05,0.000517575,3,1
5.601284e-05,0.0005059062,3,1
5.957827e-05,0.0004819206,3,1
5.763349e-05,0.0004537212,3,1
5.212327e-05,0.0004281149,3,1
4.790957e-05,0.0004083429,3,1
4.35338e-05,0.0003994293,3,1
3.850978e-05,0.0003976466,3,1
3.024445e-05,0.0003952156,3,1
1.825161e-05,0.0003819262,3,1
4.151929e-06,0.0003550234,3,1
-6.706447e-06,0.000319207,3,1
-1.756482e-05,0.0002838767,3,1
-3.652646e-05,0.0002566497,3,1
-6.942573e-05,0.0002372019,3,1
-0.0001076731,0.0002185644,3,1
-0.0001326312,0.0001932822,3,1
-0.0001242038,0.0001540623,3,1
-8.125649e-05,9.701536e-05,3,1
-2.84232e-05,2.505836e-05,3,1
5.610517e-06,-5.257093e-05,3,1
8.203562e-06,-0.0001264727,3,1
-1.740276e-05,-0.0001914609,3,1
-5.69467e-05,-0.0002439701,3,1
-9.811128e-05,-0.0002817312,3,1
-0.0001253383,-0.0003070135,3,1
-0.0001305243,-0.0003262992,3,1
-0.0001118868,-0.0003392644,3,1
-7.266703e-05,-0.0003463953,3,1
-2.664048e-05,-0.0003488263,3,1
6.096713e-06,-0.0003499608,3,1
1.776542e-05,-0.0003507711,3,1
6.744974e-06,-0.0003493125,3,1
-2.031993e-05,-0.0003444506,3,1
-5.095028e-05,-0.0003402368,3,1
-7.039812e-05,-0.0003389403,3,1
-7.104638e-05,-0.0003379679,3,1
-5.402952e-05,-0.0003342404,3,1
-3.069211e-05,-0.0003251648,3,1
-6.868513e-06,-0.000313334,3,1
1.419998e-05,-0.0003002067,3,1
2.992031e-05,-0.0002870794,3,1
4.142696e-05,-0.0002747625,3,1
4.888196e-05,-0.0002645523,3,1
5.61749e-05,-0.000258718,3,1
6.849186e-05,-0.0002592042,3,1
8.923623e-05,-0.0002619593,3,1
0.0001146805,-0.0002614731,3,1
0.0001423936,-0.0002561249,3,1
0.000170593,-0.0002454286,3,1
0.0001994406,-0.0002306807,3,1
0.000227478,-0.0002105846,3,1
0.0002487085,-0.0001851404,3,1
0.0002590807,-0.0001600202,3,1
0.0002534084,-0.0001394379,3,1
0.0002316917,-0.0001235555,3,1
0.0001974959,-0.0001089697,3,1
0.0001637863,-9.454585e-05,3,1
0.0001415833,-7.882551e-05,3,1
0.000135911,-6.375344e-05,3,1
0.0001435281,-4.576419e-05,3,1
0.0001545486,-2.210265e-05,3,1
0.000162976,7.069105e-06,3,1
0.0001620036,3.834771e-05,3,1
0.0001503349,6.314371e-05,3,1
0.0001321835,7.448828e-05,3,1
0.0001143563,6.816773e-05,3,1
0.0001043083,4.564065e-05,3,1
0.0001099806,1.22552e-05,3,1
0.0001355869,-2.550602e-05,3,1
0.0001722137,-6.991193e-05,3,1
0.000202682,-0.000119828,3,1
0.000215161,-0.0001686097,3,1
0.0002115956,-0.0002100984,3,1
0.0002007372,-0.0002376495,3,1
0.0001913374,-0.000246401,3,1
0.000185341,-0.0002334358,3,1
0.0001748067,-0.0002024813,3,1
0.0001498487,-0.0001616409,3,1
0.0001047945,-0.0001143178,3,1
4.466826e-05,-5.467778e-05,3,1
-2.777494e-05,2.39239e-05,3,1
-0.0001026491,0.0001242423,3,1
-0.0001686097,0.0002433604,3,1
-0.000219012,0.0003717161,3,1
-0.000246401,0.0004937514,3,1
-0.0002483458,0.000594394,3,1
-0.0002292221,0.0006629477,3,1
-0.0002028055,0.0006869333,3,1
-0.0001828714,0.0006597064,3,1
-0.0001741199,0.0005875872,3,1
-0.0001739578,0.0004918066,3,1
-0.0001754164,0.0004052637,3,1
-0.0001776853,0.0003626405,3,1
-0.000186761,0.0003798194,3,1
-0.000208964,0.0004412422,3,1
-0.0002455907,0.0005088235,3,1
-0.0002912931,0.000549826,3,1
-0.0003313232,0.0005478812,3,1
-0.0003507711,0.0005026649,3,1
-0.0003459091,0.0004239012,3,1
-0.000328082,0.0003290929,3,1
-0.0003151167,0.0002289366,3,1
-0.0003175477,0.0001338042,3,1
-0.000333268,4.871989e-05,3,1
-0.0003507711,-2.258885e-05,3,1
-0.0003522297,-7.396356e-05,3,1
-0.0003279199,-0.0001010285,3,1
-0.0002849726,-0.0001110765,3,1
-0.0002371633,-0.0001180453,3,1
-0.0001878955,-0.0001303623,3,1
-0.0001319829,-0.0001472171,3,1
-6.39155e-05,-0.0001603444,3,1
1.12828e-05,-0.000164396,3,1
8.372601e-05,-0.0001652063,3,1
0.0001448246,-0.0001699062,3,1
0.0001874478,-0.0001783336,3,1
0.0002055991,-0.0001927574,3,1
0.0002000889,-0.0002138259,3,1
0.0001769136,-0.0002400805,3,1
0.0001495245,-0.000268766,3,1
0.0001286181,-0.0002929138,3,1
0.0001175977,-0.0003066893,3,1
0.0001175977,-0.0003131719,3,1
0.0001205148,-0.000318196,3,1
0.0001190562,-0.0003246786,3,1
0.0001120874,-0.0003287302,3,1
0.0001070634,-0.0003261372,3,1
0.000111115,-0.0003151167,3,1
0.0001312112,-0.0002989102,3,1
0.0001624898,-0.0002814071,3,1
0.0001936063,-0.0002627696,3,1
0.0002109473,-0.0002428356,3,1
0.000210299,-0.0002204706,3,1
0.0001940925,-0.0001921092,3,1
0.000173024,-0.0001571031,3,1
0.0001534141,-0.0001183694,3,1
0.0001415833,-7.882551e-05,3,1
0.0001401247,-3.879538e-05,3,1
0.0001485521,7.717366e-06,3,1
0.000163138,7.319176e-05,3,1
0.0001791825,0.0001645966,3,1
0.0001923098,0.0002741528,3,1
0.0001963614,0.0003819262,3,1
0.0001859892,0.0004640934,3,1
0.0001592484,0.0005025029,3,1
0.0001232699,0.0004926169,3,1
8.923623e-05,0.0004436732,3,1
6.978839e-05,0.0003730126,3,1
7.319176e-05,0.000299597,3,1
9.717743e-05,0.0002376881,3,1
0.0001286181,0.0001945787,3,1
0.0001548727,0.0001688103,3,1
0.0001642725,0.0001517934,3,1
0.0001475797,0.0001352628,3,1
0.0001093323,0.0001137081,3,1
6.379197e-05,9.118101e-05,3,1
2.230325e-05,7.140904e-05,3,1
-2.006553e-06,5.552663e-05,3,1
-4.599598e-06,3.948217e-05,3,1
6.744974e-06,1.889987e-05,3,1
1.64689e-05,-4.437533e-06,3,1
5.448452e-06,-2.339918e-05,3,1
-3.668853e-05,-3.555408e-05,3,1
-0.000102325,-4.414354e-05,3,1
-0.0001796301,-5.500191e-05,3,1
-0.000253694,-6.81292e-05,3,1
-0.0003118754,-8.579432e-05,3,1
-0.0003428299,-0.0001081593,3,1
-0.0003344025,-0.0001258245,3,1
-0.00027849,-0.0001284175,3,1
-0.0001791439,-0.0001128592,3,1
-6.39155e-05,-8.206682e-05,3,1
3.024445e-05,-3.733679e-05,3,1
7.724339e-05,1.954813e-05,3,1
7.999851e-05,8.631905e-05,3,1
5.471631e-05,0.0001558451,3,1
2.165498e-05,0.000220185,3,1
-4.437533e-06,0.0002715597,3,1
-2.064406e-05,0.0002999212,3,1
-3.182657e-05,0.000299597,3,1
-4.38194e-05,0.0002715597,3,1
-5.856735e-05,0.0002263435,3,1
-7.769106e-05,0.0001694586,3,1
-0.0001020008,0.0001056048,3,1
-0.0001292278,3.93201e-05,3,1
-0.0001553203,-2.647842e-05,3,1
-0.0001737958,-9.114248e-05,3,1
-0.0001786577,-0.0001527273,3,1
-0.0001713648,-0.0002125294,3,1
-0.0001574272,-0.0002676316,3,1
-0.0001383035,-0.0003144685,3,1
-0.0001125351,-0.0003423437,3,1
-8.07703e-05,-0.0003400748,3,1
-5.32192e-05,-0.0003023136,3,1
-3.992984e-05,-0.0002358668,3,1
-4.203669e-05,-0.0001592099,3,1
-5.743289e-05,-9.130454e-05,3,1
-8.190475e-05,-5.22468e-05,3,1
-0.0001065387,-5.370539e-05,3,1
-0.0001204763,-9.114248e-05,3,1
-0.0001186936,-0.0001447861,3,1
-0.0001045939,-0.0001930815,3,1
-8.222889e-05,-0.0002212809,3,1
-5.500191e-05,-0.0002229016,3,1
-2.566809e-05,-0.0001955125,3,1
2.693341e-06,-0.0001457585,3,1
2.586868e-05,-8.141856e-05,3,1
4.158902e-05,-8.489166e-06,3,1
5.487838e-05,7.173317e-05,3,1
7.6271e-05,0.0001589243,3,1
0.0001120874,0.0002443328,3,1
0.0001608691,0.0003196932,3,1
0.0002148369,0.0003712299,3,1
0.0002577842,0.0003853296,3,1
0.0002733424,0.0003503235,3,1
0.0002538946,0.0002735045,3,1
0.0002038164,0.0001764274,3,1
0.0001399627,8.356394e-05,3,1
8.242948e-05,9.986281e-06,3,1
4.855783e-05,-3.701266e-05,3,1
4.72613e-05,-6.164659e-05,3,1
7.691926e-05,-6.991193e-05,3,1
0.0001227837,-6.731888e-05,3,1
0.0001688103,-5.532604e-05,3,1
0.0002051129,-3.749886e-05,3,1
0.0002326641,-1.643037e-05,3,1
0.0002571359,3.179537e-06,3,1
0.0002840388,1.808955e-05,3,1
0.0003107795,2.732727e-05,3,1
0.0003281205,3.332369e-05,3,1
0.000324393,3.688912e-05,3,1
0.0002991108,3.786152e-05,3,1
0.0002560015,3.769945e-05,3,1
0.0001987924,3.462021e-05,3,1
0.0001291043,2.81376e-05,3,1
5.325772e-05,2.522042e-05,3,1
-1.788895e-05,3.105477e-05,3,1
-7.752899e-05,4.807163e-05,3,1
-0.0001248521,7.254349e-05,3,1
-0.0001600202,9.442231e-05,3,1
-0.0001853024,0.0001093323,3,1
-0.0002002124,0.0001164632,3,1
-0.0001998883,0.0001167873,3,1
-0.0001806025,0.0001091703,3,1
-0.0001415448,9.458438e-05,3,1
-8.887356e-05,7.610894e-05,3,1
-3.506788e-05,5.860588e-05,3,1
9.013889e-06,4.564065e-05,3,1
3.445814e-05,3.737532e-05,3,1
3.802358e-05,3.008238e-05,3,1
2.943412e-05,1.938607e-05,3,1
1.614476e-05,2.693341e-06,3,1
2.623614e-07,-1.821308e-05,3,1
-1.156841e-05,-3.717473e-05,3,1
-1.643037e-05,-4.932962e-05,3,1
-1.270286e-05,-5.386745e-05,3,1
-5.247859e-06,-5.435365e-05,3,1
-8.002969e-06,-5.662256e-05,3,1
-2.923353e-05,-6.035007e-05,3,1
-7.104638e-05,-6.586029e-05,3,1
-0.0001280934,-7.153257e-05,3,1
-0.0001861127,-7.671866e-05,3,1
-0.0002326255,-8.02841e-05,3,1
-0.000256287,-8.563225e-05,3,1
-0.0002583939,-9.260107e-05,3,1
-0.0002472114,-9.892161e-05,3,1
-0.0002279256,-0.0001026491,3,1
-0.000206533,-0.0001058904,3,1
-0.0001806025,-0.0001117248,3,1
-0.0001486757,-0.0001242038,3,1
-0.0001130213,-0.0001430034,3,1
-8.109443e-05,-0.0001616409,3,1
-5.548811e-05,-0.0001728234,3,1
-3.587821e-05,-0.0001731475,3,1
-1.99958e-05,-0.0001652063,3,1
-1.027188e-05,-0.0001533756,3,1
-8.975362e-06,-0.0001428413,3,1
-1.853722e-05,-0.0001357104,3,1
-3.085418e-05,-0.0001344139,3,1
-3.377136e-05,-0.0001410586,3,1
-1.886135e-05,-0.0001493239,3,1
1.290346e-05,-0.0001502963,3,1
5.552663e-05,-0.000137169,3,1
9.879808e-05,-0.0001136696,3,1
0.0001334801,-8.773911e-05,3,1
0.0001595726,-6.456377e-05,3,1
0.0001782101,-4.138842e-05,3,1
0.0001916615,-1.124428e-05,3,1
0.0001987924,3.089271e-05,3,1
0.0001963614,8.291568e-05,3,1
0.0001827479,0.0001341283,3,1
0.0001615174,0.0001738343,3,1
0.0001406109,0.0002005751,3,1
0.0001286181,0.0002166196,3,1
0.0001271595,0.0002239125,3,1
0.0001344524,0.0002166196,3,1
0.0001459591,0.0001965235,3,1
0.0001598967,0.0001701068,3,1
0.0001752929,0.0001487142,3,1
0.0001949028,0.0001386662,3,1
0.0002132162,0.0001415833,3,1
0.0002159713,0.0001539003,3,1
0.0001906891,0.0001663793,3,1
0.0001323456,0.0001699448,3,1
4.936815e-05,0.0001663793,3,1
-4.041603e-05,0.0001662173,3,1
-0.0001185315,0.000173024,3,1
-0.0001710407,0.0001838824,3,1
-0.0001922712,0.000195227,3,1
-0.0001898403,0.000202682,3,1
-0.0001715269,0.0002064095,3,1
-0.0001381414,0.0002062474,3,1
-8.806324e-05,0.0002018716,3,1
-2.599222e-05,0.0001957132,3,1
3.348575e-05,0.0001900409,3,1
7.772959e-05,0.0001884202,3,1
0.0001020394,0.0001918236,3,1
0.0001080358,0.0001957132,3,1
9.928428e-05,0.000200251,3,1
8.194328e-05,0.000202844,3,1
5.876794e-05,0.0001992786,3,1
3.202716e-05,0.0001905271,3,1
4.638125e-06,0.0001785342,3,1
-1.545797e-05,0.0001642725,3,1
-1.869928e-05,0.0001441764,3,1
-3.951337e-06,0.0001112771,3,1
2.052053e-05,6.362991e-05,3,1
3.948217e-05,5.286387e-06,3,1
4.02925e-05,-4.965376e-05,3,1
1.9224e-05,-9.114248e-05,3,1
-1.562004e-05,-0.0001178833,3,1
-5.532604e-05,-0.0001350622,3,1
-8.903562e-05,-0.0001525652,3,1
-0.000107349,-0.0001789819,3,1
-0.000104756,-0.0002104225,3,1
-8.417367e-05,-0.0002373254,3,1
-5.338126e-05,-0.0002549905,3,1
-2.0482e-05,-0.0002668213,3,1
9.986281e-06,-0.0002749245,3,1
3.18651e-05,-0.0002781658,3,1
4.207521e-05,-0.0002737901,3,1
4.045456e-05,-0.0002593663,3,1
3.170304e-05,-0.0002329496,3,1
2.165498e-05,-0.0002005366,3,1
1.193106e-05,-0.0001656925,3,1
-2.238346e-07,-0.0001277692,3,1
-1.983374e-05,-8.190475e-05,3,1
-4.787104e-05,-1.724069e-05,3,1
-7.995997e-05,7.724339e-05,3,1
-0.0001083214,0.0001965235,3,1
-0.0001248521,0.0003177483,3,1
-0.0001293899,0.0004120704,3,1
-0.000127121,0.0004597176,3,1
-0.0001217728,0.0004524247,3,1
-0.0001162626,0.0003957018,3,1
-0.0001125351,0.0003047831,3,1
-0.0001151281,0.0001960373,3,1
-0.0001261486,8.599492e-05,3,1
-0.0001389517,-8.489166e-06,3,1
-0.0001473791,-7.444975e-05,3,1
-0.0001468929,-0.0001065387,3,1
-0.0001363587,-0.0001094559,3,1
-0.0001159385,-9.470791e-05,3,1
-8.757704e-05,-7.850138e-05,3,1
-4.738484e-05,-7.444975e-05,3,1
2.207145e-06,-9.000802e-05,3,1
5.536457e-05,-0.0001245279,3,1
0.0001005808,-0.0001699062,3,1
0.0001279698,-0.000216419,3,1
0.0001338042,-0.0002580697,3,1
0.0001235941,-0.0002906449,3,1
0.000108522,-0.0003131719,3,1
0.0001025256,-0.0003253268,3,1
0.0001086841,-0.0003271096,3,1
0.0001192183,-0.0003196545,3,1
0.000120839,-0.0003081479,3,1
0.0001041462,-0.0002942103,3,1
7.481241e-05,-0.0002747625,3,1
4.855783e-05,-0.000246401,3,1
4.434413e-05,-0.0002079916,3,1
7.270556e-05,-0.000159534,3,1
0.0001229458,-0.0001042698,3,1
0.0001717275,-4.414354e-05,3,1
0.0001981441,1.727922e-05,3,1
0.0001950649,7.708133e-05,3,1
0.0001749688,0.0001287802,3,1
0.0001663793,0.0001720516,3,1
0.0001874478,0.0002135403,3,1
0.0002341226,0.0002655633,3,1
0.0002840388,0.0003328204,3,1
0.0003171001,0.0004067223,3,1
0.0003203414,0.0004697657,3,1
0.0002923041,0.0005093097,3,1
0.0002430362,0.0005183853,3,1
0.000185503,0.0004984512,3,1
0.0001261871,0.00046069,3,1
7.059871e-05,0.0004166082,3,1
2.214118e-05,0.0003769022,3,1
-1.983374e-05,0.0003446512,3,1
-5.257093e-05,0.0003174242,3,1
-6.845333e-05,0.00029198,3,1
-6.748094e-05,0.0002639427,3,1
-5.354332e-05,0.0002323399,3,1
-3.409549e-05,0.0002020337,3,1
-1.562004e-05,0.0001769136,3,1
-8.813297e-06,0.0001545486,3,1
-1.805102e-05,0.0001312112,3,1
-4.05781e-05,0.000105929,3,1
-6.958779e-05,7.691926e-05,3,1
-9.681477e-05,4.369587e-05,3,1
-0.0001177212,6.582909e-06,3,1
-0.0001316588,-3.474375e-05,3,1
-0.0001394379,-7.461182e-05,3,1
-0.0001455964,-0.0001045939,3,1
-0.0001525652,-0.0001178833,3,1
-0.0001572651,-0.0001076731,3,1
-0.000159372,-7.526008e-05,3,1
-0.0001583996,-3.539201e-05,3,1
-0.0001603444,-5.085794e-06,3,1
-0.0001728234,4.151929e-06,3,1
-0.0001906506,-1.367526e-05,3,1
-0.000206695,-5.840528e-05,3,1
-0.0002152845,-0.0001248521,3,1
-0.000216419,-0.0002008607,3,1
-0.0002081536,-0.0002715212,3,1
-0.000191623,-0.0003254889,3,1
-0.0001702304,-0.0003559572,3,1
-0.000147055,-0.0003617915,3,1
-0.0001230693,-0.0003472056,3,1
-9.746302e-05,-0.0003143064,3,1
-7.23429e-05,-0.0002652006,3,1
-5.062615e-05,-0.000201509,3,1
-3.879538e-05,-0.0001276072,3,1
-4.462973e-05,-4.981582e-05,3,1
-7.201877e-05,1.873781e-05,3,1
-0.0001182074,6.41161e-05,3,1
-0.0001707166,7.837785e-05,3,1
-0.0002107467,5.925414e-05,3,1
-0.0002201465,1.59827e-05,3,1
-0.0001888679,-3.863332e-05,3,1
-0.0001157764,-8.968389e-05,3,1
-1.480971e-05,-0.0001251762,3,1
8.291568e-05,-0.0001430034,3,1
0.0001412592,-0.0001483515,3,1
0.0001401247,-0.0001451102,3,1
8.875003e-05,-0.0001386276,3,1
2.197911e-05,-0.0001342519,3,1
-2.0482e-05,-0.0001381414,3,1
-2.0482e-05,-0.0001501342,3,1
1.306552e-05,-0.0001603444,3,1
5.747142e-05,-0.0001600202,3,1
9.814982e-05,-0.0001455964,3,1
0.0001363972,-0.0001204763,3,1
0.0001731861,-9.730096e-05,3,1
0.0002085163,-8.255302e-05,3,1
0.0002352571,-7.914964e-05,3,1
0.000244981,-8.806324e-05,3,1
0.0002354192,-0.000104918,3,1
0.0002115956,-0.0001183694,3,1
0.0001843686,-0.0001206384,3,1
0.0001683241,-0.0001070249,3,1
0.0001707551,-7.866345e-05,3,1
0.0001882582,-3.782299e-05,3,1
0.0002132162,7.555301e-06,3,1
0.0002391467,4.953022e-05,3,1
0.0002595669,8.113296e-05,3,1
0.0002713977,9.814982e-05,3,1
0.0002720459,0.0001015532,3,1
0.0002624841,9.409818e-05,3,1
0.0002431983,8.194328e-05,3,1
0.0002167816,7.124698e-05,3,1
0.0001817755,6.638502e-05,3,1
0.0001363972,6.978839e-05,3,1
8.080883e-05,8.275361e-05,3,1
2.262738e-05,0.0001057669,3,1
-2.583016e-05,0.0001401247,3,1
-5.111234e-05,0.0001871237,3,1
-4.932962e-05,0.0002410915,3,1
-2.42095e-05,0.0002944109,3,1
1.9224e-05,0.0003375204,3,1
7.059871e-05,0.0003644232,3,1
0.0001197045,0.0003723644,3,1
0.000155683,0.0003624784,3,1
0.0001678379,0.0003350894,3,1
0.0001498487,0.0002940868,3,1
0.0001046324,0.0002466017,3,1
4.434413e-05,0.0002025199,3,1
-1.189254e-05,0.0001697827,3,1
-5.078821e-05,0.0001492004,3,1
-6.796714e-05,0.0001338042,3,1
-7.104638e-05,0.0001128978,3,1
-6.634648e-05,8.291568e-05,3,1
-6.099833e-05,5.179914e-05,3,1
-5.402952e-05,2.408596e-05,3,1
-5.32192e-05,-1.358292e-06,3,1
-6.586029e-05,-2.437157e-05,3,1
-9.503204e-05,-4.38194e-05,3,1
-0.0001387897,-5.500191e-05,3,1
-0.0001893541,-5.743289e-05,3,1
-0.0002345703,-5.64605e-05,3,1
-0.0002653627,-5.872941e-05,3,1
-0.0002752487,-6.715681e-05,3,1
-0.0002609869,-8.125649e-05,3,1
-0.0002253326,-9.940781e-05,3,1
-0.0001754164,-0.0001193418,3,1
-0.0001245279,-0.0001360346,3,1
-8.692878e-05,-0.0001468929,3,1
-6.829127e-05,-0.0001525652,3,1
-6.586029e-05,-0.00015451,3,1
-6.91016e-05,-0.000151917,3,1
-6.245691e-05,-0.0001433275,3,1
-3.782299e-05,-0.0001300382,3,1
-1.682422e-06,-0.0001175591,3,1
3.105477e-05,-0.0001133454,3,1
4.418206e-05,-0.0001212866,3,1
2.797553e-05,-0.0001353863,3,1
-1.513384e-05,-0.0001475412,3,1
-7.120844e-05,-0.0001517549,3,1
-0.0001203142,-0.0001457585,3,1
-0.0001464067,-0.0001360346,3,1
-0.0001441378,-0.0001263107,3,1
-0.0001146419,-0.0001177212,3,1
-6.699475e-05,-0.0001120489,3,1
-1.059602e-05,-0.0001079973,3,1
4.126489e-05,-0.0001045939,3,1
7.708133e-05,-0.0001020008,3,1
9.426025e-05,-0.0001042698,3,1
9.458438e-05,-0.0001107524,3,1
8.405014e-05,-0.0001190177,3,1
6.978839e-05,-0.0001269589,3,1
4.985435e-05,-0.0001308485,3,1
1.711715e-05,-0.0001331174,3,1
-2.939559e-05,-0.0001319829,3,1
-7.623246e-05,-0.0001277692,3,1
-0.0001029732,-0.0001193418,3,1
-9.859748e-05,-0.0001060525,3,1
-6.958779e-05,-8.741498e-05,3,1
-2.631635e-05,-6.553616e-05,3,1
2.084466e-05,-4.47918e-05,3,1
6.735741e-05,-2.307504e-05,3,1
0.0001101427,4.962256e-06,3,1
0.0001459591,4.110282e-05,3,1
0.0001712413,8.242948e-05,3,1
0.0001827479,0.0001269974,3,1
0.0001772377,0.0001728619,3,1
0.0001561692,0.0002187264,3,1
0.0001235941,0.0002670219,3,1
8.74535e-05,0.0003179104,3,1
6.557468e-05,0.0003747954,3,1
7.270556e-05,0.0004402698,3,1
0.0001093323,0.0005136854,3,1
0.0001618415,0.0005883976,3,1
0.0002034923,0.0006499824,3,1
0.000215161,0.0006825576,3,1
0.0001986303,0.0006759129,3,1
0.0001620036,0.0006303725,3,1
0.0001167873,0.0005558224,3,1
7.384002e-05,0.0004697657,3,1
4.061663e-05,0.0003859779,3,1
2.214118e-05,0.0003130485,3,1
1.776542e-05,0.0002542187,3,1
2.278944e-05,0.0002138645,3,1
2.878586e-05,0.0001947408,3,1
