EMG1,EMG2,class,user
0.001525623,0.0005493398,6,1
0.001312668,0.0005405883,6,1
0.001093556,0.000505258,6,1
0.0008783326,0.0004410801,6,1
0.000663758,0.000351458,6,1
0.0004461041,0.0002391467,6,1
0.0002302331,0.0001064152,6,1
2.943412e-05,-4.284701e-05,6,1
-0.0001391138,-0.000199078,6,1
-0.0002713591,-0.0003481781,6,1
-0.0003694086,-0.0004766958,6,1
-0.0004365036,-0.0005768522,6,1
-0.0004835025,-0.000640868,6,1
-0.0005394151,-0.0006645294,6,1
-0.0006347094,-0.0006418404,6,1
-0.0007771649,-0.000573935,6,1
-0.0009372854,-0.0004679443,6,1
-0.001072124,-0.0003415334,6,1
-0.001152994,-0.0002188499,6,1
-0.001174387,-0.0001159385,6,1
-0.001147808,-4.284701e-05,6,1
-0.001084117,1.883015e-06,6,1
-0.000991091,2.878586e-05,6,1
-0.0008778074,4.969229e-05,6,1
-0.0007586894,6.606088e-05,6,1
-0.0006395715,7.643307e-05,6,1
-0.0005081365,8.080883e-05,6,1
-0.0003515814,7.837785e-05,6,1
-0.0001853024,6.849186e-05,6,1
-4.835724e-05,5.423012e-05,6,1
2.732727e-05,3.60788e-05,6,1
3.786152e-05,1.663096e-05,6,1
2.531276e-06,1.558884e-06,6,1
-5.986387e-05,-1.682422e-06,6,1
-0.0001389517,7.069105e-06,6,1
-0.0002326255,2.214118e-05,6,1
-0.0003365093,3.753739e-05,6,1
-0.000444931,4.888196e-05,6,1
-0.000549301,5.244739e-05,6,1
-0.0006398956,4.742337e-05,6,1
-0.0007120146,3.462021e-05,6,1
-0.0007739235,1.776542e-05,6,1
-0.000839398,1.883015e-06,6,1
-0.0009111929,-1.140634e-05,6,1
-0.0009714811,-2.210265e-05,6,1
-0.001000491,-2.907146e-05,6,1
-0.0009846084,-3.134038e-05,6,1
-0.0009303166,-2.955766e-05,6,1
-0.0008598181,-2.599222e-05,6,1
-0.0007917507,-2.275091e-05,6,1
-0.0007287074,-2.356124e-05,6,1
-0.0006642053,-3.328516e-05,6,1
-0.0005980827,-5.192267e-05,6,1
-0.0005462218,-7.688073e-05,6,1
-0.0005232086,-0.0001024871,6,1
-0.0005238568,-0.0001243659,6,1
-0.0005262878,-0.0001350622,6,1
-0.0005045711,-0.0001329553,6,1
-0.0004457413,-0.0001206384,6,1
-0.000360495,-0.0001020008,6,1
-0.0002716832,-8.368748e-05,6,1
-0.0001950263,-7.023606e-05,6,1
-0.0001331174,-6.148453e-05,6,1
-8.465986e-05,-5.354332e-05,6,1
-5.030202e-05,-4.317115e-05,6,1
-3.733679e-05,-3.101625e-05,6,1
-5.013995e-05,-1.869928e-05,6,1
-8.741498e-05,-7.678839e-06,6,1
-0.0001478653,2.369211e-06,6,1
-0.0002267911,1.12828e-05,6,1
-0.0003118754,2.133085e-05,6,1
-0.0003786463,3.591673e-05,6,1
-0.0003843186,5.860588e-05,6,1
-0.0002976137,8.74535e-05,6,1
-0.0001214487,0.0001145184,6,1
0.0001075496,0.000133318,6,1
0.0003354135,0.0001409351,6,1
0.0005183853,0.0001425557,6,1
0.0006423654,0.0001422316,6,1
0.0007248566,0.0001448246,6,1
0.0007979482,0.0001498487,6,1
0.0008788189,0.0001592484,6,1
0.0009585551,0.0001736723,6,1
0.001016412,0.0001918236,6,1
0.001033916,0.0002098128,6,1
0.0009974508,0.0002234263,6,1
0.0009010218,0.0002328261,6,1
0.0007517595,0.0002409294,6,1
0.0005644119,0.0002456293,6,1
0.0003548613,0.0002436845,6,1
0.0001373696,0.0002328261,6,1
-5.970181e-05,0.0002146748,6,1
-0.0001802784,0.0001918236,6,1
-0.0001754164,0.0001701068,6,1
-4.835724e-05,0.0001539003,6,1
0.0001490383,0.0001475797,6,1
0.0003610198,0.000150659,6,1
0.0005648981,0.0001573037,6,1
0.0007691005,0.0001644345,6,1
0.0009982612,0.0001645966,6,1
0.001264373,0.000155521,6,1
0.001550257,0.0001394765,6,1
0.001818962,0.0001201907,6,1
0.002014737,9.863601e-05,6,1
0.002087505,7.416415e-05,6,1
0.002030296,5.115087e-05,6,1
0.001870336,3.526847e-05,6,1
0.001645227,2.829966e-05,6,1
0.001381222,2.748934e-05,6,1
0.001097121,2.505836e-05,6,1
0.0008207994,1.808955e-05,6,1
0.000579646,5.286387e-06,6,1
0.0003882468,-1.20546e-05,6,1
0.0002517878,-3.150244e-05,6,1
0.0001759412,-5.59743e-05,6,1
0.0001675138,-8.790117e-05,6,1
0.0002162954,-0.0001253383,6,1
0.0002867939,-0.000166827,6,1
0.0003474063,-0.0002070192,6,1
0.0003871123,-0.0002386219,6,1
0.0004088291,-0.0002570974,6,1
0.0004057499,-0.0002645523,6,1
0.0003561579,-0.0002626076,6,1
0.0002446569,-0.000253856,6,1
8.372601e-05,-0.0002418632,6,1
-8.919769e-05,-0.0002279256,6,1
-0.0002340841,-0.0002110708,6,1
-0.0003277578,-0.000191623,6,1
-0.0003809152,-0.0001728234,6,1
-0.0004172179,-0.0001605064,6,1
-0.0004627582,-0.0001577513,6,1
-0.0005326084,-0.0001648822,6,1
-0.0006279027,-0.0001799543,6,1
-0.0007381071,-0.0001981056,6,1
-0.0008492839,-0.0002104225,6,1
-0.0009455507,-0.0002104225,6,1
-0.001015401,-0.0001974573,6,1
-0.001054945,-0.0001749302,6,1
-0.001066613,-0.0001457585,6,1
-0.001059969,-0.0001126972,6,1
-0.001044086,-8.141856e-05,6,1
-0.001023504,-5.581224e-05,6,1
-0.0009956289,-3.425755e-05,6,1
-0.0009565711,-1.318906e-05,6,1
-0.0009060067,1.322759e-05,6,1
-0.0008526873,4.385793e-05,6,1
-0.0008068228,7.513654e-05,6,1
-0.0007727891,0.0001091703,6,1
-0.0007468587,0.0001477418,6,1
-0.0007210903,0.0001890685,6,1
-0.0006928909,0.0002299089,6,1
-0.0006630709,0.0002668598,6,1
-0.0006348715,0.0002932765,6,1
-0.0006115342,0.0003033245,6,1
-0.000593869,0.0002991108,6,1
-0.0005807417,0.0002835526,6,1
-0.0005698834,0.0002595669,6,1
-0.000559187,0.0002273159,6,1
-0.0005502735,0.0001825859,6,1
-0.0005514079,0.0001182459,6,1
-0.0005666421,2.943412e-05,6,1
-0.0005948414,-8.644259e-05,6,1
-0.0006241752,-0.000221443,6,1
-0.0006321164,-0.0003570916,6,1
-0.0006008379,-0.0004794509,6,1
-0.0005301774,-0.0005859278,6,1
-0.0004408794,-0.0006786292,6,1
-0.0003559572,-0.0007565826,6,1
-0.0002908069,-0.000804716,6,1
-0.0002454286,-0.000804716,6,1
-0.0002125294,-0.0007489655,6,1
-0.0001825473,-0.0006426507,6,1
-0.0001488377,-0.0005024642,6,1
-0.0001031353,-0.0003472056,6,1
-3.604027e-05,-0.0001930815,6,1
5.666109e-05,-5.143648e-05,6,1
0.0001564933,7.562274e-05,6,1
0.0002302331,0.0001850168,6,1
0.0002678322,0.0002749631,6,1
0.0002837146,0.0003427064,6,1
0.0002984626,0.0003877606,6,1
0.0003190449,0.0004153117,6,1
0.0003378445,0.0004295735,6,1
0.000341572,0.0004313562,6,1
0.0003198552,0.0004206599,6,1
0.0002723701,0.0003994293,6,1
0.0002115956,0.0003717161,6,1
0.0001560072,0.0003436788,6,1
0.0001265113,0.0003171001,6,1
0.00013818,0.000292142,6,1
0.0001893926,0.0002709115,6,1
0.0002576221,0.0002530843,6,1
0.0003101313,0.0002386605,6,1
0.0003235827,0.0002245608,6,1
0.000289549,0.0002109473,6,1
0.0002243987,0.0001932822,6,1
0.0001548727,0.0001673517,6,1
9.879808e-05,0.0001292664,6,1
6.281957e-05,7.789165e-05,6,1
3.996837e-05,1.695509e-05,6,1
2.181705e-05,-4.625038e-05,6,1
3.017472e-06,-0.0001020008,6,1
-1.724069e-05,-0.0001455964,6,1
-3.814712e-05,-0.0001781716,6,1
-5.872941e-05,-0.0002013469,6,1
-7.526008e-05,-0.0002125294,6,1
-8.725291e-05,-0.0002094502,6,1
-9.956988e-05,-0.0001914609,6,1
-0.0001135075,-0.0001635857,6,1
-0.0001227452,-0.0001310105,6,1
-0.0001157764,-9.454585e-05,6,1
-8.854943e-05,-5.613637e-05,6,1
-5.013995e-05,-1.99958e-05,6,1
-2.161646e-05,8.689758e-06,6,1
-2.631635e-05,3.040651e-05,6,1
-7.282909e-05,4.288554e-05,6,1
-0.000151917,4.628891e-05,6,1
-0.000233922,4.596478e-05,6,1
-0.0002843243,4.693717e-05,6,1
-0.0002746004,5.293359e-05,6,1
-0.0001948643,6.444023e-05,6,1
-5.64605e-05,8.226741e-05,6,1
0.0001213252,9.879808e-05,6,1
0.0003132105,0.0001090082,6,1
0.0004973168,0.0001146805,6,1
0.0006511169,0.0001239182,6,1
0.0007584042,0.0001389903,6,1
0.0008206373,0.000155521,6,1
0.0008533746,0.0001662173,6,1
0.0008786568,0.0001735102,6,1
0.0009133389,0.0001814514,6,1
0.0009674687,0.0001910133,6,1
0.001040074,0.0001968476,6,1
0.001114138,0.0001932822,6,1
0.001170861,0.0001782101,6,1
0.001197926,0.0001513072,6,1
0.001182854,0.0001179218,6,1
0.001111059,8.46984e-05,6,1
0.0009791374,5.747142e-05,6,1
0.0007955172,3.786152e-05,6,1
0.0005896941,2.441009e-05,6,1
0.0003994293,1.403791e-05,6,1
0.0002543808,8.041497e-06,6,1
0.0001728619,6.90704e-06,6,1
0.000153252,9.986281e-06,6,1
0.0001715654,1.792748e-05,6,1
0.0001874478,3.218923e-05,6,1
0.0001551968,5.390598e-05,6,1
5.066468e-05,7.772959e-05,6,1
-0.0001195039,9.490851e-05,6,1
-0.0003224097,9.798775e-05,6,1
-0.0005107295,8.956036e-05,6,1
-0.0006353577,7.886404e-05,6,1
-0.000653185,7.367795e-05,6,1
-0.0005458977,7.416415e-05,6,1
-0.0003301888,7.999851e-05,6,1
-5.176061e-05,8.939829e-05,6,1
0.0002435224,0.0001028497,6,1
0.0005161164,0.0001172735,6,1
0.0007340944,0.000125863,6,1
0.0008673123,0.0001190562,6,1
0.0008958358,9.571884e-05,6,1
0.0008224201,6.249545e-05,6,1
0.0006767232,2.716521e-05,6,1
0.0004992616,1.396819e-06,6,1
0.0003205035,-1.010982e-05,6,1
0.0001495245,-5.247859e-06,6,1
-1.140634e-05,9.824215e-06,6,1
-0.0001592099,2.489629e-05,6,1
-0.0002888622,3.429608e-05,6,1
-0.0003937184,3.13789e-05,6,1
-0.0004650271,1.484824e-05,6,1
-0.0004938748,-9.623623e-06,6,1
-0.0004747511,-3.668853e-05,6,1
-0.0004190006,-5.953974e-05,6,1
-0.0003559572,-7.169464e-05,6,1
-0.0003227338,-7.363943e-05,6,1
-0.000340561,-7.137051e-05,6,1
-0.0004019837,-7.18567e-05,6,1
-0.0004749131,-7.493595e-05,6,1
-0.0005207775,-8.07703e-05,6,1
-0.0005185087,-8.741498e-05,6,1
-0.0004716718,-9.584238e-05,6,1
-0.0004071698,-0.0001084835,6,1
-0.0003658432,-0.0001251762,6,1
-0.0003718396,-0.0001455964,6,1
-0.0004170558,-0.0001679614,6,1
-0.0004713477,-0.0001901644,6,1
-0.000509433,-0.0002120432,6,1
-0.0005253154,-0.0002311669,6,1
-0.0005246671,-0.0002429977,6,1
-0.0005133225,-0.0002436459,6,1
-0.0004797751,-0.0002327876,6,1
-0.0004110594,-0.0002149604,6,1
-0.0003147926,-0.0001938919,6,1
-0.0002100984,-0.0001771992,6,1
-0.0001115627,-0.0001686097,6,1
-3.474375e-05,-0.0001679614,6,1
1.095867e-05,-0.0001739578,6,1
2.376183e-05,-0.00018433,6,1
1.079661e-05,-0.0001906506,6,1
-1.594417e-05,-0.0001880575,6,1
-4.706071e-05,-0.0001830335,6,1
-7.639453e-05,-0.0001797922,6,1
-9.29252e-05,-0.0001802784,6,1
-8.952183e-05,-0.0001833576,6,1
-7.526008e-05,-0.0001840059,6,1
-7.056019e-05,-0.0001765509,6,1
-9.389759e-05,-0.000159372,6,1
-0.0001473791,-0.0001349001,6,1
-0.0002170672,-0.0001037836,6,1
-0.0002843243,-6.974985e-05,6,1
-0.0003313232,-3.63644e-05,6,1
-0.0003543365,-1.010982e-05,6,1
-0.0003598467,6.420843e-06,6,1
-0.0003551469,1.808955e-05,6,1
-0.000338292,2.910999e-05,6,1
-0.0002992343,4.126489e-05,6,1
-0.0002355427,5.552663e-05,6,1
-0.0001585616,6.962632e-05,6,1
-8.384954e-05,8.502253e-05,6,1
-2.0482e-05,0.0001031738,6,1
3.316162e-05,0.0001232699,6,1
7.594687e-05,0.0001415833,6,1
0.0001051186,0.0001613553,6,1
0.0001117633,0.0001819376,6,1
9.020862e-05,0.0002005751,6,1
5.001642e-05,0.0002114335,6,1
9.986281e-06,0.0002138645,6,1
-1.983374e-05,0.0002158093,6,1
-4.641245e-05,0.0002187264,6,1
-8.271508e-05,0.0002195368,6,1
-0.0001311726,0.0002179161,6,1
-0.0001804405,0.0002180782,6,1
-0.0002191741,0.0002235884,6,1
-0.0002465631,0.0002310434,6,1
-0.0002699005,0.0002346088,6,1
-0.000295993,0.0002312055,6,1
-0.0003235441,0.0002261814,6,1
-0.000343154,0.0002266676,6,1
-0.0003441264,0.0002360674,6,1
-0.0003339163,0.0002560015,6,1
-0.0003262992,0.0002843629,6,1
-0.0003288923,0.0003156415,6,1
-0.0003321336,0.0003384927,6,1
-0.0003193304,0.0003414099,6,1
-0.0002767073,0.0003182346,6,1
-0.0002036158,0.0002701012,6,1
-0.0001152902,0.0002075439,6,1
-3.198864e-05,0.0001422316,6,1
4.207521e-05,8.032264e-05,6,1
0.0001153287,2.586868e-05,6,1
0.0001994406,-2.080613e-05,6,1
0.0002923041,-6.164659e-05,6,1
0.0003806297,-0.0001002181,6,1
0.0004519385,-0.0001365208,6,1
0.0005037994,-0.000166827,6,1
0.0005350781,-0.0001887058,6,1
0.0005451261,-0.0002006986,6,1
0.0005247059,-0.0002071812,6,1
0.0004743035,-0.0002126914,6,1
0.0004025085,-0.0002167431,6,1
0.000324231,-0.0002201465,6,1
0.0002594049,-0.000221443,6,1
0.000234933,-0.0002172293,6,1
0.0002684805,-0.0002110708,6,1
0.0003546993,-0.0002094502,6,1
0.0004589073,-0.0002125294,6,1
0.0005383193,-0.0002180396,6,1
0.0005665187,-0.0002276015,6,1
0.0005344298,-0.0002404046,6,1
0.0004525868,-0.0002566112,6,1
0.000336548,-0.0002765452,6,1
0.0002055991,-0.0003021515,6,1
8.032264e-05,-0.0003348887,6,1
-2.113026e-05,-0.0003689224,6,1
-7.995997e-05,-0.0003958252,6,1
-8.611845e-05,-0.0004042526,6,1
-4.738484e-05,-0.0003859393,6,1
1.533444e-05,-0.0003386162,6,1
8.032264e-05,-0.0002733039,6,1
0.0001329939,-0.0002094502,6,1
0.0001620036,-0.0001614788,6,1
0.000162976,-0.0001329553,6,1
0.0001334801,-0.0001182074,6,1
8.405014e-05,-0.0001036215,6,1
3.073064e-05,-8.239095e-05,6,1
-1.367526e-05,-5.548811e-05,6,1
-4.138842e-05,-3.004385e-05,6,1
-5.69467e-05,-1.124428e-05,6,1
-7.169464e-05,4.638125e-06,6,1
-9.146661e-05,2.295151e-05,6,1
-0.0001149661,4.402e-05,6,1
-0.0001391138,6.78436e-05,6,1
-0.0001598582,9.118101e-05,6,1
-0.0001759026,0.0001086841,6,1
-0.0001870851,0.0001205148,6,1
-0.0001932436,0.0001302388,6,1
-0.000191623,0.0001363972,6,1
-0.0001765509,0.0001396385,6,1
-0.000137007,0.0001422316,6,1
-6.407757e-05,0.0001496866,6,1
3.834771e-05,0.000170593,6,1
0.0001571416,0.0002085163,6,1
0.0002637806,0.0002608634,6,1
0.0003279585,0.0003200173,6,1
0.0003354135,0.0003749574,6,1
0.0002856594,0.0004175806,6,1
0.0001874478,0.0004412422,6,1
5.974033e-05,0.0004449697,6,1
-7.299116e-05,0.0004331389,6,1
-0.0001887058,0.0004099636,6,1
-0.0002739521,0.0003793332,6,1
-0.0003246786,0.0003457857,6,1
-0.0003374817,0.0003096451,6,1
-0.0003092824,0.0002683184,6,1
-0.0002470493,0.0002209954,6,1
-0.0001587237,0.000170431,6,1
-5.710876e-05,0.0001211631,6,1
4.483033e-05,7.319176e-05,6,1
0.0001351007,2.570662e-05,6,1
0.0001987924,-2.404744e-05,6,1
0.0002208333,-6.877746e-05,6,1
0.0001902029,-0.0001018388,6,1
0.0001166253,-0.0001214487,6,1
2.214118e-05,-0.0001274451,6,1
-6.083626e-05,-0.0001190177,6,1
-0.0001086455,-9.66527e-05,6,1
-0.0001250141,-6.375344e-05,6,1
-0.0001349001,-2.664048e-05,6,1
-0.0001608306,8.041497e-06,6,1
-0.000213988,3.753739e-05,6,1
-0.0002830278,6.444023e-05,6,1
-0.0003475298,8.74535e-05,6,1
-0.0003912874,0.0001070634,6,1
-0.0004047388,0.0001205148,6,1
-0.0003762153,0.0001302388,6,1
-0.0002958309,0.0001373696,6,1
-0.0001690959,0.0001423936,6,1
-2.874733e-05,0.000145797,6,1
7.254349e-05,0.0001410971,6,1
0.0001022015,0.0001261871,6,1
6.589881e-05,0.0001031738,6,1
-2.006553e-06,7.238143e-05,6,1
-6.537409e-05,3.640293e-05,6,1
-0.0001031353,-7.100305e-07,6,1
-0.0001146419,-3.668853e-05,6,1
-0.0001052422,-7.250496e-05,6,1
-7.590833e-05,-0.0001079973,6,1
-3.182657e-05,-0.0001459206,6,1
1.371378e-05,-0.0001922712,6,1
4.35338e-05,-0.0002493182,6,1
5.179914e-05,-0.0003120375,6,1
4.239934e-05,-0.0003694086,6,1
3.154097e-05,-0.0004091146,6,1
5.212327e-05,-0.0004211074,6,1
0.0001389903,-0.0004079801,6,1
0.000292142,-0.0003755671,6,1
0.0004689553,-0.000333106,6,1
0.0006138419,-0.0002912931,6,1
0.000695847,-0.0002558008,6,1
0.0007152948,-0.0002230636,6,1
0.0007037881,-0.0001880575,6,1
0.0006893643,-0.0001548341,6,1
0.0006843403,-0.0001266348,6,1
0.000688392,-0.000102325,6,1
0.0006961711,-8.012204e-05,6,1
0.0006827196,-5.338126e-05,6,1
0.0006250244,-1.99958e-05,6,1
0.0005235714,1.760335e-05,6,1
0.0004000776,5.260946e-05,6,1
0.000274639,8.129502e-05,6,1
0.0001540623,0.0001031738,6,1
4.142696e-05,0.0001182459,6,1
-5.22468e-05,0.0001260251,6,1
-0.0001190177,0.0001300767,6,1
-0.00015451,0.0001370455,6,1
-0.0001566169,0.0001516314,6,1
-0.0001251762,0.0001767515,6,1
-6.81292e-05,0.0002119197,6,1
-9.137427e-06,0.0002525981,6,1
2.214118e-05,0.0002934386,6,1
8.689758e-06,0.0003266619,6,1
-5.046408e-05,0.0003464339,6,1
-0.0001394379,0.0003545372,6,1
-0.0002394322,0.0003558337,6,1
-0.0003264613,0.000351458,6,1
-0.0003758912,0.0003380065,6,1
-0.0003614674,0.000309483,6,1
-0.0002758969,0.0002595669,6,1
-0.0001376552,0.0001861513,6,1
1.987227e-05,9.604298e-05,6,1
0.0001550348,6.258778e-06,6,1
0.0002372019,-6.310517e-05,6,1
0.0002550291,-9.713889e-05,6,1
0.0002085163,-9.162867e-05,6,1
0.000105929,-5.257093e-05,6,1
-3.247483e-05,5.934648e-06,6,1
-0.0001733096,6.768154e-05,6,1
-0.0002702246,0.0001153287,6,1
-0.0002765452,0.0001399627,6,1
-0.0001752544,0.0001423936,6,1
-1.520357e-06,0.0001266733,6,1
0.0001649207,9.750156e-05,6,1
0.0002448189,5.795762e-05,6,1
0.0001999268,9.824215e-06,6,1
4.515445e-05,-4.090223e-05,6,1
-0.0001627754,-8.757704e-05,6,1
-0.0003527159,-0.0001258245,6,1
-0.0004763717,-0.0001517549,6,1
-0.0005233706,-0.0001621271,6,1
-0.0005141329,-0.0001567789,6,1
-0.0004841508,-0.0001394379,6,1
-0.0004666478,-0.000119666,6,1
-0.0004797751,-0.0001020008,6,1
-0.0005138087,-8.952183e-05,6,1
-0.0005434667,-8.044617e-05,6,1
-0.0005486528,-7.380149e-05,6,1
-0.0005251534,-7.056019e-05,6,1
-0.0004825302,-7.55842e-05,6,1
-0.0004311555,-8.984595e-05,6,1
-0.0003851289,-0.0001083214,6,1
-0.0003590364,-0.0001240417,6,1
-0.0003582261,-0.0001279313,6,1
-0.0003851289,-0.0001177212,6,1
-0.0004439586,-9.827335e-05,6,1
-0.0005363359,-8.158062e-05,6,1
-0.0006505919,-7.850138e-05,6,1
-0.000755124,-9.600444e-05,6,1
-0.0008136295,-0.000132145,6,1
-0.0007995299,-0.0001759026,6,1
-0.0007144455,-0.0002151224,6,1
-0.0005833348,-0.0002439701,6,1
-0.0004460655,-0.0002606628,6,1
-0.000328244,-0.0002668213,6,1
-0.0002370013,-0.0002635799,6,1
-0.0001676373,-0.0002527216,6,1
-0.0001139937,-0.0002378116,6,1
-7.412562e-05,-0.0002203085,6,1
-5.613637e-05,-0.0001984297,6,1
-6.407757e-05,-0.0001728234,6,1
-9.29252e-05,-0.0001475412,6,1
-0.0001305243,-0.0001293899,6,1
-0.000161965,-0.0001204763,6,1
-0.0001755785,-0.0001156143,6,1
-0.0001630995,-0.0001070249,6,1
-0.0001186936,-9.114248e-05,6,1
-3.117831e-05,-7.137051e-05,6,1
0.0001091703,-5.159854e-05,6,1
0.0003041349,-2.680255e-05,6,1
0.000542209,6.90704e-06,6,1
0.0008092928,4.677511e-05,6,1
0.001088532,8.46984e-05,6,1
0.001351402,0.0001130598,6,1
0.001562574,0.0001299146,6,1
0.001694819,0.0001398006,6,1
0.001745546,0.0001459591,6,1
0.001729826,0.0001496866,6,1
0.00165803,0.0001503349,6,1
0.001518654,0.0001487142,6,1
0.001294841,0.0001462832,6,1
0.0009998818,0.0001448246,6,1
0.0006759129,0.0001483901,6,1
0.0003796573,0.000158114,6,1
0.0001566554,0.0001752929,6,1
1.290346e-05,0.0002017096,6,1
-7.461182e-05,0.0002359054,6,1
-0.0001389517,0.0002765838,6,1
-0.0002032917,0.000321638,6,1
-0.0002776796,0.0003628026,6,1
-0.0003614674,0.0003947294,6,1
-0.000454817,0.0004112601,6,1
-0.0005473563,0.0004102877,6,1
-0.0006269303,0.0003958639,6,1
-0.0006847876,0.000373823,6,1
-0.0007163903,0.0003483787,6,1
-0.0007053699,0.0003252034,6,1
-0.0006202856,0.000307052,6,1
-0.0004368278,0.0002914938,6,1
-0.0001771992,0.000279663,6,1
8.405014e-05,0.0002705873,6,1
0.0002607014,0.0002611876,6,1
0.0002999212,0.0002461155,6,1
0.000210299,0.0002213195,6,1
3.883391e-05,0.0001897167,6,1
-0.0001642339,0.0001542244,6,1
-0.0003645466,0.0001094944,6,1
-0.0005428185,4.904402e-05,6,1
-0.0006792775,-2.534396e-05,6,1
-0.0007458862,-9.746302e-05,6,1
-0.0007102319,-0.0001486757,6,1
-0.0005415219,-0.0001702304,6,1
-0.0002232257,-0.0001695821,6,1
0.000220023,-0.0001627754,6,1
0.0007186982,-0.0001652063,6,1
0.001194685,-0.0001799543,6,1
0.001580887,-0.0002071812,6,1
0.001835168,-0.0002441321,6,1
0.001951532,-0.000286107,6,1
0.001955097,-0.0003251648,6,1
0.001883626,-0.0003583881,6,1
0.00175997,-0.0003825359,6,1
0.00158348,-0.0003946908,6,1
0.001346054,-0.0003920977,6,1
0.001048015,-0.0003710293,6,1
0.0007086502,-0.0003327818,6,1
0.0003642611,-0.0002865932,6,1
5.552663e-05,-0.0002486699,6,1
-0.0001953505,-0.0002292221,6,1
-0.0003851289,-0.0002248464,6,1
-0.0005316359,-0.0002254946,6,1
-0.0006536711,-0.0002259808,6,1
-0.0007591756,-0.0002250084,6,1
-0.0008481495,-0.0002222533,6,1
-0.00091411,-0.0002183637,6,1
-0.0009554367,-0.0002143121,6,1
-0.0009748845,-0.0002099363,6,1
-0.0009828256,-0.0002062088,6,1
-0.0009846084,-0.0001981056,6,1
-0.0009826636,-0.0001864369,6,1
-0.0009752086,-0.0001733096,6,1
-0.0009585159,-0.0001600202,6,1
-0.0009298304,-0.0001436516,6,1
-0.0008885037,-0.0001216107,6,1
-0.0008278913,-9.486997e-05,6,1
-0.0007463724,-6.164659e-05,6,1
-0.0006514022,-2.615429e-05,6,1
-0.0005585388,2.693341e-06,6,1
-0.0004919299,2.035846e-05,6,1
-0.000467296,2.635488e-05,6,1
-0.0004789647,2.441009e-05,6,1
-0.0005058676,2.100672e-05,6,1
-0.0005254775,2.262738e-05,6,1
-0.0005245051,3.445814e-05,6,1
-0.0005045711,5.601284e-05,6,1
-0.0004753993,7.951231e-05,6,1
-0.0004470379,0.0001002567,6,1
-0.0004251591,0.0001148425,6,1
-0.0004130042,0.0001221355,6,1
-0.0004040906,0.0001218114,6,1
-0.0003908012,0.0001156529,6,1
-0.000370543,0.0001073875,6,1
-0.0003420196,0.0001028497,6,1
-0.0003074997,0.000105929,6,1
-0.0002674695,0.0001120874,6,1
-0.0002201465,0.0001190562,6,1
-0.0001661787,0.0001257009,6,1
-0.0001070249,0.0001349386,6,1
-5.516398e-05,0.0001511452,6,1
-2.404744e-05,0.0001733481,6,1
-2.226472e-05,0.0001968476,6,1
-5.143648e-05,0.0002171058,6,1
-0.0001070249,0.0002320158,6,1
-0.000181737,0.0002443328,6,1
-0.0002648765,0.0002602152,6,1
-0.000340561,0.0002801492,6,1
-0.000395177,0.0002973281,6,1
-0.0004279142,0.00030689,6,1
-0.0004405553,0.0003072141,6,1
-0.0004295348,0.0002976523,6,1
-0.0003940425,0.0002819319,6,1
-0.0003457471,0.0002686426,6,1
-0.0003015032,0.0002624841,6,1
-0.0002724935,0.0002613496,6,1
-0.0002624455,0.0002579462,6,1
-0.0002669833,0.0002493568,6,1
-0.0002796244,0.0002347709,6,1
-0.0002896725,0.000217592,6,1
-0.0002887001,0.0001994406,6,1
-0.0002716832,0.000180479,6,1
-0.0002420253,0.0001602208,6,1
-0.0002047502,0.0001373696,6,1
-0.000164396,0.0001091703,6,1
-0.0001201522,7.67572e-05,6,1
-6.197072e-05,3.850978e-05,6,1
2.39239e-05,-2.492749e-06,6,1
0.0001485521,-3.863332e-05,6,1
0.0003046211,-6.504996e-05,6,1
0.0004639314,-8.384954e-05,6,1
0.000591801,-9.811128e-05,6,1
0.0006817472,-0.000112211,6,1
0.0007588904,-0.0001258245,6,1
0.0008574262,-0.0001402483,6,1
0.001006364,-0.0001517549,6,1
0.001233742,-0.0001535376,6,1
0.001552039,-0.0001387897,6,1
0.001928518,-0.000104918,6,1
0.002288953,-6.116039e-05,6,1
0.002540641,-2.42095e-05,6,1
0.002605954,-1.156841e-05,6,1
0.002453288,-2.745081e-05,6,1
0.002116677,-6.44017e-05,6,1
0.001674561,-0.0001105903,6,1
0.001214781,-0.0001553203,6,1
0.0008065377,-0.0001885437,6,1
0.0004825689,-0.0002078295,6,1
0.0002448189,-0.0002203085,6,1
8.097089e-05,-0.0002350565,6,1
-3.117831e-05,-0.0002543422,6,1
-0.0001105903,-0.0002716832,6,1
-0.0001645581,-0.0002804347,6,1
-0.0001945401,-0.0002780038,6,1
-0.0002024813,-0.0002624455,6,1
-0.0001896782,-0.0002370013,6,1
-0.0001590478,-0.0002052365,6,1
-0.0001238797,-0.0001724993,6,1
-0.0001024871,-0.0001425172,6,1
-0.0001102662,-0.0001175591,6,1
-0.0001468929,-9.746302e-05,6,1
-0.0001963229,-8.141856e-05,6,1
-0.000243808,-6.731888e-05,6,1
-0.0002791382,-5.451572e-05,6,1
-0.0002958309,-4.252288e-05,6,1
-0.0002878898,-2.777494e-05,6,1
-0.0002478596,-5.89612e-06,6,1
-0.000179306,2.603075e-05,6,1
-9.713889e-05,6.492643e-05,6,1
-1.740276e-05,0.0001026876,6,1
4.645098e-05,0.0001291043,6,1
8.567078e-05,0.000140773,6,1
0.0001009049,0.0001417454,6,1
9.717743e-05,0.0001376938,6,1
7.286763e-05,0.000133318,6,1
2.084466e-05,0.0001321835,6,1
-6.537409e-05,0.0001325077,6,1
-0.0001812508,0.0001363972,6,1
-0.0003084721,0.0001425557,6,1
-0.0004230522,0.0001517934,6,1
-0.0005065158,0.0001649207,6,1
-0.0005527044,0.0001812893,6,1
-0.0005656697,0.0001979821,6,1
-0.0005552975,0.0002096508,6,1
-0.000539253,0.0002140265,6,1
-0.0005355255,0.0002083542,6,1
-0.0005538389,0.0001926339,6,1
-0.0005857658,0.0001723757,6,1
-0.0006115342,0.0001561692,6,1
-0.0006197995,0.0001480659,6,1
-0.0006168823,0.0001504969,6,1
-0.0006152617,0.0001665414,6,1
-0.0006215822,0.0001895547,6,1
-0.0006262821,0.0002096508,6,1
-0.0006094273,0.0002221298,6,1
-0.0005518941,0.0002263435,6,1
-0.0004585445,0.000222616,6,1
-0.0003553089,0.0002093267,6,1
-0.0002695764,0.0001887444,6,1
-0.0002122053,0.0001667035,6,1
-0.0001734716,0.0001492004,6,1
-0.0001373311,0.0001436902,6,1
-0.0001028112,0.0001537382,6,1
-7.801519e-05,0.0001741585,6,1
-7.752899e-05,0.0001958752,6,1
-0.000104918,0.0002125679,6,1
-0.0001481895,0.0002260194,6,1
-0.0001844921,0.0002359054,6,1
-0.000196647,0.0002368777,6,1
-0.0001778474,0.0002240746,6,1
-0.0001280934,0.0001957132,6,1
-4.787104e-05,0.0001584381,6,1
5.585077e-05,0.0001150046,6,1
0.000162976,6.670914e-05,6,1
0.0002511395,1.047248e-05,6,1
0.0003025142,-5.824322e-05,6,1
0.000304459,-0.0001434896,6,1
0.000259891,-0.0002460769,6,1
0.0001914995,-0.0003632501,6,1
0.0001292664,-0.0004873921,6,1
9.507057e-05,-0.0006091032,6,1
9.280167e-05,-0.000715418,6,1
0.0001046324,-0.0007911025,6,1
0.0001064152,-0.0008363187,6,1
8.486046e-05,-0.0008575493,6,1
4.499239e-05,-0.0008632215,6,1
-1.196227e-06,-0.0008554424,6,1
-3.830919e-05,-0.0008406945,6,1
-5.743289e-05,-0.0008288636,6,1
-6.213279e-05,-0.0008287016,6,1
-6.569822e-05,-0.0008343739,6,1
-7.979791e-05,-0.0008317808,6,1
-0.0001092938,-0.0008071469,6,1
-0.0001493239,-0.0007538275,6,1
-0.0001888679,-0.000675874,6,1
-0.0002152845,-0.0005846313,6,1
-0.0002169052,-0.0004841508,6,1
-0.0001869231,-0.0003765395,6,1
-0.0001258245,-0.0002684419,6,1
-3.604027e-05,-0.0001681235,6,1
7.643307e-05,-7.866345e-05,6,1
0.0002020337,-1.682422e-06,6,1
0.0003286068,6.379197e-05,6,1
0.0004449697,0.0001222976,6,1
0.0005384815,0.0001812893,6,1
0.0006057385,0.0002430362,6,1
0.0006425274,0.0003057555,6,1
0.0006422033,0.0003618301,6,1
0.0006046041,0.0004063981,6,1
0.0005394538,0.0004405939,6,1
0.0004624728,0.0004670106,6,1
0.0003906778,0.0004900239,6,1
0.0003360618,0.0005091476,6,1
0.000307052,0.0005177371,6,1
0.0003026763,0.0005029891,6,1
0.0003085106,0.0004597176,6,1
0.0003096451,0.0003919743,6,1
0.0002997591,0.000311914,6,1
0.0002869559,0.0002265056,6,1
0.0002812837,0.0001398006,6,1
0.0002812837,6.103686e-05,6,1
0.0002696149,5.934648e-06,6,1
0.00022764,-1.3027e-05,6,1
0.0001462832,8.689758e-06,6,1
3.218923e-05,6.703327e-05,6,1
-0.0001010285,0.0001503349,6,1
-0.0002379736,0.0002451431,6,1
-0.0003622777,0.0003357376,6,1
-0.0004570859,0.0004096394,6,1
-0.0005134846,0.0004623107,6,1
-0.0005389289,0.000492779,6,1
-0.0005535148,0.0005063924,6,1
-0.0005723144,0.0005065545,6,1
-0.0005972724,0.0004987754,6,1
-0.0006128307,0.0004867825,6,1
-0.0005963,0.0004707381,6,1
-0.0005287188,0.0004550177,6,1
-0.000412518,0.0004396215,6,1
-0.0002684419,0.0004206599,6,1
-0.0001131834,0.0003905157,6,1
3.494434e-05,0.0003508097,6,1
0.0001462832,0.0003102934,6,1
0.0002025199,0.0002757735,6,1
0.0002106232,0.0002504913,6,1
0.0002047888,0.0002363916,6,1
0.0002096508,0.0002318537,6,1
0.0002218057,0.0002323399,6,1
0.0002273159,0.0002299089,6,1
0.0002161334,0.0002174299,6,1
0.0001882582,0.000195389,6,1
0.0001500107,0.0001650828,6,1
0.0001120874,0.0001313732,6,1
8.534666e-05,9.442231e-05,6,1
7.497447e-05,5.763349e-05,6,1
8.550872e-05,2.262738e-05,6,1
0.0001091703,-7.840905e-06,6,1
0.0001279698,-3.344723e-05,6,1
0.0001300767,-5.565017e-05,6,1
0.0001154908,-7.752899e-05,6,1
9.361199e-05,-0.0001026491,6,1
6.200925e-05,-0.0001344139,6,1
9.500085e-06,-0.0001715269,6,1
-6.942573e-05,-0.0002123673,6,1
-0.0001606685,-0.0002506147,6,1
-0.0002405667,-0.0002807589,6,1
-0.0002911311,-0.0002997205,6,1
-0.0003159271,-0.000310903,6,1
-0.0003297026,-0.0003172236,6,1
-0.0003416954,-0.0003199787,6,1
-0.0003551469,-0.0003134961,6,1
-0.0003697327,-0.0002938862,6,1
-0.0003820497,-0.0002629317,6,1
-0.0003825359,-0.0002293842,6,1
-0.000355471,-0.0002034537,6,1
-0.0002955068,-0.0001875713,6,1
-0.000209126,-0.0001802784,6,1
-0.000104918,-0.0001746061,6,1
9.66215e-06,-0.0001674752,6,1
0.0001213252,-0.0001600202,6,1
0.0002229401,-0.0001511067,6,1
0.0003224483,-0.0001405724,6,1
0.0004371906,-0.0001237176,6,1
0.0005760806,-0.0001002181,6,1
0.0007255049,-7.380149e-05,6,1
0.0008541849,-4.90055e-05,6,1
0.000923873,-3.231277e-05,6,1
0.0009102596,-2.388537e-05,6,1
0.0008159374,-2.210265e-05,6,1
0.0006718613,-2.404744e-05,6,1
0.0005227611,-2.485776e-05,6,1
0.0003948915,-2.09682e-05,6,1
0.0002840388,-1.092015e-05,6,1
0.0001785342,3.827799e-06,6,1
7.481241e-05,2.116879e-05,6,1
-1.351319e-05,3.98063e-05,6,1
-6.893953e-05,6.071273e-05,6,1
-7.801519e-05,8.372601e-05,6,1
-3.960571e-05,0.0001033359,6,1
2.441009e-05,0.000113384,6,1
8.615699e-05,0.0001172735,6,1
0.0001200286,0.0001213252,6,1
0.0001083599,0.000128294,6,1
4.256141e-05,0.000133318,6,1
-6.731888e-05,0.0001325077,6,1
-0.0001838438,0.0001248906,6,1
-0.0002679557,0.0001163011,6,1
-0.0003055549,0.0001073875,6,1
-0.0003062031,9.669123e-05,6,1
-0.0002891863,7.999851e-05,6,1
-0.0002671454,5.52025e-05,6,1
-0.000246401,2.424803e-05,6,1
-0.000228898,-7.030578e-06,6,1
-0.0002154466,-3.458168e-05,6,1
-0.0002128535,-5.64605e-05,6,1
-0.0002272773,-7.412562e-05,6,1
-0.0002585559,-8.806324e-05,6,1
-0.0002946965,-9.535618e-05,6,1
-0.0003154408,-9.211487e-05,6,1
-0.0003011791,-7.509801e-05,6,1
-0.0002434839,-4.608832e-05,6,1
-0.0001455964,-1.075808e-05,6,1
-2.258885e-05,2.473423e-05,6,1
0.0001151667,5.358185e-05,6,1
0.0002482223,7.076078e-05,6,1
0.0003389789,7.513654e-05,6,1
0.0003451374,6.719535e-05,6,1
0.0002537325,4.790957e-05,6,1
8.712937e-05,1.987227e-05,6,1
-0.0001126972,-1.497178e-05,6,1
-0.000305879,-5.111234e-05,6,1
-0.0004734545,-8.384954e-05,6,1
-0.0006154237,-0.0001135075,6,1
-0.0007342176,-0.0001386276,6,1
-0.0008233535,-0.0001567789,6,1
-0.0008748902,-0.0001677994,6,1
-0.0008906106,-0.0001749302,6,1
-0.0008851003,-0.0001857886,6,1
-0.0008769971,-0.0002011848,6,1
-0.0008750523,-0.000216419,6,1
-0.0008763488,-0.0002272773,6,1
-0.0008719731,-0.0002323013,6,1
-0.0008565768,-0.0002323013,6,1
-0.0008282154,-0.0002279256,6,1
-0.0007820268,-0.0002211189,6,1
-0.0007144455,-0.0002154466,6,1
-0.0006291993,-0.0002133397,6,1
-0.0005368221,-0.0002154466,6,1
-0.0004493068,-0.0002203085,6,1
-0.0003760533,-0.0002232257,6,1
-0.0003233821,-0.0002198223,6,1
-0.0002828657,-0.0002128535,6,1
-0.0002410529,-0.0002019951,6,1
-0.0001815749,-0.0001878955,6,1
-9.276313e-05,-0.0001712027,6,1
3.591673e-05,-0.0001530514,6,1
0.0002120818,-0.0001324691,6,1
0.0004274666,-0.0001101041,6,1
0.0006577615,-8.547019e-05,6,1
0.0008575883,-5.889148e-05,6,1
0.0009771927,-3.279896e-05,6,1
0.0009968026,-6.868513e-06,6,1
0.0009421865,1.501031e-05,6,1
0.0008609917,3.056858e-05,6,1
0.0007937344,4.175109e-05,6,1
0.0007624559,5.244739e-05,6,1
0.0007592146,6.654708e-05,6,1
0.0007503009,8.388807e-05,6,1
0.0006986021,0.0001025256,6,1
0.0005903424,0.0001192183,6,1
0.0004368664,0.0001346145,6,1
0.000257298,0.0001483901,6,1
7.20573e-05,0.000160545,6,1
-9.632857e-05,0.000168162,6,1
-0.0002277635,0.0001686482,6,1
-0.000313334,0.0001633001,6,1
-0.0003483401,0.0001543865,6,1
-0.0003301888,0.0001466074,6,1
-0.0002596904,0.0001410971,6,1
-0.0001353863,0.0001430419,6,1
3.494434e-05,0.0001527658,6,1
0.0002179161,0.0001722137,6,1
0.0003715541,0.0002005751,6,1
0.000473007,0.0002313675,6,1
0.0005247059,0.0002530843,6,1
0.0005394538,0.0002611876,6,1
0.0005277851,0.000259729,6,1
0.0005063924,0.0002556773,6,1
0.0005000719,0.000252436,6,1
0.0005344298,0.0002485465,6,1
0.0006237278,0.0002456293,6,1
0.0007648868,0.0002433604,6,1
0.0009332729,0.0002406053,6,1
0.001083021,0.0002362295,6,1
0.001165351,0.000232502,6,1
0.001153682,0.0002303951,6,1
0.001054498,0.00022764,6,1
0.0008927565,0.0002206712,6,1
0.00069844,0.0002057612,6,1
0.0005000719,0.0001872858,6,1
0.0003156415,0.0001710792,6,1
0.0001522796,0.0001592484,6,1
1.403791e-05,0.0001485521,6,1
-9.535618e-05,0.0001349386,6,1
-0.000174282,0.0001175977,6,1
-0.0002287359,9.814982e-05,6,1
-0.0002595283,7.951231e-05,6,1
-0.0002583939,6.346784e-05,6,1
-0.0002167431,5.406805e-05,6,1
-0.0001308485,5.277153e-05,6,1
-1.383732e-05,5.504044e-05,6,1
0.0001099806,5.115087e-05,6,1
0.0002120818,3.251336e-05,6,1
0.0002707494,5.124321e-06,6,1
0.0002803113,-2.356124e-05,6,1
0.0002470879,-4.625038e-05,6,1
0.0001767515,-6.051213e-05,6,1
7.270556e-05,-7.007399e-05,6,1
-6.197072e-05,-7.477388e-05,6,1
-0.0002188499,-7.33153e-05,6,1
-0.0003784843,-6.423963e-05,6,1
-0.0005220741,-5.013995e-05,6,1
-0.0006376266,-3.571614e-05,6,1
-0.0007223868,-2.404744e-05,6,1
-0.00077992,-1.983374e-05,6,1
-0.0008215707,-2.518189e-05,6,1
-0.0008517149,-4.949169e-05,6,1
-0.0008656525,-9.697683e-05,6,1
-0.0008554424,-0.0001656925,6,1
-0.0008150881,-0.0002431597,6,1
-0.0007507482,-0.0003227338,6,1
-0.0006796016,-0.0004019837,6,1
-0.0006227166,-0.0004789647,6,1
-0.000591438,-0.0005471942,6,1
-0.0005867381,-0.0005987309,6,1
-0.0006018102,-0.0006238511,6,1
-0.0006300096,-0.0006167202,6,1
-0.0006616123,-0.0005770142,6,1
-0.0006815463,-0.0005108916,6,1
-0.0006703638,-0.0004267797,6,1
-0.0006116962,-0.0003327818,6,1
-0.0005082985,-0.0002395943,6,1
-0.000387722,-0.0001530514,6,1
-0.0002804347,-7.412562e-05,6,1
-0.0001919471,-1.196227e-06,6,1
-0.0001092938,6.735741e-05,6,1
-1.464765e-05,0.0001310491,6,1
0.0001022015,0.0001863134,6,1
0.0002316917,0.000227478,6,1
0.0003467581,0.000249843,6,1
0.0004211461,0.0002477361,6,1
0.0004420525,0.0002195368,6,1
0.000411098,0.0001777239,6,1
0.0003436788,0.0001393144,6,1
0.0002692908,0.0001198666,6,1
0.0002148369,0.0001261871,6,1
0.0001914995,0.0001550348,6,1
0.0002030061,0.000195389,6,1
0.0002433604,0.0002363916,6,1
0.0002979764,0.0002655633,6,1
0.0003383307,0.0002809595,6,1
0.0003433547,0.0002785285,6,1
0.0003227724,0.0002594049,6,1
0.0003067279,0.0002273159,6,1
0.0003222862,0.0001884202,6,1
0.0003762539,0.0001534141,6,1
0.00046069,0.0001300767,6,1
0.0005545259,0.0001200286,6,1
0.0006208107,0.0001206769,6,1
0.0006245382,0.000130725,6,1
0.000547395,0.0001508211,6,1
0.0004026706,0.000180479,6,1
0.0002232643,0.0002135403,6,1
4.304761e-05,0.0002433604,6,1
-0.0001125351,0.0002657254,6,1
-0.0002254946,0.0002751252,6,1
-0.000293562,0.0002666978,6,1
-0.0003309991,0.00024255,6,1
-0.0003527159,0.0002104611,6,1
-0.0003595226,0.0001718896,6,1
-0.0003387782,0.0001279698,6,1
-0.0002890242,8.080883e-05,6,1
-0.0002292221,3.364782e-05,6,1
-0.0001846542,-9.785688e-06,6,1
-0.0001697442,-4.868137e-05,6,1
-0.000184168,-8.644259e-05,6,1
-0.0002144742,-0.0001261486,6,1
-0.0002400805,-0.0001677994,6,1
-0.0002382978,-0.000211557,6,1
-0.0002008607,-0.0002551526,6,1
-0.0001368449,-0.0002968033,6,1
-6.877746e-05,-0.0003365093,6,1
-1.594417e-05,-0.0003658432,6,1
1.711715e-05,-0.000375405,6,1
3.721326e-05,-0.0003637363,6,1
5.779555e-05,-0.0003389403,6,1
8.145709e-05,-0.0003121996,6,1
0.0001018773,-0.0002924276,6,1
0.000105929,-0.0002801106,6,1
6.978839e-05,-0.0002645523,6,1
-2.761287e-05,-0.0002399184,6,1
-0.0001825473,-0.0002032917,6,1
-0.0003557951,-0.0001562927,6,1
-0.0004982505,-0.0001050801,6,1
-0.0005799314,-5.710876e-05,6,1
-0.000601162,-2.210265e-05,6,1
-0.0005831727,-2.81688e-06,6,1
-0.0005468701,5.448452e-06,6,1
-0.0004958195,1.274139e-05,6,1
-0.0004222419,2.667901e-05,6,1
-0.0003340784,4.612685e-05,6,1
-0.0002553146,6.687121e-05,6,1
-0.0002047502,8.518459e-05,6,1
-0.000176875,9.879808e-05,6,1
-0.0001404103,0.0001069013,6,1
-6.618442e-05,0.0001083599,6,1
4.466826e-05,0.0001057669,6,1
0.000158114,0.0001028497,6,1
0.0002433604,0.0001070634,6,1
0.0003140208,0.0001197045,6,1
0.0004230909,0.000135911,6,1
0.0006196762,0.0001529279,6,1
0.0008859497,0.000165569,6,1
0.001142986,0.0001749688,6,1
0.001303268,0.0001820997,6,1
0.001316558,0.0001911753,6,1
0.001188688,0.0002007372,6,1
0.0009835132,0.0002070577,6,1
0.0007904932,0.0002031682,6,1
0.0006838542,0.0001851789,6,1
0.0006877437,0.0001539003,6,1
0.0007700729,0.0001107909,6,1
0.0008648812,5.536457e-05,6,1
0.0009130147,-1.20546e-05,6,1
0.0008854635,-8.82253e-05,6,1
0.000775259,-0.0001661787,6,1
0.0005927734,-0.0002420253,6,1
0.0003623164,-0.0003141443,6,1
0.0001145184,-0.0003805911,6,1
-0.0001232314,-0.0004356933,6,1
-0.0003337542,-0.0004674581,6,1
-0.0005073262,-0.0004661616,6,1
-0.0006379507,-0.0004287245,6,1
-0.0007304901,-0.0003551469,6,1
-0.0007901301,-0.000251263,6,1
-0.0008256224,-0.0001276072,6,1
-0.0008481495,-6.176923e-08,6,1
-0.0008677593,0.000115977,6,1
-0.0008829935,0.0002070577,6,1
-0.0008834797,0.0002699391,6,1
-0.0008609526,0.0003065659,6,1
-0.000819626,0.000321638,6,1
-0.0007714926,0.0003208276,6,1
-0.000720442,0.0003089969,6,1
-0.0006541573,0.0002965178,6,1
-0.0005604835,0.0002929524,6,1
-0.0004450931,0.0002978143,6,1
-0.0003395886,0.0003052694,6,1
-0.0002765452,0.000309483,6,1
-0.0002671454,0.000304297,6,1
-0.0002887001,0.0002890628,6,1
-0.0002891863,0.0002649151,6,1
-0.000213988,0.0002352571,6,1
-3.733679e-05,0.000207706,6,1
0.0002166196,0.0001872858,6,1
0.0004861343,0.0001722137,6,1
0.0006992503,0.0001589243,6,1
0.0008089686,0.000145797,6,1
0.000822258,0.0001329939,6,1
0.0007883863,0.0001222976,6,1
0.0007622938,0.0001106288,6,1
0.0007733142,9.21534e-05,6,1
0.0008109135,6.444023e-05,6,1
0.000829551,2.684107e-05,6,1
0.000775259,-1.821308e-05,6,1
0.0006289139,-6.294311e-05,6,1
0.000420984,-0.0001024871,6,1
0.0002091646,-0.0001405724,6,1
4.272347e-05,-0.0001831956,6,1
-5.824322e-05,-0.0002311669,6,1
-0.0001031353,-0.0002768693,6,1
-0.0001156143,-0.000310903,6,1
-0.0001099421,-0.0003297026,6,1
-9.697683e-05,-0.0003350507,6,1
-8.725291e-05,-0.0003308371,6,1
-8.611845e-05,-0.0003198166,6,1
-0.0001000561,-0.000303448,6,1
-0.0001295519,-0.000281083,6,1
-0.0001737958,-0.0002535319,6,1
-0.0002311669,-0.0002198223,6,1
-0.0002951827,-0.0001828714,6,1
-0.0003577399,-0.0001496481,6,1
-0.000415111,-0.0001214487,6,1
-0.000464703,-9.503204e-05,6,1
-0.0005027883,-6.456377e-05,6,1
-0.0005246671,-2.761287e-05,6,1
-0.0005316359,8.365628e-06,6,1
-0.0005305015,3.624086e-05,6,1
-0.0005275843,5.455425e-05,6,1
-0.0005219121,6.46023e-05,6,1
-0.0005117019,6.914012e-05,6,1
-0.000489499,6.557468e-05,6,1
-0.0004460655,5.325772e-05,6,1
-0.0003784843,3.494434e-05,6,1
-0.0002950206,1.582063e-05,6,1
-0.0002113949,3.341602e-06,6,1
-0.0001368449,9.106227e-07,6,1
-7.623246e-05,1.144487e-05,6,1
-3.409549e-05,3.299956e-05,6,1
-1.853722e-05,6.184718e-05,6,1
-2.84232e-05,9.361199e-05,6,1
-5.176061e-05,0.0001153287,6,1
-7.590833e-05,0.000118408,6,1
-9.081835e-05,0.000103498,6,1
-8.903562e-05,7.724339e-05,6,1
-7.056019e-05,4.953022e-05,6,1
-4.090223e-05,2.76514e-05,6,1
-8.651231e-06,1.436204e-05,6,1
1.565857e-05,8.527692e-06,6,1
2.76514e-05,9.338019e-06,6,1
3.089271e-05,1.614476e-05,6,1
3.154097e-05,2.81376e-05,6,1
3.575467e-05,4.483033e-05,6,1
4.337174e-05,6.703327e-05,6,1
4.126489e-05,8.972242e-05,6,1
1.857574e-05,0.0001077117,6,1
-1.497178e-05,0.0001214872,6,1
-4.009191e-05,0.0001349386,6,1
-4.219875e-05,0.0001477418,6,1
-1.513384e-05,0.0001611932,6,1
3.251336e-05,0.0001761032,6,1
8.453633e-05,0.0001931201,6,1
0.0001250527,0.0002106232,6,1
0.0001466074,0.0002248849,6,1
0.0001527658,0.0002326641,6,1
0.0001540623,0.0002312055,6,1
0.0001671896,0.000220023,6,1
0.0001957132,0.0002044647,6,1
0.0002282883,0.0001918236,6,1
0.0002504913,0.0001846927,6,1
0.0002538946,0.0001819376,6,1
0.0002477361,0.0001801549,6,1
0.0002577842,0.0001817755,6,1
0.000309321,0.0001880961,6,1
0.0004051016,0.0001983062,6,1
0.0005217887,0.0002078681,6,1
0.0006187038,0.0002086784,6,1
0.0006600305,0.0001976579,6,1
0.0006297242,0.0001765894,6,1
0.0005302161,0.0001488763,6,1
0.0003875985,0.0001187321,6,1
0.000235095,8.583286e-05,6,1
0.0001031738,5.260946e-05,6,1
8.365628e-06,1.695509e-05,6,1
-5.22468e-05,-2.42095e-05,6,1
-8.628052e-05,-7.590833e-05,6,1
-0.0001016767,-0.0001405724,6,1
-0.0001058904,-0.000213988,6,1
-0.0001050801,-0.0002878898,6,1
-9.843541e-05,-0.0003494746,6,1
-8.709085e-05,-0.0003930701,6,1
-8.222889e-05,-0.0004215936,6,1
-0.0001131834,-0.0004441207,6,1
-0.0002094502,-0.0004640547,6,1
-0.0003744326,-0.0004851232,6,1
-0.0005770142,-0.0005089468,6,1
-0.0007684134,-0.0005368221,6,1
-0.0009011448,-0.0005659938,6,1
-0.0009500885,-0.0005954896,6,1
-0.0009157307,-0.0006215822,6,1
-0.000817357,-0.0006384369,6,1
-0.0006841394,-0.0006373025,6,1
-0.0005468701,-0.0006149375,6,1
-0.0004290486,-0.0005726385,6,1
-0.0003384541,-0.0005126743,6,1
-0.0002689281,-0.0004397449,6,1
-0.0002062088,-0.0003608192,6,1
-0.0001394379,-0.0002831898,6,1
-6.618442e-05,-0.000209126,6,1
1.063454e-05,-0.0001410586,6,1
9.344993e-05,-8.044617e-05,6,1
0.0001926339,-2.84232e-05,6,1
0.0003089969,1.403791e-05,6,1
0.0004290873,4.888196e-05,6,1
0.0005392918,8.032264e-05,6,1
0.0006193521,0.0001086841,6,1
0.0006527375,0.0001344524,6,1
0.0006381517,0.0001594105,6,1
0.0005875872,0.0001830721,6,1
0.0005156302,0.0002055991,6,1
0.00043087,0.0002260194,6,1
0.0003370341,0.0002448189,6,1
0.0002466017,0.0002641047,6,1
0.0001918236,0.0002842008,6,1
0.000202844,0.0003073762,6,1
0.000299597,0.0003289309,6,1
0.0004738173,0.0003440029,6,1
0.0006870955,0.0003535648,6,1
0.0008830326,0.0003605336,6,1
0.001002475,0.0003705817,6,1
0.001004744,0.0003871123,6,1
0.0008859497,0.0004070464,6,1
0.0006854748,0.0004232529,6,1
0.000478031,0.00043087,6,1
0.0003360618,0.0004305459,6,1
0.0002981384,0.0004256839,6,1
0.0003493511,0.0004169324,6,1
0.0004394595,0.0004049396,6,1
0.0005059062,0.000391164,6,1
0.0004950479,0.0003757678,6,1
0.0003853296,0.0003550234,6,1
0.0001918236,0.0003218,6,1
-4.511593e-05,0.0002743149,6,1
-0.0002733039,0.0002146748,6,1
-0.000459841,0.0001467694,6,1
-0.0005933828,7.610894e-05,6,1
-0.000675874,1.322759e-05,6,1
-0.0007173628,-3.668853e-05,6,1
-0.000730328,-7.396356e-05,6,1
-0.0007311383,-9.713889e-05,6,1
-0.0007334072,-0.000104756,6,1
-0.0007419967,-9.422172e-05,6,1
-0.0007559343,-6.586029e-05,6,1
-0.0007711684,-2.955766e-05,6,1
-0.000777651,1.558884e-06,6,1
-0.0007656582,1.889987e-05,6,1
-0.0007189835,1.906194e-05,6,1
-0.0006082929,9.824215e-06,6,1
-0.0004099249,3.665733e-06,6,1
-0.0001232314,5.286387e-06,6,1
0.0002070577,1.290346e-05,6,1
0.0005046097,2.133085e-05,6,1
0.0007028158,2.522042e-05,6,1
0.0007660213,1.760335e-05,6,1
0.0007013571,-1.027188e-05,6,1
0.0005533914,-6.002594e-05,6,1
0.0003908399,-0.0001216107,6,1
0.0002801492,-0.0001794681,6,1
0.0002556773,-0.000221443,6,1
0.0003078624,-0.000243808,6,1
0.0003908399,-0.000248832,6,1
0.0004509661,-0.0002472114,6,1
0.0004553419,-0.0002481838,6,1
0.0003945674,-0.0002583939,6,1
0.0002842008,-0.0002825416,6,1
0.0001535762,-0.0003139823,6,1
3.316162e-05,-0.0003394265,6,1
-5.889148e-05,-0.0003514194,6,1
-0.0001188556,-0.0003457471,6,1
-0.0001477033,-0.0003261372,6,1
-0.0001579134,-0.0002969654,6,1
-0.0001702304,-0.0002639041,6,1
-0.0002075054,-0.000231491,6,1
-0.0002843243,-0.0002023193,6,1
-0.0003995528,-0.0001736337,6,1
-0.0005329325,-0.000144624,6,1
-0.0006530228,-0.0001167488,6,1
-0.0007301659,-9.681477e-05,6,1
-0.0007460483,-8.676672e-05,6,1
-0.0007032631,-8.384954e-05,6,1
-0.0006147755,-8.255302e-05,6,1
-0.0005123502,-7.444975e-05,6,1
-0.000427428,-5.354332e-05,6,1
-0.0003750809,-2.323711e-05,6,1
-0.0003559572,8.365628e-06,6,1
-0.000360333,3.445814e-05,6,1
-0.0003650328,5.034055e-05,6,1
-0.0003473677,6.168512e-05,6,1
-0.0002882139,7.270556e-05,6,1
-0.0001888679,8.680524e-05,6,1
-6.942573e-05,0.0001020394,6,1
3.672706e-05,0.0001193804,6,1
0.000110953,0.0001417454,6,1
0.0001637863,0.0001686482,6,1
0.0002261814,0.0001984683,6,1
0.000316938,0.0002263435,6,1
0.0004219564,0.0002516257,6,1
0.0005161164,0.000277232,6,1
0.0005828873,0.0003047831,6,1
0.0006187038,0.0003339549,6,1
0.0006127074,0.0003600474,6,1
0.0005627912,0.0003841952,6,1
0.000483055,0.0004080188,6,1
0.0004054258,0.000428439,6,1
0.0003606957,0.000443187,6,1
0.0003452995,0.0004451317,6,1
0.0003227724,0.0004344354,6,1
0.0002585945,0.0004127187,6,1
0.0001545486,0.0003846814,6,1
3.996837e-05,0.0003537269,6,1
-5.062615e-05,0.0003269861,6,1
-9.632857e-05,0.0003039728,6,1
-8.952183e-05,0.0002809595,6,1
-3.863332e-05,0.0002542187,6,1
3.397195e-05,0.000222616,6,1
0.0001018773,0.0001833962,6,1
0.0001415833,0.0001342904,6,1
0.0001380179,7.659513e-05,6,1
8.518459e-05,1.371378e-05,6,1
-1.20546e-05,-4.997789e-05,6,1
-0.0001300382,-0.0001092938,6,1
-0.0002371633,-0.0001629374,6,1
-0.0003141443,-0.0002107467,6,1
-0.0003626019,-0.0002504527,6,1
-0.0004037664,-0.0002767073,6,1
-0.0004531963,-0.000286107,6,1
-0.0005081365,-0.0002794623,6,1
-0.0005574043,-0.0002579077,6,1
-0.0005904656,-0.000228898,6,1
-0.0006039171,-0.0002018331,6,1
-0.0005977586,-0.0001823853,6,1
-0.0005732867,-0.0001708786,6,1
-0.0005314739,-0.0001647201,6,1
-0.0004786406,-0.0001632615,6,1
-0.0004269418,-0.0001705545,6,1
-0.0003924218,-0.0001869231,6,1
-0.0003805911,-0.0002075054,6,1
-0.0003844807,-0.0002245222,6,1
-0.0003948528,-0.0002326255,6,1
-0.0004061974,-0.0002329496,6,1
-0.0004130042,-0.0002285739,6,1
-0.0004091146,-0.0002209568,6,1
-0.0003885323,-0.0002125294,6,1
-0.0003512573,-0.0002037779,6,1
-0.0003003688,-0.0001977815,6,1
-0.0002446183,-0.0002029675,6,1
-0.0001904885,-0.0002206326,6,1
-0.000142031,-0.0002433218,6,1
-9.551824e-05,-0.0002619593,6,1
-5.176061e-05,-0.0002737901,6,1
-1.821308e-05,-0.0002793003,6,1
-5.247859e-06,-0.0002765452,6,1
-8.327101e-06,-0.0002640662,6,1
-1.010982e-05,-0.0002421874,6,1
6.582909e-06,-0.0002118811,6,1
4.628891e-05,-0.0001726613,6,1
9.247754e-05,-0.0001242038,6,1
0.0001201907,-7.137051e-05,6,1
0.0001182459,-2.161646e-05,6,1
9.328786e-05,1.841368e-05,6,1
6.152305e-05,4.272347e-05,6,1
4.466826e-05,5.293359e-05,6,1
4.936815e-05,5.260946e-05,6,1
7.384002e-05,4.807163e-05,6,1
0.0001101427,4.320967e-05,6,1
0.0001551968,4.094075e-05,6,1
0.0002159713,4.142696e-05,6,1
0.0002991108,4.628891e-05,6,1
0.0003992672,5.439218e-05,6,1
0.0004939134,6.735741e-05,6,1
0.0005566327,8.631905e-05,6,1
0.0005752703,0.0001091703,6,1
0.0005501501,0.0001352628,6,1
0.0004942376,0.0001590864,6,1
0.0004324906,0.000177886,6,1
0.0003848434,0.0001957132,6,1
0.0003626405,0.000210137,6,1
0.0003694472,0.0002192126,6,1
0.0004067223,0.0002232643,6,1
0.0004697657,0.0002255332,6,1
0.0005428572,0.0002310434,6,1
0.000602011,0.0002466017,6,1
0.0006177314,0.0002720459,6,1
0.0005707325,0.0003047831,6,1
0.0004627969,0.0003350894,6,1
0.0003158036,0.0003589129,6,1
0.0001626518,0.0003733368,6,1
3.575467e-05,0.0003804677,6,1
-4.203669e-05,0.0003843572,6,1
-5.678463e-05,0.0003875985,6,1
-9.461558e-06,0.0003882468,6,1
7.90261e-05,0.0003854917,6,1
0.0001736723,0.000373823,6,1
0.0002401191,0.0003482167,6,1
0.0002581083,0.0003099692,6,1
0.0002297469,0.0002613496,6,1
0.0001678379,0.0002064095,6,1
9.361199e-05,0.0001427178,6,1
2.651694e-05,6.78436e-05,6,1
-2.858527e-05,-1.497178e-05,6,1
-8.287715e-05,-0.0001015147,6,1
-0.0001465688,-0.0001865989,6,1
-0.0002170672,-0.0002606628,6,1
-0.0002805968,-0.0003144685,6,1
-0.0003175477,-0.0003439643,6,1
-0.0003104168,-0.0003533641,6,1
-0.0002569353,-0.0003510952,6,1
-0.0001703924,-0.0003476919,6,1
-6.537409e-05,-0.0003499608,6,1
4.628891e-05,-0.0003600088,6,1
0.0001537382,-0.0003771877,6,1
0.0002407673,-0.000395177,6,1
0.000289387,-0.000402794,6,1
0.0002903593,-0.0003925839,6,1
0.0002456293,-0.0003626019,6,1
0.0001718896,-0.0003188442,6,1
9.912221e-05,-0.0002715212,6,1
6.346784e-05,-0.0002287359,6,1
8.84259e-05,-0.0001963229,6,1
0.000160707,-0.0001737958,6,1
0.0002336365,-0.000156941,6,1
0.0002616738,-0.0001397621,6,1
0.0002307193,-0.0001199901,6,1
0.0001623277,-9.600444e-05,6,1
9.426025e-05,-7.60704e-05,6,1
6.78436e-05,-6.958779e-05,6,1
0.0001253768,-7.639453e-05,6,1
0.0002986247,-8.903562e-05,6,1
0.0005762426,-9.956988e-05,6,1
0.0008932427,-0.0001015147,6,1
0.001145741,-8.935975e-05,6,1
0.001231149,-6.764301e-05,6,1
0.001095825,-4.657452e-05,6,1
0.0007668316,-3.166451e-05,6,1
0.0003506476,-1.983374e-05,6,1
-2.210265e-05,-9.785688e-06,6,1
-0.0002551526,2.207145e-06,6,1
-0.0003228959,1.857574e-05,6,1
-0.0002626076,3.915804e-05,6,1
-0.0001421931,6.606088e-05,6,1
-3.911951e-05,9.993253e-05,6,1
-8.165035e-06,0.000135749,6,1
-5.937768e-05,0.0001641104,6,1
-0.0001559686,0.0001816135,6,1
-0.0002441321,0.0001895547,6,1
-0.0002825416,0.000192958,6,1
-0.0002694143,0.0001974959,6,1
-0.0002298704,0.0002065715,6,1
-0.000191623,0.0002206712,6,1
-0.0001789819,0.0002372019,6,1
-0.000208964,0.0002504913,6,1
-0.0002888622,0.0002547049,6,1
-0.0004073319,0.000250005,6,1
-0.0005358497,0.0002388225,6,1
-0.0006361681,0.0002235884,6,1
-0.0006663122,0.0002073819,6,1
-0.0005982448,0.0001970097,6,1
-0.0004491447,0.0001976579,6,1
-0.0002763831,0.0002109473,6,1
-0.0001442999,0.0002303951,6,1
-8.887356e-05,0.0002451431,6,1
-0.0001107524,0.0002511395,6,1
-0.00016942,0.0002496809,6,1
-0.0002105846,0.000244981,6,1
-0.0002000504,0.0002378501,6,1
-0.0001402483,0.0002292607,6,1
-6.326724e-05,0.0002195368,6,1
-5.247859e-06,0.000202844,6,1
1.630683e-05,0.0001710792,6,1
1.072688e-06,0.0001229458,6,1
-4.090223e-05,6.395404e-05,6,1
-0.0001007043,8.203562e-06,6,1
-0.0001674752,-3.312309e-05,6,1
-0.0002329496,-5.354332e-05,6,1
-0.0002969654,-5.516398e-05,6,1
-0.0003626019,-4.43056e-05,6,1
-0.0004288866,-2.89094e-05,6,1
-0.000489499,-1.707863e-05,6,1
-0.0005381186,-1.416145e-05,6,1
-0.0005742591,-2.437157e-05,6,1
-0.0005985689,-4.965376e-05,6,1
-0.0006128307,-8.935975e-05,6,1
-0.0006180168,-0.000142031,6,1
-0.0006165582,-0.0002049123,6,1
-0.0006105618,-0.0002747625,6,1
-0.000606186,-0.0003441264,6,1
-0.0006050515,-0.000400039,6,1
-0.0006076446,-0.0004311555,6,1
-0.0006142893,-0.0004282383,6,1
-0.0006238511,-0.0003898288,6,1
-0.0006340612,-0.0003230579,6,1
-0.0006445955,-0.0002431597,6,1
-0.0006546435,-0.0001622891,6,1
-0.0006565883,-9.422172e-05,6,1
-0.0006455678,-4.462973e-05,6,1
-0.0006194753,-1.562004e-05,6,1
-0.000583983,-7.354709e-06,6,1
-0.0005486528,-1.853722e-05,6,1
-0.0005126743,-4.414354e-05,6,1
-0.0004663236,-7.412562e-05,6,1
-0.0003990665,-9.697683e-05,6,1
-0.0003087962,-0.0001079973,6,1
-0.0001982676,-0.0001071869,6,1
-7.039812e-05,-9.713889e-05,6,1
6.687121e-05,-8.709085e-05,6,1
0.0002023578,-8.222889e-05,6,1
0.0003247172,-8.060823e-05,6,1
0.0004248736,-7.785312e-05,6,1
0.0005010443,-6.764301e-05,6,1
0.000557281,-4.754691e-05,6,1
0.0005981215,-2.712668e-05,6,1
0.000626645,-1.3027e-05,6,1
0.0006447964,-8.651231e-06,6,1
0.0006585719,-9.137427e-06,6,1
0.0006713751,-1.027188e-05,6,1
0.0006785059,-1.043395e-05,6,1
0.0006663511,-1.092015e-05,6,1
0.0006271312,-9.137427e-06,6,1
0.000572191,-3.627206e-06,6,1
0.0005251921,8.365628e-06,6,1
0.0005078511,2.133085e-05,6,1
0.0005295678,3.299956e-05,6,1
0.000579646,4.661304e-05,6,1
0.0006295622,6.703327e-05,6,1
0.0006404206,9.361199e-05,6,1
0.00058937,0.000121001,6,1
0.0004838654,0.0001440143,6,1
0.0003525924,0.0001634622,6,1
0.0002384984,0.0001838824,6,1
0.0001772377,0.0002072198,6,1
0.0001856651,0.0002331503,6,1
0.0002632944,0.0002561635,6,1
0.0003978086,0.000272208,6,1
0.000564736,0.0002754493,6,1
0.0007300428,0.0002670219,6,1
0.0008554814,0.0002482223,6,1
0.0009068561,0.0002248849,6,1
0.0008710398,0.0001997648,6,1
0.0007656972,0.0001765894,6,1
0.0006225934,0.0001582761,6,1
0.0004749518,0.0001479039,6,1
0.0003389789,0.0001438522,6,1
0.0002156472,0.0001433661,6,1
9.896015e-05,0.0001428799,6,1
-1.351319e-05,0.0001393144,6,1
-0.0001162626,0.0001302388,6,1
-0.0001985918,0.0001169494,6,1
-0.0002545043,0.0001007429,6,1
-0.0002848105,8.194328e-05,6,1
-0.0002992343,6.281957e-05,6,1
-0.0003036101,4.515445e-05,6,1
-0.0002987481,2.732727e-05,6,1
-0.0002882139,6.096713e-06,6,1
-0.0002771934,-1.691656e-05,6,1
-0.0002692523,-3.895745e-05,6,1
-0.0002592042,-5.095028e-05,6,1
-0.0002400805,-4.673658e-05,6,1
-0.0002062088,-2.939559e-05,6,1
-0.0001653684,-4.113403e-06,6,1
-0.0001266348,2.01964e-05,6,1
-8.417367e-05,3.478228e-05,6,1
-3.928157e-05,3.60788e-05,6,1
-2.168618e-06,2.635488e-05,6,1
1.501031e-05,1.209313e-05,6,1
4.151929e-06,-4.437533e-06,6,1
-3.522994e-05,-1.950961e-05,6,1
-9.405965e-05,-2.761287e-05,6,1
-0.0001585616,-3.26369e-05,6,1
-0.0002233878,-3.976777e-05,6,1
-0.0002830278,-5.532604e-05,6,1
-0.0003353749,-7.866345e-05,6,1
-0.0003773498,-0.0001071869,6,1
-0.0004063595,-0.0001374932,6,1
-0.0004256453,-0.0001679614,6,1
-0.0004418518,-0.0001974573,6,1
-0.0004604893,-0.0002254946,6,1
-0.0004752372,-0.0002468872,6,1
-0.0004755614,-0.000258718,6,1
-0.0004556273,-0.0002582318,6,1
-0.0004160834,-0.0002460769,6,1
-0.0003616295,-0.0002284118,6,1
-0.0003026377,-0.0002076674,6,1
-0.0002506147,-0.0001828714,6,1
-0.0002136638,-0.0001559686,6,1
-0.0001987538,-0.0001318209,6,1
-0.0002034537,-0.0001165867,6,1
-0.0002172293,-0.0001115627,6,1
-0.0002373254,-0.0001164247,6,1
-0.0002681178,-0.0001256624,6,1
-0.0003079858,-0.0001324691,6,1
-0.0003519055,-0.0001313347,6,1
-0.0003898288,-0.0001227452,6,1
-0.0004139766,-0.0001114006,6,1
-0.0004136524,-0.0001041077,6,1
-0.0003765395,-0.0001044318,6,1
-0.0002993964,-0.0001089697,6,1
-0.0001945401,-0.0001135075,6,1
-8.158062e-05,-0.0001107524,6,1
2.214118e-05,-9.827335e-05,6,1
0.0001219734,-7.396356e-05,6,1
0.0002334744,-3.928157e-05,6,1
0.0003671783,1.002961e-07,6,1
0.0005357263,3.494434e-05,6,1
0.0007540284,5.61749e-05,6,1
0.00102095,6.622294e-05,6,1
0.001311696,7.027458e-05,6,1
0.001584615,7.57848e-05,6,1
0.001793355,8.615699e-05,6,1
0.001892539,0.0001044704,6,1
0.001859316,0.0001255389,6,1
0.001713295,0.0001420695,6,1
0.001510875,0.0001487142,6,1
0.001303431,0.0001483901,6,1
0.001117704,0.0001492004,6,1
0.0009567724,0.0001608691,6,1
0.0008081583,0.0001820997,6,1
0.000656303,0.0002043026,6,1
0.0004898618,0.0002209954,6,1
0.0003073762,0.0002284504,6,1
0.0001222976,0.0002303951,6,1
-4.317115e-05,0.0002328261,6,1
-0.000176875,0.0002407673,6,1
-0.0002778417,0.0002547049,6,1
-0.000353202,0.0002718839,6,1
-0.0004186764,0.0002889007,6,1
-0.0004899852,0.0003038107,6,1
-0.0005745832,0.000316938,6,1
-0.0006640433,0.0003235827,6,1
-0.0007337314,0.0003171001,6,1
-0.0007635514,0.0003015418,6,1
-0.0007523688,0.0002824181,6,1
-0.0007149318,0.0002639427,6,1
-0.0006745775,0.0002470879,6,1
-0.000645892,0.0002305572,6,1
-0.0006267683,0.0002132162,6,1
-0.0006076446,0.0001936063,6,1
-0.0005856037,0.0001762653,6,1
-0.000561456,0.0001633001,6,1
-0.0005403875,0.0001551968,6,1
-0.0005238568,0.0001492004,6,1
-0.0005136467,0.0001430419,6,1
-0.0005110537,0.000130887,6,1
-0.0005202913,0.000105929,6,1
-0.0005397392,6.557468e-05,6,1
-0.0005659938,5.934648e-06,6,1
-0.0005870623,-7.55842e-05,6,1
-0.000586414,-0.0001746061,6,1
-0.000551732,-0.0002812451,6,1
-0.0004836646,-0.0003870737,6,1
-0.0004032803,-0.0004817198,6,1
-0.0003360231,-0.0005577285,6,1
-0.0003000446,-0.0006121824,6,1
-0.0003086341,-0.0006510781,6,1
-0.0003661673,-0.0006763602,6,1
-0.0004642168,-0.0006852738,6,1
-0.0005817142,-0.0006703638,6,1
-0.0006868945,-0.0006313061,6,1
-0.0007445897,-0.0005700454,6,1
-0.0007311383,-0.0004938748,6,1
-0.0006421645,-0.0004149489,6,1
-0.0005001953,-0.0003420196,6,1
-0.0003460712,-0.0002797865,6,1
-0.0002177155,-0.0002308428,6,1
-0.0001421931,-0.000196647,6,1
-0.0001238797,-0.0001700683,6,1
-0.000144462,-0.0001423551,6,1
-0.0001789819,-0.0001128592,6,1
-0.0002159328,-8.709085e-05,6,1
-0.0002585559,-7.526008e-05,6,1
-0.0003117133,-8.384954e-05,6,1
-0.0003794566,-0.0001081593,6,1
-0.000454817,-0.0001361966,6,1
-0.00052175,-0.0001543479,6,1
-0.0005603215,-0.0001553203,6,1
-0.000556594,-0.0001410586,6,1
-0.0005128364,-0.0001183694,6,1
-0.0004481723,-9.568031e-05,6,1
-0.0003775118,-7.33153e-05,6,1
-0.000301017,-4.770897e-05,6,1
-0.0002149604,-1.286493e-05,6,1
-0.0001164247,3.332369e-05,6,1
-3.789272e-06,8.388807e-05,6,1
0.0001261871,0.0001274836,6,1
0.0002679943,0.0001524417,6,1
0.0004117463,0.0001577899,6,1
0.0005384815,0.0001483901,6,1
0.0006345862,0.000128294,6,1
0.0006953608,0.0001031738,6,1
0.0007344186,7.983644e-05,6,1
0.0007843347,6.427817e-05,6,1
0.0008710398,6.281957e-05,6,1
0.0009974508,7.935024e-05,6,1
0.001152061,0.0001146805,6,1
0.001319961,0.0001654069,6,1
0.001486565,0.0002234263,6,1
0.001631614,0.0002778803,6,1
0.001730798,0.0003237448,6,1
0.001779418,0.0003585888,6,1
0.001805672,0.0003864641,6,1
0.001838734,0.0004075326,6,1
0.001878926,0.0004213082,6,1
0.001899833,0.0004255218,6,1
0.001874874,0.0004195254,6,1
0.001789304,0.0004042913,6,1
0.001639231,0.000381278,6,1
0.001424818,0.0003576164,6,1
0.001156761,0.0003394651,6,1
0.0008592089,0.000329255,6,1
0.0005710566,0.0003256896,6,1
0.0003308757,0.0003253654,6,1
0.0001595726,0.0003264999,6,1
5.244739e-05,0.0003273102,6,1
-6.058186e-06,0.000324393,6,1
-2.826114e-05,0.0003177483,6,1
-3.004385e-05,0.0003091589,6,1
-3.555408e-05,0.0003023522,6,1
-7.23429e-05,0.0002947351,6,1
-0.0001504584,0.0002842008,6,1
-0.000261311,0.0002684805,6,1
-0.0003810773,0.0002427121,6,1
-0.0004878783,0.0002106232,6,1
-0.0005796073,0.0001757791,6,1
-0.0006695535,0.0001409351,6,1
-0.0007646859,0.0001088461,6,1
-0.0008522011,7.740546e-05,6,1
-0.0009111929,4.564065e-05,6,1
-0.0009322613,1.274139e-05,6,1
-0.0009238339,-1.886135e-05,6,1
-0.0009030896,-4.592625e-05,6,1
-0.0008873693,-6.553616e-05,6,1
-0.0008886658,-7.866345e-05,6,1
-0.0009073032,-9.098041e-05,6,1
-0.0009342061,-0.0001065387,6,1
-0.0009591642,-0.0001264727,6,1
-0.0009750465,-0.0001483515,6,1
-0.0009784499,-0.0001708786,6,1
-0.0009659709,-0.0001924333,6,1
-0.0009397164,-0.0002113949,6,1
-0.0009058447,-0.0002279256,6,1
-0.0008659766,-0.0002418632,6,1
-0.0008136295,-0.0002548284,6,1
-0.0007483172,-0.0002664971,6,1
-0.000680574,-0.0002809209,6,1
-0.000623689,-0.0003005308,6,1
-0.0005843072,-0.0003240303,6,1
-0.00056648,-0.000350447,6,1
-0.0005629146,-0.0003794566,6,1
-0.0005653456,-0.0004065215,6,1
-0.0005703696,-0.0004256453,6,1
-0.0005770142,-0.0004332623,6,1
-0.0005800935,-0.0004280762,6,1
-0.0005750695,-0.0004079801,6,1
-0.0005530285,-0.0003728119,6,1
-0.000507002,-0.0003271096,6,1
-0.0004271038,-0.0002814071,6,1
-0.0003078238,-0.0002449425,6,1
-0.0001548341,-0.0002196603,6,1
1.695509e-05,-0.0002042641,6,1
0.000187772,-0.0001935677,6,1
0.0003337929,-0.0001822232,6,1
0.0004399457,-0.0001660166,6,1
0.0005143337,-0.0001425172,6,1
0.0005798081,-0.0001131834,6,1
0.0006537099,-8.07703e-05,6,1
0.0007279359,-5.095028e-05,6,1
0.000775259,-2.566809e-05,6,1
0.0007736384,-3.789272e-06,6,1
0.0007201568,1.565857e-05,6,1
0.0006332897,3.575467e-05,6,1
0.0005357263,5.795762e-05,6,1
0.0004443214,7.886404e-05,6,1
0.0003673404,9.604298e-05,6,1
0.0003096451,0.0001104668,6,1
0.0002744769,0.0001205148,6,1
0.0002678322,0.0001266733,6,1
0.0002856594,0.000130725,6,1
0.0003172622,0.0001349386,6,1
0.0003454615,0.0001394765,6,1
0.0003569682,0.0001443384,6,1
0.000349027,0.00015309,6,1
0.0003302274,0.0001639484,6,1
0.0003075383,0.0001731861,6,1
0.0002764217,0.0001796687,6,1
0.0002318537,0.0001850168,6,1
0.0001786963,0.0001905271,6,1
0.0001338042,0.0001970097,6,1
0.0001112771,0.0002030061,6,1
0.0001070634,0.0002068957,6,1
0.0001031738,0.0002072198,6,1
8.599492e-05,0.0002080301,6,1
5.504044e-05,0.0002093267,6,1
2.327564e-05,0.0002104611,6,1
-7.100305e-07,0.000207706,6,1
-1.805102e-05,0.000200251,6,1
-3.587821e-05,0.0001890685,6,1
-5.872941e-05,0.0001773998,6,1
-8.773911e-05,0.000168162,6,1
-0.0001225832,0.0001597346,6,1
-0.0001648822,0.0001514693,6,1
-0.0002154466,0.0001443384,6,1
-0.0002650386,0.0001362352,6,1
-0.0003091203,0.0001281319,6,1
-0.0003439643,0.0001224596,6,1
-0.0003666535,0.0001169494,6,1
-0.0003728119,0.0001070634,6,1
-0.0003671397,8.956036e-05,6,1
-0.000358064,6.136099e-05,6,1
-0.0003538503,3.105477e-05,6,1
-0.0003579019,9.66215e-06,6,1
-0.0003647087,-1.034161e-06,6,1
-0.0003642225,-8.975362e-06,6,1
-0.0003544986,-1.67545e-05,6,1
-0.0003446126,-2.113026e-05,6,1
-0.0003413713,-2.129233e-05,6,1
-0.0003457471,-1.934754e-05,6,1
-0.0003557951,-1.869928e-05,6,1
-0.0003651949,-2.534396e-05,6,1
-0.0003700569,-4.05781e-05,6,1
-0.0003632501,-6.456377e-05,6,1
-0.0003412093,-9.568031e-05,6,1
-0.0003105789,-0.0001349001,6,1
-0.0002846485,-0.000179306,6,1
-0.000276059,-0.0002227395,6,1
-0.0002841623,-0.0002564491,6,1
-0.0002945344,-0.0002770314,6,1
-0.0002930758,-0.0002831898,6,1
-0.0002742763,-0.0002780038,6,1
-0.0002267911,-0.0002648765,6,1
-0.0001253383,-0.0002481838,6,1
5.115087e-05,-0.000231491,6,1
0.0002966799,-0.000221605,6,1
0.0005733255,-0.0002222533,6,1
0.0008274441,-0.0002293842,6,1
0.001006202,-0.0002324634,6,1
0.001081239,-0.0002254946,6,1
0.001053039,-0.000208964,6,1
0.0009504518,-0.0001930815,6,1
0.0008203132,-0.0001820611,6,1
0.000693416,-0.0001770371,6,1
0.0005773771,-0.0001749302,6,1
0.0004687933,-0.0001715269,6,1
0.0003692851,-0.0001702304,6,1
0.0002809595,-0.0001737958,6,1
0.0002036544,-0.0001804405,6,1
0.0001355869,-0.0001801163,6,1
7.416415e-05,-0.0001661787,6,1
1.517237e-05,-0.0001386276,6,1
-4.689865e-05,-0.0001010285,6,1
-0.0001175591,-5.500191e-05,6,1
-0.0001959987,-4.275467e-06,6,1
-0.0002592042,4.645098e-05,6,1
-0.0002621213,9.085688e-05,6,1
-0.0001525652,0.0001247285,6,1
9.798775e-05,0.0001508211,6,1
0.0004673347,0.0001717275,6,1
0.0008741189,0.0001905271,6,1
0.001205867,0.0002107852,6,1
0.001371012,0.0002328261,6,1
0.001342488,0.0002561635,6,1
0.001160651,0.0002795009,6,1
0.0009104217,0.0002963557,6,1
0.0006739681,0.000304297,6,1
0.0004952099,0.0003015418,6,1
0.0003757678,0.0002903593,6,1
0.0002942489,0.0002739907,6,1
0.000217592,0.0002564877,6,1
0.0001211631,0.0002427121,6,1
-2.492749e-06,0.0002341226,6,1
-0.0001368449,0.0002297469,6,1
-0.0002525595,0.0002284504,6,1
-0.0003300267,0.0002260194,6,1
-0.0003622777,0.0002192126,6,1
-0.0003569296,0.0002114335,6,1
-0.0003347266,0.0002093267,6,1
-0.0003220855,0.0002164575,6,1
-0.0003339163,0.0002292607,6,1
-0.0003724878,0.0002342847,6,1
-0.0004237005,0.0002224539,6,1
-0.0004640547,0.0001961994,6,1
-0.0004736166,0.0001610312,6,1
-0.0004504412,0.0001219734,6,1
-0.0004084663,7.999851e-05,6,1
-0.0003737844,3.575467e-05,6,1
-0.0003687603,-6.220252e-06,6,1
-0.0004032803,-4.398147e-05,6,1
-0.0004773441,-7.785312e-05,6,1
-0.0005773384,-0.0001083214,6,1
-0.0006789533,-0.0001306864,6,1
-0.0007535033,-0.0001353863,6,1
-0.0007828371,-0.0001201522,6,1
-0.0007617687,-9.146661e-05,6,1
-0.0006993735,-6.197072e-05,6,1
-0.0006131548,-4.38194e-05,6,1
-0.0005254775,-4.203669e-05,6,1
-0.0004540067,-5.759496e-05,6,1
-0.0004079801,-8.82253e-05,6,1
-0.0003916115,-0.000129714,6,1
-0.0004008493,-0.0001757406,6,1
-0.0004259694,-0.0002172293,6,1
-0.0004478482,-0.000248832,6,1
-0.0004455793,-0.0002669833,6,1
-0.0004016596,-0.0002697385,6,1
-0.0003112272,-0.0002543422,6,1
-0.0001804405,-0.0002159328,6,1
-2.356124e-05,-0.0001546721,6,1
0.0001316974,-8.012204e-05,6,1
0.0002441707,-1.010982e-05,6,1
0.0002807975,3.786152e-05,6,1
0.0002337985,5.714729e-05,6,1
0.0001363972,5.034055e-05,6,1
6.46023e-05,2.846173e-05,6,1
0.0001004187,6.258778e-06,6,1
0.0002613496,-1.010982e-05,6,1
0.0004900239,-2.275091e-05,6,1
0.0006866092,-3.377136e-05,6,1
0.0007642386,-4.835724e-05,6,1
0.0006828817,-7.33153e-05,6,1
0.0004649037,-0.00010978,6,1
0.0001741585,-0.0001486757,6,1
-0.0001050801,-0.0001838438,6,1
-0.0002971275,-0.0002052365,6,1
-0.0003587123,-0.0002026434,6,1
-0.0002801106,-0.0001754164,6,1
-8.725291e-05,-0.0001279313,6,1
0.0001519555,-6.974985e-05,6,1
0.0003598854,-7.030578e-06,6,1
0.0004895377,5.439218e-05,6,1
0.0005355643,0.0001069013,6,1
0.0005235714,0.0001441764,6,1
0.000480462,0.0001598967,6,1
0.0004269804,0.0001483901,6,1
0.000378685,0.0001141943,6,1
0.0003336308,6.281957e-05,6,1
0.0002853353,-6.220252e-06,6,1
0.0002281262,-9.260107e-05,6,1
0.0001668655,-0.0001877334,6,1
0.0001140322,-0.0002775176,6,1
7.319176e-05,-0.0003463953,6,1
3.850978e-05,-0.0003856151,6,1
3.827799e-06,-0.000392746,6,1
-2.874733e-05,-0.0003674638,6,1
-4.770897e-05,-0.0003102548,6,1
-4.090223e-05,-0.0002287359,6,1
-1.25408e-05,-0.0001329553,6,1
1.582063e-05,-3.296103e-05,6,1
1.906194e-05,6.298164e-05,6,1
-1.821308e-05,0.0001514693,6,1
-9.19528e-05,0.000232502,6,1
-0.0001778474,0.0003038107,6,1
-0.0002519113,0.0003629646,6,1
-0.0002990722,0.0004057499,6,1
-0.0003203028,0.0004310321,6,1
-0.0003190063,0.0004367043,6,1
-0.0002921034,0.0004226047,6,1
-0.0002329496,0.0003982949,6,1
-0.0001408965,0.000373823,6,1
-3.393342e-05,0.0003606957,6,1
5.309566e-05,0.0003605336,6,1
8.097089e-05,0.0003668542,6,1
2.748934e-05,0.0003712299,6,1
-9.762509e-05,0.0003666921,6,1
-0.0002575835,0.0003504856,6,1
-0.0004036044,0.0003229345,6,1
-0.0004946851,0.0002851732,6,1
-0.0005164018,0.0002430362,6,1
-0.0004865818,0.0002062474,6,1
-0.0004420138,0.0001806411,6,1
-0.0004155972,0.0001633001,6,1
-0.0004194868,0.0001513072,6,1
-0.0004476861,0.0001427178,6,1
-0.0004867439,0.0001336421,6,1
-0.0005227224,0.0001211631,6,1
-0.0005449253,0.0001043083,6,1
-0.0005509217,8.583286e-05,6,1
-0.0005538389,7.059871e-05,6,1
-0.0005745832,6.03886e-05,6,1
-0.000621096,5.56887e-05,6,1
-0.0006813843,4.888196e-05,6,1
-0.0007201179,2.748934e-05,6,1
-0.0006943495,-1.270286e-05,6,1
-0.0005758798,-6.407757e-05,6,1
-0.000360333,-0.0001185315,6,1
-7.153257e-05,-0.0001707166,6,1
0.0002488706,-0.0002162569,6,1
0.0005550121,-0.0002509389,6,1
0.0008036205,-0.0002758969,6,1
0.0009692514,-0.0002927517,6,1
0.001055956,-0.0003037722,6,1
0.001095662,-0.0003126857,6,1
0.001128238,-0.0003196545,6,1
0.001177344,-0.0003225718,6,1
0.001234877,-0.0003188442,6,1
0.001277824,-0.0003071755,6,1
0.001282848,-0.0002891863,6,1
0.001242332,-0.0002699005,6,1
0.001151575,-0.0002543422,6,1
0.001010416,-0.0002449425,6,1
0.0008329543,-0.0002449425,6,1
0.0006483617,-0.000246239,6,1
0.0004909963,-0.0002429977,6,1
0.0003756057,-0.0002293842,6,1
0.0002937627,-0.0002026434,6,1
0.0002258573,-0.0001681235,6,1
0.0001563313,-0.0001310105,6,1
8.615699e-05,-9.568031e-05,6,1
3.915804e-05,-6.342931e-05,6,1
4.175109e-05,-3.425755e-05,6,1
0.0001056048,-6.382317e-06,6,1
0.0002208333,1.64689e-05,6,1
0.0003576164,3.267542e-05,6,1
0.0004668485,4.320967e-05,6,1
0.0004981271,5.001642e-05,6,1
0.0004193634,6.022653e-05,6,1
0.0002346088,7.886404e-05,6,1
-9.137427e-06,0.0001051186,6,1
-0.0002410529,0.0001346145,6,1
-0.0004079801,0.0001602208,6,1
-0.0004971161,0.0001749688,6,1
-0.0005309877,0.0001752929,6,1
-0.0005446012,0.0001652449,6,1
-0.0005606457,0.0001485521,6,1
-0.000574097,0.0001362352,6,1
-0.0005561078,0.0001401247,6,1
-0.0004800992,0.0001633001,6,1
-0.0003407231,0.0001992786,6,1
-0.0001618029,0.0002401191,6,1
1.419998e-05,0.0002764217,6,1
0.0001470936,0.0002997591,6,1
0.000207706,0.0003008936,6,1
0.0001801549,0.0002814457,6,1
7.092284e-05,0.0002491947,6,1
-9.308726e-05,0.000210137,6,1
-0.0002639041,0.0001692965,6,1
-0.0003948528,0.0001331559,6,1
-0.0004637306,0.0001026876,6,1
-0.0004784786,7.935024e-05,6,1
-0.0004564377,6.525056e-05,6,1
-0.0004146248,6.152305e-05,6,1
-0.0003728119,6.816773e-05,6,1
-0.0003507711,8.161915e-05,6,1
-0.0003595226,9.588091e-05,6,1
-0.000395339,0.0001073875,6,1
-0.0004426621,0.0001132219,6,1
-0.0004901472,0.000113546,6,1
-0.000539253,0.0001031738,6,1
-0.0005930586,8.259155e-05,6,1
-0.0006501057,5.633696e-05,6,1
-0.000698077,2.376183e-05,6,1
-0.0007222248,-2.080613e-05,6,1
-0.0007121767,-8.060823e-05,6,1
-0.0006635571,-0.0001489998,6,1
-0.0005799314,-0.0002152845,6,1
-0.000479613,-0.0002700626,6,1
-0.0003893426,-0.0003113892,6,1
-0.0003287302,-0.0003412093,6,1
-0.0002992343,-0.0003632501,6,1
-0.0002856209,-0.0003825359,6,1
-0.0002664971,-0.000402794,6,1
-0.0002182017,-0.0004245108,6,1
-0.0001152902,-0.0004395829,6,1
4.580272e-05,-0.0004394208,6,1
0.0002402811,-0.0004204592,6,1
0.000426008,-0.0003812394,6,1
0.0005764047,-0.0003284061,6,1
0.000673644,-0.0002707109,6,1
0.0007054088,-0.0002157707,6,1
0.0006721854,-0.0001655305,6,1
0.0005934216,-0.0001238797,6,1
0.000505258,-9.308726e-05,6,1
0.0004384871,-7.218083e-05,6,1
0.0003932708,-6.099833e-05,6,1
0.0003534027,-5.808115e-05,6,1
0.000304297,-6.0188e-05,6,1
0.0002551911,-6.035007e-05,6,1
0.0002310434,-5.22468e-05,6,1
0.0002448189,-3.360929e-05,6,1
0.0002916559,-8.651231e-06,6,1
0.0003551855,1.727922e-05,6,1
0.0004174185,4.126489e-05,6,1
0.0004640934,6.557468e-05,6,1
0.0004908342,9.393612e-05,6,1
0.000502827,0.0001231079,6,1
0.0005065545,0.0001466074,6,1
0.0005034753,0.0001637863,6,1
0.0004867825,0.0001777239,6,1
0.0004559901,0.0001926339,6,1
0.0004141773,0.0002049509,6,1
0.0003644232,0.0002132162,6,1
0.0003057555,0.000217754,6,1
0.0002316917,0.000217592,6,1
0.000145797,0.0002153231,6,1
5.471631e-05,0.0002166196,6,1
-3.441962e-05,0.0002208333,6,1
-0.0001170729,0.0002258573,6,1
-0.000184168,0.0002290986,6,1
-0.0002266291,0.0002268297,6,1
-0.0002447804,0.0002172679,6,1
-0.0002504527,0.0001974959,6,1
-0.0002593663,0.000165569,6,1
-0.0002728177,0.0001200286,6,1
-0.000278652,6.589881e-05,6,1
-0.0002673075,7.393236e-06,6,1
-0.0002404046,-5.516398e-05,6,1
-0.0002123673,-0.0001229073,6,1
-0.0002078295,-0.0001872472,6,1
-0.0002404046,-0.0002334358,6,1
-0.0002979378,-0.0002470493,6,1
-0.000348016,-0.0002237119,6,1
-0.0003656811,-0.0001645581,6,1
-0.0003472056,-7.817725e-05,6,1
-0.0003071755,2.035846e-05,6,1
-0.0002652006,0.0001138702,6,1
-0.0002340841,0.000192958,6,1
-0.000219012,0.0002521119,6,1
-0.0002128535,0.0002908455,6,1
-0.0002060468,0.0003140208,6,1
-0.0001919471,0.0003281205,6,1
-0.0001773612,0.000339141,6,1
-0.0001679614,0.0003474063,6,1
-0.0001666649,0.000346596,6,1
-0.0001770371,0.0003323342,6,1
-0.0001974573,0.0003023522,6,1
-0.0002097743,0.0002632944,6,1
-0.0001814128,0.0002222919,6,1
-9.600444e-05,0.0001843686,6,1
3.624086e-05,0.000150659,6,1
0.0001861513,0.0001200286,6,1
0.0003161277,8.923623e-05,6,1
0.000391164,5.61749e-05,6,1
0.0003927847,2.035846e-05,6,1
0.0003245551,-1.724069e-05,6,1
0.0002104611,-5.710876e-05,6,1
7.951231e-05,-0.0001008664,6,1
-4.608832e-05,-0.0001501342,6,1
-0.0001582375,-0.0002034537,6,1
-0.0002655248,-0.0002559629,6,1
-0.0003776739,-0.0003063652,6,1
-0.0004937127,-0.0003548227,6,1
-0.0006068342,-0.0004010113,6,1
-0.0007074767,-0.0004450931,6,1
-0.0007844578,-0.0004860956,6,1
-0.0008356704,-0.0005232086,6,1
-0.0008654904,-0.000554001,6,1
-0.0008747282,-0.0005752315,6,1
-0.0008651663,-0.0005852795,6,1
-0.0008330774,-0.000583983,6,1
-0.0007748959,-0.0005758798,6,1
-0.0006867325,-0.0005617801,6,1
-0.0005622663,-0.0005382806,6,1
-0.0004071698,-0.0005032745,6,1
-0.0002272773,-0.0004512515,6,1
-2.712668e-05,-0.0003807532,6,1
0.0001783722,-0.0002958309,6,1
0.000376416,-0.0002060468,6,1
0.0005752703,-0.0001216107,6,1
0.0007924379,-5.192267e-05,6,1
0.001035536,2.531276e-06,6,1
0.001281066,4.645098e-05,6,1
0.001483648,8.291568e-05,6,1
0.001593852,0.0001163011,6,1
0.001587856,0.000145797,6,1
0.001478299,0.0001702689,6,1
0.001314289,0.0001918236,6,1
0.00115984,0.0002112714,6,1
0.001052877,0.0002287745,6,1
0.0009815684,0.0002461155,6,1
0.000916256,0.0002649151,6,1
0.0008527263,0.0002864697,6,1
0.000817234,0.000311914,6,1
0.0008417058,0.0003376824,6,1
0.0009203076,0.0003584268,6,1
0.001001502,0.0003694472,6,1
0.001028243,0.0003705817,6,1
0.0009765443,0.0003647473,6,1
0.0008561297,0.0003584268,6,1
0.0006867713,0.0003563199,6,1
0.0004874308,0.0003576164,6,1
0.0002733424,0.0003595612,6,1
6.930219e-05,0.0003644232,6,1
-9.486997e-05,0.0003705817,6,1
-0.0002005366,0.000376416,6,1
-0.0002554767,0.0003783608,6,1
-0.0002823795,0.0003744712,6,1
-0.000305879,0.0003660439,6,1
-0.0003491504,0.000351458,6,1
-0.0004194868,0.0003294171,6,1
-0.0005081365,0.0002999212,6,1
-0.0005993792,0.0002650771,6,1
-0.0006813843,0.0002328261,6,1
-0.000750424,0.0002119197,6,1
-0.000812333,0.0002034923,6,1
-0.000876673,0.0002025199,6,1
-0.0009410129,0.0002033302,6,1
-0.0009868774,0.0001997648,6,1
-0.0009888222,0.0001874478,6,1
-0.0009233478,0.0001665414,6,1
-0.0007760304,0.0001409351,6,1
-0.0005551354,0.0001166253,6,1
-0.0002943724,9.814982e-05,6,1
-3.587821e-05,8.405014e-05,6,1
0.0001843686,7.011252e-05,6,1
0.0003302274,5.131294e-05,6,1
0.0003715541,2.927205e-05,6,1
0.0002960316,8.689758e-06,6,1
0.0001219734,-3.789272e-06,6,1
-0.0001105903,-3.465141e-06,6,1
-0.0003549848,5.124321e-06,6,1
-0.000573935,1.452411e-05,6,1
-0.0007379451,1.565857e-05,6,1
-0.0008180053,5.772582e-06,6,1
-0.0007935334,-1.399939e-05,6,1
-0.000665826,-3.717473e-05,6,1
-0.0004706994,-5.840528e-05,6,1
-0.000266011,-7.671866e-05,6,1
-0.0001028112,-9.146661e-05,6,1
-5.247859e-06,-0.0001052422,6,1
2.878586e-05,-0.0001229073,6,1
2.214118e-05,-0.0001496481,6,1
-1.196227e-06,-0.0001861127,6,1
-2.226472e-05,-0.0002344082,6,1
-4.203669e-05,-0.0002917793,6,1
-7.396356e-05,-0.0003544986,6,1
-0.0001284175,-0.0004190006,6,1
-0.0002013469,-0.0004813957,6,1
-0.0002807589,-0.0005394151,6,1
-0.0003546606,-0.0005880346,6,1
-0.000410249,-0.0006194753,6,1
-0.0004410415,-0.0006306578,6,1
-0.0004481723,-0.0006188271,6,1
-0.0004392588,-0.0005834968,6,1
-0.000420135,-0.000529205,6,1
-0.0003980942,-0.0004627582,6,1
-0.0003794566,-0.000397608,6,1
-0.0003645466,-0.0003408851,6,1
-0.0003441264,-0.0002987481,6,1
-0.0003110651,-0.0002702246,6,1
-0.0002647144,-0.0002439701,6,1
-0.000206695,-0.0002107467,6,1
-0.0001363587,-0.0001671511,6,1
-5.532604e-05,-0.0001203142,6,1
2.522042e-05,-7.623246e-05,6,1
8.291568e-05,-4.284701e-05,6,1
9.118101e-05,-2.242678e-05,6,1
4.418206e-05,-1.399939e-05,6,1
-4.074016e-05,-1.25408e-05,6,1
-0.0001300382,-1.529591e-05,6,1
-0.0001945401,-1.432352e-05,6,1
-0.000213988,-2.330684e-06,6,1
-0.0001893541,2.181705e-05,6,1
-0.0001417068,5.52025e-05,6,1
-9.568031e-05,8.729144e-05,6,1
-6.002594e-05,0.0001138702,6,1
-2.664048e-05,0.0001396385,6,1
2.359977e-05,0.0001699448,6,1
0.0001116012,0.0002078681,6,1
0.0002391467,0.0002495189,6,1
0.0003743092,0.0002890628,6,1
0.000467983,0.0003205035,6,1
0.0004866205,0.0003407616,6,1
0.0004375147,0.0003487029,6,1
0.0003559958,0.0003482167,6,1
0.0002861456,0.000349027,6,1
0.0002568118,0.0003555096,6,1
0.0002699391,0.0003691231,6,1
0.0003067279,0.0003877606,6,1
0.0003495132,0.0004099636,6,1
0.0003976466,0.0004298976,6,1
0.0004640934,0.0004422146,6,1
0.0005576051,0.0004444835,6,1
0.0006676476,0.0004430249,6,1
0.0007669937,0.0004449697,6,1
0.0008310095,0.0004498317,6,1
0.0008462437,0.0004548557,6,1
0.0008113996,0.0004551798,6,1
0.0007347427,0.0004454559,6,1
0.0006357207,0.0004167703,6,1
0.0005381573,0.0003616681,6,1
0.000463121,0.0002757735,6,1
0.0004149876,0.000163138,6,1
0.0003819262,2.943412e-05,6,1
0.0003556717,-0.000117235,6,1
0.0003397893,-0.0002682799,6,1
0.0003448133,-0.000407656,6,1
0.0003725265,-0.0005204534,6,1
0.0004164462,-0.0005935449,6,1
0.0004595556,-0.0006167202,6,1
0.000473007,-0.0005877105,6,1
0.0004313562,-0.0005117019,6,1
0.0003315239,-0.0004037664,6,1
0.0001830721,-0.0002891863,6,1
4.962256e-06,-0.0001959987,6,1
-0.0001723372,-0.0001392759,6,1
-0.0003191683,-0.0001211246,6,1
-0.0004144627,-0.0001287416,6,1
-0.0004549791,-0.0001485136,6,1
-0.0004632444,-0.0001699062,6,1
-0.0004729683,-0.0001859507,6,1
-0.0005065158,-0.0001922712,6,1
-0.000551732,-0.0001857886,6,1
-0.000581552,-0.0001689338,6,1
-0.0005802555,-0.0001485136,6,1
-0.0005554595,-0.0001313347,6,1
-0.0005173742,-0.0001293899,6,1
-0.0004703753,-0.0001447861,6,1
-0.0004083043,-0.0001712027,6,1
-0.0003250027,-0.0001935677,6,1
-0.0002167431,-0.0001987538,6,1
-8.206682e-05,-0.0001804405,6,1
6.444023e-05,-0.0001480274,6,1
0.0001950649,-0.0001114006,6,1
0.0002824181,-8.433573e-05,6,1
0.0003133726,-7.153257e-05,6,1
0.000287118,-7.153257e-05,6,1
0.0002205092,-7.769106e-05,6,1
0.0001375317,-7.914964e-05,6,1
5.763349e-05,-7.201877e-05,6,1
-7.678839e-06,-5.856735e-05,6,1
-6.051213e-05,-4.317115e-05,6,1
-0.0001057284,-2.939559e-05,6,1
-0.000144462,-1.707863e-05,6,1
-0.0001771992,-2.978945e-06,6,1
-0.0002008607,1.22552e-05,6,1
-0.0002076674,2.716521e-05,6,1
-0.0001890299,3.98063e-05,6,1
-0.0001541859,4.483033e-05,6,1
-0.000122259,3.867184e-05,6,1
-0.0001078352,2.667901e-05,6,1
-0.0001071869,1.744129e-05,6,1
-0.0001076731,1.841368e-05,6,1
-9.827335e-05,3.364782e-05,6,1
-8.07703e-05,6.444023e-05,6,1
-7.250496e-05,0.0001078737,6,1
-9.600444e-05,0.0001603829,6,1
-0.0001605064,0.0002156472,6,1
-0.0002527216,0.0002645909,6,1
-0.00033813,0.0002987867,6,1
-0.0003901529,0.0003145071,6,1
-0.0004073319,0.0003179104,6,1
-0.0004042526,0.0003154794,6,1
-0.0003980942,0.0003086727,6,1
-0.0004039285,0.0002979764,6,1
-0.000430021,0.0002816078,6,1
-0.0004666478,0.0002603772,6,1
-0.0004859335,0.0002310434,6,1
-0.0004637306,0.0001919856,6,1
-0.000397608,0.0001464453,6,1
-0.0002982619,0.0001004187,6,1
-0.0001634236,6.119892e-05,6,1
1.452411e-05,3.98063e-05,6,1
0.0002294227,4.094075e-05,6,1
0.0004647417,6.395404e-05,6,1
0.0006998986,0.0001030118,6,1
0.0009076665,0.0001459591,6,1
0.001053201,0.0001806411,6,1
0.001112679,0.0001987924,6,1
0.001088532,0.0001973338,6,1
0.001010254,0.0001835583,6,1
0.0009089631,0.0001689724,6,1
0.0008068618,0.0001573037,6,1
0.0007102708,0.0001477418,6,1
0.0006114109,0.0001354248,6,1
0.000495372,0.0001174356,6,1
0.0003561579,9.26396e-05,6,1
0.0001991165,6.751948e-05,6,1
3.478228e-05,5.098881e-05,6,1
-0.0001193418,4.888196e-05,6,1
-0.000251263,5.504044e-05,6,1
-0.0003541745,5.747142e-05,6,1
-0.0004272659,4.790957e-05,6,1
-0.000477182,2.619281e-05,6,1
-0.0005146191,-1.520357e-06,6,1
-0.0005420081,-2.777494e-05,6,1
-0.000554163,-4.560212e-05,6,1
-0.0005455735,-5.2733e-05,6,1
-0.0005157535,-5.467778e-05,6,1
-0.0004659995,-5.889148e-05,6,1
-0.0004024699,-6.796714e-05,6,1
-0.0003347266,-8.190475e-05,6,1
-0.0002705488,-9.778715e-05,6,1
-0.0002086398,-0.0001131834,6,1
-0.000144624,-0.0001274451,6,1
-8.433573e-05,-0.0001404103,6,1
-4.05781e-05,-0.0001515928,6,1
-2.210265e-05,-0.000161965,6,1
-2.809907e-05,-0.0001729855,6,1
-5.2733e-05,-0.0001859507,6,1
-0.0001010285,-0.0001976194,6,1
-0.0001853024,-0.0002071812,6,1
-0.0003013411,-0.0002128535,6,1
-0.0004245108,-0.0002135018,6,1
-0.0005138087,-0.0002092881,6,1
-0.0005415219,-0.0001982676,6,1
-0.0005086227,-0.0001778474,6,1
-0.0004261314,-0.0001538618,6,1
-0.0003003688,-0.0001352242,6,1
-0.0001415448,-0.0001256624,6,1
2.81376e-05,-0.0001203142,6,1
0.0001790204,-0.0001156143,6,1
0.0002877662,-0.0001120489,6,1
0.0003464339,-0.0001102662,6,1
0.0003616681,-0.0001099421,6,1
0.0003478926,-0.0001079973,6,1
0.000319369,-9.956988e-05,6,1
0.0002889007,-8.676672e-05,6,1
0.0002629703,-7.477388e-05,6,1
0.0002487085,-6.845333e-05,6,1
0.0002454672,-6.731888e-05,6,1
0.0002446569,-6.877746e-05,6,1
0.0002305572,-6.618442e-05,6,1
0.0001966855,-5.402952e-05,6,1
0.0001504969,-3.198864e-05,6,1
0.0001091703,-5.247859e-06,6,1
9.134307e-05,2.76514e-05,6,1
0.000111115,6.41161e-05,6,1
0.0001717275,9.426025e-05,6,1
0.0002626462,0.0001127357,6,1
0.0003602095,0.0001198666,6,1
0.0004329769,0.0001211631,6,1
0.0004634451,0.0001248906,6,1
0.0004430249,0.0001380179,6,1
0.0003726885,0.0001603829,6,1
0.0002654013,0.0001850168,6,1
0.0001355869,0.0002025199,6,1
6.90704e-06,0.0002081922,6,1
-0.0001013526,0.0001971717,6,1
-0.0001754164,0.0001678379,6,1
-0.0002117191,0.0001255389,6,1
-0.0002212809,8.064677e-05,6,1
-0.0002300324,4.628891e-05,6,1
-0.0002629317,3.445814e-05,6,1
-0.0003227338,4.936815e-05,6,1
-0.000395177,8.275361e-05,6,1
-0.0004557894,0.0001244044,6,1
-0.0004883645,0.0001615174,6,1
-0.0004802613,0.0001872858,6,1
-0.0004235384,0.0002018716,6,1
-0.0003230579,0.0002093267,6,1
-0.0002010227,0.0002161334,6,1
-7.704279e-05,0.0002284504,6,1
4.288554e-05,0.0002477361,6,1
0.000168162,0.0002678322,6,1
0.0003047831,0.0002861456,6,1
0.0004427008,0.0002966799,6,1
0.0005577672,0.0002966799,6,1
0.0006187038,0.0002858215,6,1
0.0006028214,0.0002668598,6,1
0.0005106062,0.0002417397,6,1
0.0003710679,0.0002125679,6,1
0.0002231022,0.0001777239,6,1
9.037068e-05,0.0001326697,6,1
-1.821308e-05,7.789165e-05,6,1
-0.0001071869,1.468618e-05,6,1
-0.0001823853,-5.678463e-05,6,1
-0.0002486699,-0.0001368449,6,1
-0.000303286,-0.000224036,6,1
-0.0003363473,-0.0003164132,6,1
-0.0003309991,-0.0004149489,6,1
-0.0002788141,-0.0005211017,6,1
-0.0001896782,-0.0006373025,6,1
-8.320128e-05,-0.0007606342,6,1
1.663096e-05,-0.0008804005,6,1
8.664318e-05,-0.0009765052,6,1
0.0001107909,-0.001025287,6,1
8.226741e-05,-0.001012646,6,1
1.257933e-05,-0.0009361509,6,1
-6.942573e-05,-0.0008050401,6,1
-0.0001337657,-0.0006387612,6,1
-0.0001624512,-0.0004627582,6,1
-0.0001614788,-0.0003037722,6,1
-0.0001559686,-0.0001773612,6,1
-0.0001715269,-8.709085e-05,6,1
-0.0002143121,-2.566809e-05,6,1
-0.0002681178,1.825161e-05,6,1
-0.0003104168,5.260946e-05,6,1
-0.0003259751,8.080883e-05,6,1
-0.0003117133,0.0001013911,6,1
-0.0002716832,0.0001182459,6,1
-0.0002122053,0.0001363972,6,1
-0.0001496481,0.0001615174,6,1
-0.0001044318,0.0001955511,6,1
-8.465986e-05,0.0002370398,6,1
-8.563225e-05,0.0002807975,6,1
-9.584238e-05,0.0003200173,6,1
-0.0001005423,0.0003495132,6,1
-7.720486e-05,0.0003683128,6,1
-7.354709e-06,0.0003769022,6,1
9.928428e-05,0.0003769022,6,1
0.0002240746,0.000368961,6,1
0.00035162,0.0003551855,6,1
0.0004642555,0.0003363859,6,1
0.0005388056,0.0003101313,6,1
0.0005561466,0.0002741528,6,1
0.0005115786,0.0002287745,6,1
0.0004162841,0.0001744826,6,1
0.0002947351,0.0001145184,6,1
0.0001748067,5.277153e-05,6,1
8.502253e-05,-7.678839e-06,6,1
4.320967e-05,-6.245691e-05,6,1
5.1475e-05,-0.0001088076,6,1
9.620504e-05,-0.0001434896,6,1
0.0001529279,-0.0001614788,6,1
0.0001950649,-0.0001554824,6,1
0.0002180782,-0.0001169109,6,1
0.0002480603,-5.095028e-05,6,1
0.0003198552,2.959619e-05,6,1
0.0004464283,0.0001137081,6,1
0.000596825,0.0001869616,6,1
0.0007123777,0.0002389846,6,1
0.0007418735,0.0002670219,6,1
0.0006655407,0.0002754493,6,1
0.0005026649,0.000272208,6,1
0.0002992729,0.0002645909,6,1
0.0001017153,0.0002607014,6,1
-5.386745e-05,0.0002624841,6,1
-0.0001517549,0.0002628082,6,1
-0.0001924333,0.0002569738,6,1
-0.0001890299,0.0002435224,6,1
-0.000166827,0.0002245608,6,1
-0.0001501342,0.0002057612,6,1
-0.0001483515,0.0001882582,6,1
-0.0001562927,0.0001743205,6,1
-0.0001637477,0.0001667035,6,1
-0.0001699062,0.0001667035,6,1
-0.0001836818,0.0001728619,6,1
-0.0002183637,0.0001830721,6,1
-0.000276059,0.0001892305,6,1
-0.0003465574,0.000185503,6,1
-0.0004164075,0.0001694586,6,1
-0.0004792889,0.0001454729,6,1
-0.0005269361,0.000121001,6,1
-0.0005578905,9.620504e-05,6,1
-0.0005755557,6.508849e-05,6,1
-0.0005869002,2.01964e-05,6,1
-0.0005933828,-4.05781e-05,6,1
-0.0006008379,-0.0001144799,6,1
-0.0006193133,-0.0001912988,6,1
-0.0006578848,-0.0002588801,6,1
-0.000710718,-0.0003102548,6,1
-0.00076501,-0.0003412093,6,1
-0.0008084435,-0.0003489884,6,1
-0.000829674,-0.0003340784,6,1
-0.0008202742,-0.0002977757,6,1
-0.0007744097,-0.0002442942,6,1
-0.0006948357,-0.0001823853,6,1
-0.0005951655,-0.0001225832,6,1
-0.0004935506,-6.845333e-05,6,1
-0.0004023079,-2.129233e-05,6,1
-0.0003248407,1.906194e-05,6,1
-0.0002634179,4.742337e-05,6,1
-0.0002191741,5.828175e-05,6,1
-0.0001911368,4.677511e-05,6,1
-0.0001831956,1.744129e-05,6,1
-0.0002000504,-1.902341e-05,6,1
-0.0002454286,-5.22468e-05,6,1
-0.0003123616,-7.947377e-05,6,1
-0.0003724878,-0.000104918,6,1
-0.0003942046,-0.0001327933,6,1
-0.0003588744,-0.0001603444,6,1
-0.000271035,-0.0001869231,6,1
-0.0001402483,-0.0002109087,6,1
2.635488e-05,-0.0002256567,6,1
0.000222616,-0.0002248464,6,1
0.0004290873,-0.0002083157,6,1
0.0006148142,-0.0001783336,6,1
0.0007415494,-0.0001386276,6,1
0.0007927621,-9.649064e-05,6,1
0.0007862795,-6.083626e-05,6,1
0.0007700729,-3.247483e-05,6,1
0.0007864416,-8.813297e-06,6,1
0.0008355473,1.047248e-05,6,1
0.0008812498,2.084466e-05,6,1
0.0008859497,1.987227e-05,6,1
0.0008506195,1.12828e-05,6,1
0.0008211235,2.207145e-06,6,1
0.0008583986,-1.844488e-06,6,1
0.0009911302,4.80019e-06,6,1
0.001203274,2.748934e-05,6,1
0.001450262,6.152305e-05,6,1
0.00168234,9.490851e-05,6,1
0.00186515,0.0001132219,6,1
0.001969683,0.0001098185,6,1
0.001983134,9.150514e-05,6,1
0.00190437,6.800567e-05,6,1
0.001738577,4.742337e-05,6,1
0.001504716,3.267542e-05,6,1
0.001240873,2.327564e-05,6,1
0.0009966405,2.181705e-05,6,1
0.0008065377,3.218923e-05,6,1
0.0006652166,5.601284e-05,6,1
0.0005362125,9.361199e-05,6,1
0.000373985,0.0001425557,6,1
0.0001650828,0.0001945787,6,1
-7.282909e-05,0.0002393087,6,1
-0.0003125237,0.0002676702,6,1
-0.0005254775,0.0002757735,6,1
-0.0006860842,0.0002676702,6,1
-0.0007768407,0.0002509774,6,1
-0.0007995299,0.0002302331,6,1
-0.0007778131,0.0002145127,6,1
-0.0007439415,0.0002109473,6,1
-0.0007322728,0.0002171058,6,1
-0.0007599859,0.0002214815,6,1
-0.000819626,0.0002169437,6,1
-0.0008735937,0.0002005751,6,1
-0.0008724593,0.0001752929,6,1
-0.0007891576,0.000145797,6,1
-0.0006309819,0.0001146805,6,1
-0.0004366657,8.696731e-05,6,1
-0.0002647144,6.816773e-05,6,1
-0.0001605064,6.071273e-05,6,1
-0.0001319829,6.055066e-05,6,1
-0.0001496481,6.41161e-05,6,1
-0.0001695821,6.281957e-05,6,1
-0.0001616409,5.017848e-05,6,1
-0.0001258245,1.906194e-05,6,1
-8.773911e-05,-2.453363e-05,6,1
-8.255302e-05,-6.877746e-05,6,1
-0.0001334415,-0.0001042698,6,1
-0.0002415391,-0.0001332795,6,1
-0.0003839945,-0.0001577513,6,1
-0.0005279084,-0.0001778474,6,1
-0.0006501057,-0.0001937298,6,1
-0.0007434553,-0.0002050744,6,1
-0.0008126572,-0.0002162569,6,1
-0.0008648421,-0.0002298704,6,1
-0.0009084377,-0.0002481838,6,1
-0.0009445783,-0.0002671454,6,1
-0.0009669433,-0.0002814071,6,1
-0.0009635399,-0.0002882139,6,1
-0.0009316131,-0.0002896725,6,1
-0.0008677593,-0.0002888622,6,1
-0.0007688995,-0.0002919414,6,1
-0.0006361681,-0.0003052308,6,1
-0.0004805854,-0.0003313232,6,1
-0.0003339163,-0.0003666535,6,1
-0.0002417012,-0.0004074939,6,1
-0.0002366771,-0.000447362,6,1
-0.000318358,-0.0004804233,6,1
-0.0004530343,-0.0004964678,6,1
-0.0005865761,-0.0004888507,6,1
-0.0006755499,-0.0004554653,6,1
-0.0006941874,-0.000400039,6,1
-0.0006387612,-0.0003324577,6,1
-0.0005293671,-0.0002622834,6,1
-0.0003985804,-0.000196647,6,1
-0.0002788141,-0.0001360346,6,1
-0.0001906506,-8.02841e-05,6,1
-0.0001410586,-2.955766e-05,6,1
-0.0001250141,1.711715e-05,6,1
-0.0001298761,5.698522e-05,6,1
-0.0001383035,8.761557e-05,6,1
-0.0001373311,0.0001081979,6,1
-0.000127121,0.0001216493,6,1
-0.0001141558,0.0001328318,6,1
-9.632857e-05,0.0001467694,6,1
-6.229485e-05,0.0001644345,6,1
2.623614e-07,0.0001840444,6,1
9.134307e-05,0.0002044647,6,1
0.0001984683,0.0002209954,6,1
0.0003025142,0.0002258573,6,1
0.000388733,0.000220185,6,1
0.0004459421,0.0002078681,6,1
0.0004718725,0.0001939304,6,1
0.0004762483,0.0001795066,6,1
0.0004733311,0.0001649207,6,1
0.0004802999,0.0001534141,6,1
0.000500396,0.0001516314,6,1
0.0005255162,0.0001626518,6,1
0.0005383193,0.0001856651,6,1
0.0005277851,0.0002154851,6,1
0.0004971547,0.0002454672,6,1
0.0004521006,0.0002689667,6,1
0.0003984569,0.0002816078,6,1
0.0003404375,0.0002848491,6,1
0.0002804733,0.0002799871,6,1
0.000222616,0.0002764217,6,1
0.0001673517,0.0002803113,6,1
0.0001132219,0.000292142,6,1
6.152305e-05,0.0003051073,6,1
1.760335e-05,0.0003120761,6,1
-1.594417e-05,0.0003078624,6,1
-3.847125e-05,0.0002936006,6,1
-3.766092e-05,0.0002749631,6,1
1.095867e-05,0.0002608634,6,1
0.0001269974,0.0002564877,6,1
0.0003007315,0.0002607014,6,1
0.0004864584,0.0002684805,6,1
0.0006420412,0.0002720459,6,1
0.0007561353,0.0002636185,6,1
0.000837168,0.0002440086,6,1
0.0008835187,0.0002174299,6,1
0.0008880566,0.0001864754,6,1
0.000851916,0.0001539003,6,1
0.0007778521,0.000121001,6,1
0.0006715371,8.761557e-05,6,1
0.0005368608,5.341979e-05,6,1
0.0003809539,1.64689e-05,6,1
0.0002209954,-2.129233e-05,6,1
7.967438e-05,-5.69467e-05,6,1
-2.404744e-05,-8.692878e-05,6,1
-8.838737e-05,-0.0001157764,6,1
-0.0001280934,-0.0001499722,6,1
-0.0001582375,-0.000196647,6,1
-0.0001906506,-0.0002572594,6,1
-0.0002378116,-0.0003288923,6,1
-0.0003013411,-0.0004065215,6,1
-0.0003752429,-0.0004778303,6,1
-0.0004480103,-0.0005303394,6,1
-0.0005102433,-0.0005538389,6,1
-0.0005564319,-0.0005476804,6,1
-0.0005820383,-0.0005164018,6,1
-0.0005804176,-0.0004684305,6,1
-0.0005352014,-0.0004138145,6,1
-0.000427428,-0.0003611433,6,1
-0.0002473734,-0.0003144685,6,1
-5.085794e-06,-0.0002755728,6,1
0.0002632944,-0.0002421874,6,1
0.000497803,-0.0002138259,6,1
0.0006456067,-0.0001896782,6,1
0.0006796404,-0.0001650443,6,1
0.0006071971,-0.0001384655,6,1
0.0004640934,-0.000114804,6,1
0.0003004074,-9.762509e-05,6,1
0.0001586002,-8.82253e-05,6,1
6.184718e-05,-8.239095e-05,6,1
1.160693e-05,-7.380149e-05,6,1
-2.654814e-06,-5.613637e-05,6,1
5.772582e-06,-3.053005e-05,6,1
2.797553e-05,-2.238346e-07,6,1
6.930219e-05,3.105477e-05,6,1
0.000143204,6.200925e-05,6,1
0.0002600531,9.231547e-05,6,1
0.0004098015,0.0001222976,6,1
0.0005640878,0.0001496866,6,1
0.0006874196,0.0001722137,6,1
0.0007490044,0.000187934,6,1
0.0007305289,0.0001999268,6,1
0.0006305345,0.0002109473,6,1
0.0004699278,0.000222616,6,1
0.0002819319,0.0002339606,6,1
9.960841e-05,0.0002438466,6,1
-5.22468e-05,0.0002488706,6,1
-0.0001585616,0.0002491947,6,1
-0.0002180396,0.0002496809,6,1
-0.0002423494,0.0002511395,6,1
-0.0002480217,0.0002535705,6,1
-0.000253694,0.0002545429,6,1
-0.0002632558,0.0002534084,6,1
-0.0002737901,0.000249843,6,1
-0.0002822175,0.0002469258,6,1
-0.0002890242,0.0002467637,6,1
-0.0002916173,0.0002514636,6,1
-0.0002911311,0.0002540567,6,1
-0.0002925897,0.0002483844,6,1
-0.0002958309,0.0002373639,6,1
-0.0002974516,0.0002218057,6,1
-0.0003002067,0.0002031682,6,1
-0.000315765,0.0001820997,6,1
-0.0003621157,0.000162976,6,1
-0.0004514136,0.0001477418,6,1
-0.0005794452,0.00013818,6,1
-0.0007160662,0.0001331559,6,1
-0.0008194639,0.0001281319,6,1
-0.0008612768,0.0001216493,6,1
-0.0008282154,0.0001119254,6,1
-0.0007244936,9.523264e-05,6,1
-0.0005674524,7.238143e-05,6,1
-0.0003841565,4.807163e-05,6,1
-0.0002078295,2.603075e-05,6,1
-7.056019e-05,1.387585e-05,6,1
7.717366e-06,9.338019e-06,6,1
2.927205e-05,2.207145e-06,6,1
1.501031e-05,-1.286493e-05,6,1
-1.059602e-05,-3.539201e-05,6,1
-2.210265e-05,-6.035007e-05,6,1
1.720949e-06,-8.384954e-05,6,1
7.432621e-05,-0.0001031353,6,1
0.0001976579,-0.0001162626,6,1
0.0003546993,-0.0001253383,6,1
0.0005063924,-0.0001357104,6,1
0.0006151384,-0.0001515928,6,1
0.0006545202,-0.0001723372,6,1
0.0006175694,-0.0001930815,6,1
0.0005167646,-0.0002125294,6,1
0.0003814401,-0.0002293842,6,1
0.0002397949,-0.0002428356,6,1
0.0001081979,-0.0002532078,6,1
-6.382317e-06,-0.0002549905,6,1
-0.0001044318,-0.0002481838,6,1
-0.0001857886,-0.0002350565,6,1
-0.0002481838,-0.0002217671,6,1
-0.0002964792,-0.0002110708,6,1
-0.0003384541,-0.000206533,6,1
-0.0003799429,-0.000206695,6,1
-0.0004190006,-0.0002068571,6,1
-0.0004504412,-0.0002044261,6,1
-0.0004653512,-0.0001971332,6,1
-0.0004593548,-0.0001822232,6,1
-0.0004358554,-0.0001600202,6,1
-0.0003990665,-0.0001327933,6,1
-0.0003515814,-0.0001089697,6,1
-0.0002997205,-9.405965e-05,6,1
-0.000251101,-8.547019e-05,6,1
-0.000216581,-7.817725e-05,6,1
-0.0002062088,-6.504996e-05,6,1
-0.000216581,-4.625038e-05,6,1
-0.000226467,-2.534396e-05,6,1
-0.0002081536,-8.975362e-06,6,1
-0.0001488377,-1.034161e-06,6,1
-5.953974e-05,-1.520357e-06,6,1
3.316162e-05,-8.002969e-06,6,1
0.0001094944,-1.497178e-05,6,1
0.0001673517,-1.480971e-05,6,1
0.0002081922,-1.358292e-06,6,1
0.0002265056,2.684107e-05,6,1
0.0002073819,6.557468e-05,6,1
0.0001472556,0.0001081979,6,1
4.953022e-05,0.0001461212,6,1
-7.056019e-05,0.0001733481,6,1
-0.000191785,0.0001924718,6,1
-0.0002875656,0.0002085163,6,1
-0.0003319715,0.0002245608,6,1
-0.0003040963,0.0002406053,6,1
-0.0002021572,0.0002560015,6,1
-5.32192e-05,0.0002658874,6,1
0.0001018773,0.0002645909,6,1
0.0002243987,0.0002530843,6,1
0.0003000832,0.0002346088,6,1
0.0003352514,0.0002075439,6,1
0.0003402755,0.0001673517,6,1
0.0003232586,0.0001153287,6,1
0.0002872801,5.585077e-05,6,1
0.0002337985,-4.113403e-06,6,1
0.0001645966,-5.64605e-05,6,1
8.631905e-05,-0.0001003802,6,1
1.095867e-05,-0.0001313347,6,1
-5.143648e-05,-0.0001462447,6,1
-9.162867e-05,-0.0001402483,6,1
-9.811128e-05,-0.000117235,6,1
-4.868137e-05,-8.303922e-05,6,1
7.691926e-05,-4.414354e-05,6,1
0.0002728562,-5.247859e-06,6,1
0.0005008822,3.18651e-05,6,1
0.0007110811,6.46023e-05,6,1
0.0008681226,9.26396e-05,6,1
0.0009593654,0.0001141943,6,1
0.0009820546,0.0001287802,6,1
0.0009295454,0.0001401247,6,1
0.0007971379,0.0001446626,6,1
0.0005934216,0.0001368834,6,1
0.0003572923,0.0001151667,6,1
0.0001443384,8.534666e-05,6,1
1.031041e-05,5.358185e-05,6,1
-1.108221e-05,2.39239e-05,6,1
9.377406e-05,-2.006553e-06,6,1
0.0003038107,-2.258885e-05,6,1
0.0005618189,-4.090223e-05,6,1
0.000795031,-5.613637e-05,6,1
0.0009373245,-6.602235e-05,6,1
0.0009540173,-7.218083e-05,6,1
0.000844461,-7.882551e-05,6,1
0.0006431757,-8.871149e-05,6,1
0.0004015361,-0.0001045939,6,1
0.0001722137,-0.0001284175,6,1
-7.678839e-06,-0.0001616409,6,1
-0.0001169109,-0.0002000504,6,1
-0.0001574272,-0.0002329496,6,1
-0.0001525652,-0.0002556388,6,1
-0.0001350622,-0.0002718453,6,1
-0.0001238797,-0.000285945,6,1
-0.0001253383,-0.0003016653,6,1
-0.0001381414,-0.0003188442,6,1
-0.0001660166,-0.0003324577,6,1
-0.0002157707,-0.0003395886,6,1
-0.0002943724,-0.0003392644,6,1
-0.0003982562,-0.0003285682,6,1
-0.0005065158,-0.000303448,6,1
-0.0005903036,-0.0002663351,6,1
-0.0006347094,-0.0002230636,6,1
-0.0006345474,-0.0001809267,6,1
-0.0005878726,-0.0001455964,6,1
-0.0004903093,-0.0001159385,6,1
-0.0003507711,-8.806324e-05,6,1
-0.0001963229,-5.759496e-05,6,1
-7.444975e-05,-2.518189e-05,6,1
-3.117831e-05,1.072688e-06,6,1
-8.482193e-05,1.64689e-05,6,1
-0.0002206326,2.100672e-05,6,1
-0.0003984183,1.938607e-05,6,1
-0.000571342,1.695509e-05,6,1
-0.0007009942,1.744129e-05,6,1
-0.0007729512,2.441009e-05,6,1
-0.0007932093,4.191315e-05,6,1
-0.0007755442,7.367795e-05,6,1
-0.0007358382,0.0001185701,6,1
-0.0006877048,0.0001668655,6,1
-0.0006449196,0.0002081922,6,1
-0.0006118583,0.0002384984,6,1
-0.0005812279,0.0002585945,6,1
-0.0005364979,0.0002705873,6,1
-0.0004692408,0.0002769079,6,1
-0.0003924218,0.0002786906,6,1
-0.0003340784,0.0002838767,6,1
-0.0003143064,0.000292142,6,1
-0.0003329439,0.0003008936,6,1
-0.0003736223,0.0003102934,6,1
-0.0004117076,0.0003208276,6,1
-0.0004235384,0.0003326584,6,1
-0.0003930701,0.0003431926,6,1
-0.0003198166,0.0003504856,6,1
-0.000221605,0.000354051,6,1
-0.0001208004,0.000354051,6,1
-2.728874e-05,0.0003477304,6,1
5.309566e-05,0.0003342791,6,1
0.0001188942,0.0003125623,6,1
0.0001701068,0.0002832284,6,1
0.0002148369,0.0002521119,6,1
0.0002650771,0.0002206712,6,1
0.0003311998,0.0001926339,6,1
0.0004154738,0.000170431,6,1
0.0005078511,0.00015309,6,1
0.0005935837,0.000135749,6,1
0.0006726716,0.0001175977,6,1
0.0007496527,9.782569e-05,6,1
0.0008141547,7.497447e-05,6,1
0.000846892,4.709924e-05,6,1
0.0008438127,1.306552e-05,6,1
0.0008079963,-2.583016e-05,6,1
0.0007486803,-6.974985e-05,6,1
0.0006755888,-0.000117235,6,1
0.000594394,-0.0001639098,6,1
0.0005106062,-0.0001976194,6,1
0.0004268184,-0.0002100984,6,1
0.0003396272,-0.0002026434,6,1
0.0002478982,-0.0001849783,6,1
0.0001529279,-0.0001624512,6,1
5.374392e-05,-0.0001391138,6,1
-5.289507e-05,-0.0001188556,6,1
-0.0001600202,-0.0001102662,6,1
-0.0002514251,-0.0001126972,6,1
-0.0003086341,-0.0001199901,6,1
-0.0003288923,-0.0001248521,6,1
-0.000328082,-0.0001229073,6,1
-0.0003274337,-0.0001101041,6,1
-0.0003368335,-8.692878e-05,6,1
-0.0003566054,-5.889148e-05,6,1
-0.0003880461,-3.555408e-05,6,1
-0.000437314,-2.501983e-05,6,1
-0.0005010056,-2.858527e-05,6,1
-0.0005574043,-4.349527e-05,6,1
-0.0005800935,-6.39155e-05,6,1
-0.0005587008,-8.660465e-05,6,1
-0.0005097571,-0.0001110765,6,1
-0.0004567618,-0.0001363587,6,1
-0.0004083043,-0.000159372,6,1
-0.0003460712,-0.0001760647,6,1
-0.0002399184,-0.0001830335,6,1
-7.18567e-05,-0.0001849783,6,1
0.000153252,-0.0001869231,6,1
0.0004274666,-0.0001906506,6,1
0.0007363633,-0.0001943781,6,1
0.001040074,-0.0001947022,6,1
0.001280903,-0.0001903264,6,1
0.001402615,-0.0001825473,6,1
0.001373119,-0.0001757406,6,1
0.00120846,-0.0001684476,6,1
0.0009771927,-0.0001556445,6,1
0.000752894,-0.0001373311,6,1
0.0005736496,-0.0001133454,6,1
0.0004381629,-8.579432e-05,6,1
0.0003297412,-5.808115e-05,6,1
0.0002248849,-3.053005e-05,6,1
0.0001080358,-3.789272e-06,6,1
-2.031993e-05,2.781346e-05,6,1
-0.0001483515,6.46023e-05,6,1
-0.0002595283,0.0001020394,6,1
-0.0003418575,0.000135911,6,1
-0.0003851289,0.000163138,6,1
-0.0003872358,0.0001832341,6,1
-0.0003459091,0.0001963614,6,1
-0.0002596904,0.0002067336,6,1
-0.0001381414,0.0002128921,6,1
-9.299493e-06,0.0002094887,6,1
9.053275e-05,0.0001923098,6,1
0.0001279698,0.0001576278,6,1
9.182927e-05,0.0001073875,6,1
9.106227e-07,5.19612e-05,6,1
-0.0001057284,1.072688e-06,6,1
-0.0001898403,-4.074016e-05,6,1
-0.0002267911,-6.877746e-05,6,1
-0.0002086398,-8.368748e-05,6,1
-0.0001344139,-8.709085e-05,6,1
-8.651231e-06,-7.866345e-05,6,1
0.0001509831,-6.002594e-05,6,1
0.0003114278,-3.749886e-05,6,1
0.0004384871,-1.448558e-05,6,1
0.0005042856,1.095867e-05,6,1
0.0004892136,4.77475e-05,6,1
0.0003924605,9.474644e-05,6,1
0.0002372019,0.0001423936,6,1
6.427817e-05,0.0001801549,6,1
-9.2439e-05,0.0002059233,6,1
-0.0002207947,0.0002198609,6,1
-0.0003199787,0.0002221298,6,1
-0.0003993907,0.0002145127,6,1
-0.0004681064,0.0001986303,6,1
-0.0005285567,0.0001788584,6,1
-0.0005749074,0.0001582761,6,1
-0.000606186,0.0001391524,6,1
-0.0006181788,0.0001257009,6,1
-0.0006155858,0.0001174356,6,1
-0.0006105618,0.0001148425,6,1
-0.00061121,0.0001138702,6,1
-0.0006066722,0.0001112771,6,1
-0.0005770142,9.701536e-05,6,1
-0.0005053814,6.703327e-05,6,1
-0.0003946908,2.522042e-05,6,1
-0.0002617972,-1.67545e-05,6,1
-0.0001336036,-4.80331e-05,6,1
-3.879538e-05,-7.201877e-05,6,1
1.883015e-06,-9.146661e-05,6,1
-1.480971e-05,-0.0001071869,6,1
-7.137051e-05,-0.0001161005,6,1
-0.0001384655,-0.0001216107,6,1
-0.0001951884,-0.0001300382,6,1
-0.0002308428,-0.0001449482,6,1
-0.0002395943,-0.0001650443,6,1
-0.0002227395,-0.0001806025,6,1
-0.0001875713,-0.0001859507,6,1
-0.0001502963,-0.0001840059,6,1
-0.0001227452,-0.0001760647,6,1
-0.0001084835,-0.0001621271,6,1
-9.697683e-05,-0.0001408965,6,1
-8.158062e-05,-0.0001128592,6,1
-6.261898e-05,-8.109443e-05,6,1
-4.041603e-05,-5.289507e-05,6,1
-1.67545e-05,-3.604027e-05,6,1
1.031041e-05,-3.344723e-05,6,1
4.045456e-05,-3.766092e-05,6,1
6.703327e-05,-4.527799e-05,6,1
8.145709e-05,-5.32192e-05,6,1
7.691926e-05,-5.759496e-05,6,1
5.179914e-05,-5.743289e-05,6,1
1.274139e-05,-5.127441e-05,6,1
-2.809907e-05,-4.106429e-05,6,1
-6.310517e-05,-2.728874e-05,6,1
-8.482193e-05,-8.651231e-06,6,1
-8.579432e-05,7.717366e-06,6,1
-6.877746e-05,1.533444e-05,6,1
-4.495386e-05,9.500085e-06,6,1
-1.724069e-05,-1.108221e-05,6,1
1.760335e-05,-3.911951e-05,6,1
5.666109e-05,-6.764301e-05,6,1
8.631905e-05,-9.486997e-05,6,1
8.648112e-05,-0.0001195039,6,1
5.698522e-05,-0.0001389517,6,1
1.371378e-05,-0.0001467309,6,1
-2.955766e-05,-0.0001373311,6,1
-7.23429e-05,-0.0001057284,6,1
-0.0001232314,-5.419158e-05,6,1
-0.0001932436,9.824215e-06,6,1
-0.0002812451,7.756752e-05,6,1
-0.0003708672,0.0001425557,6,1
-0.0004343968,0.0001983062,6,1
-0.0004446069,0.0002412535,6,1
-0.000395177,0.0002684805,6,1
-0.0003044204,0.0002825802,6,1
-0.0002063709,0.0002903593,6,1
-0.0001245279,0.0002963557,6,1
-7.18567e-05,0.0003034866,6,1
-5.030202e-05,0.00030689,6,1
-5.435365e-05,0.000304459,6,1
-6.44017e-05,0.0002934386,6,1
-4.932962e-05,0.0002767458,6,1
1.808955e-05,0.0002571359,6,1
0.000160707,0.0002359054,6,1
0.0003982949,0.000215161,6,1
0.0007319876,0.0001970097,6,1
0.001125483,0.0001858272,6,1
0.001511685,0.000185341,6,1
0.001826741,0.0001932822,6,1
0.002037102,0.0002013854,6,1
0.002144876,0.0002000889,6,1
0.002162866,0.0001817755,6,1
0.002096742,0.0001441764,6,1
0.001949101,9.701536e-05,6,1
0.001737605,4.515445e-05,6,1
0.001491913,-5.247859e-06,6,1
0.001242332,-4.576419e-05,6,1
0.001018195,-7.363943e-05,6,1
0.0008332785,-9.000802e-05,6,1
0.0006877437,-9.843541e-05,6,1
0.0005718669,-0.0001032974,6,1
0.0004725208,-0.0001102662,6,1
0.0003806297,-0.0001229073,6,1
0.0002991108,-0.0001402483,6,1
0.0002320158,-0.000159372,6,1
0.0001842065,-0.0001771992,6,1
0.0001514693,-0.0001927574,6,1
0.000118408,-0.0002028055,6,1
5.666109e-05,-0.0002049123,6,1
-4.90055e-05,-0.0002008607,6,1
-0.0001882196,-0.0001982676,6,1
-0.0003384541,-0.00019924,6,1
-0.0004813957,-0.0002026434,6,1
-0.0006052136,-0.0002050744,6,1
-0.0007112043,-0.0002076674,6,1
-0.0008055263,-0.0002092881,6,1
-0.0008923933,-0.000209126,6,1
-0.0009696984,-0.0002047502,6,1
-0.00102869,-0.0001956746,6,1
-0.001058672,-0.0001825473,6,1
-0.001054621,-0.0001660166,6,1
-0.001020749,-0.0001467309,6,1
-0.0009692122,-0.0001287416,6,1
-0.0009160548,-0.0001141558,6,1
-0.0008713248,-0.0001016767,6,1
-0.0008413427,-8.676672e-05,6,1
-0.0008227052,-7.169464e-05,6,1
-0.000812171,-6.39155e-05,6,1
-0.0008092538,-6.44017e-05,6,1
-0.0008128192,-6.926366e-05,6,1
-0.000819788,-7.380149e-05,6,1
-0.0008252983,-7.704279e-05,6,1
-0.0008278913,-8.271508e-05,6,1
-0.0008249741,-8.790117e-05,6,1
-0.0008178432,-9.114248e-05,6,1
-0.0008052022,-9.276313e-05,6,1
-0.0007904542,-9.730096e-05,6,1
-0.0007748959,-0.0001058904,6,1
-0.0007591756,-0.0001135075,6,1
-0.0007468587,-0.0001152902,6,1
-0.0007439415,-0.0001128592,6,1
-0.0007530171,-0.0001057284,6,1
-0.0007671168,-9.373552e-05,6,1
-0.0007688995,-7.347736e-05,6,1
-0.0007411864,-4.268495e-05,6,1
-0.0006740913,-8.720959e-07,6,1
-0.0005625904,4.953022e-05,6,1
-0.0004057112,0.0001041462,6,1
-0.0002057227,0.0001571416,6,1
1.97102e-05,0.0001999268,6,1
0.0002328261,0.0002278021,6,1
0.0003965121,0.0002430362,6,1
0.0004788414,0.0002506533,6,1
0.0004717105,0.0002547049,6,1
0.0004107739,0.0002577842,6,1
0.0003487029,0.0002590807,6,1
0.0003256896,0.0002577842,6,1
0.0003534027,0.0002558394,6,1
0.0004146635,0.000250005,6,1
0.0004807861,0.0002433604,6,1
0.0005204921,0.0002370398,6,1
0.0005187094,0.0002323399,6,1
0.0004744656,0.0002263435,6,1
0.0004013741,0.0002216436,6,1
0.0003211517,0.0002198609,6,1
0.0002608634,0.0002216436,6,1
0.0002483844,0.00022764,6,1
0.0003021901,0.0002341226,6,1
0.0004145014,0.0002347709,6,1
0.0005616568,0.0002256952,6,1
0.0007118915,0.000207706,6,1
0.0008264717,0.0001830721,6,1
0.000874281,0.0001550348,6,1
0.0008402473,0.0001240803,6,1
0.0007342565,8.956036e-05,6,1
0.0005804563,5.341979e-05,6,1
0.0004021844,1.987227e-05,6,1
0.0002196988,-8.975362e-06,6,1
4.515445e-05,-2.923353e-05,6,1
-0.0001099421,-4.187462e-05,6,1
-0.0002348944,-4.90055e-05,6,1
-0.0003297026,-5.59743e-05,6,1
-0.0004060354,-6.731888e-05,6,1
-0.0004715097,-8.271508e-05,6,1
-0.0005264499,-9.649064e-05,6,1
-0.0005638869,-0.0001076731,6,1
-0.0005791211,-0.0001212866,6,1
-0.0005700454,-0.0001410586,6,1
-0.0005314739,-0.0001647201,6,1
-0.0004612996,-0.0001864369,6,1
-0.0003673017,-0.0002008607,6,1
-0.0002737901,-0.0002058847,6,1
-0.0001948643,-0.0002042641,6,1
-0.000119666,-0.00019924,6,1
-1.983374e-05,-0.0001929195,6,1
0.000121001,-0.0001838438,6,1
0.0002897111,-0.0001716889,6,1
0.0004423766,-0.0001585616,6,1
0.0005307022,-0.0001459206,6,1
0.0005222749,-0.0001378173,6,1
0.0004182289,-0.0001365208,6,1
0.0002534084,-0.0001421931,6,1
8.388807e-05,-0.0001489998,6,1
-4.05781e-05,-0.0001515928,6,1
-9.503204e-05,-0.0001491618,6,1
-8.482193e-05,-0.0001402483,6,1
-3.571614e-05,-0.0001261486,6,1
1.906194e-05,-0.0001136696,6,1
5.795762e-05,-0.0001065387,6,1
8.648112e-05,-0.000107349,6,1
0.0001205148,-0.0001101041,6,1
0.0001590864,-0.0001115627,6,1
0.0001859892,-0.0001057284,6,1
0.0001906891,-9.276313e-05,6,1
0.0001811273,-7.428769e-05,6,1
0.0001717275,-5.69467e-05,6,1
0.0001749688,-4.641245e-05,6,1
0.0001919856,-4.398147e-05,6,1
0.0002122438,-4.787104e-05,6,1
0.0002208333,-5.305713e-05,6,1
0.0002065715,-5.727083e-05,6,1
0.0001645966,-5.759496e-05,6,1
0.0001020394,-5.111234e-05,6,1
3.121684e-05,-3.847125e-05,6,1
-3.555408e-05,-2.145439e-05,6,1
-8.903562e-05,-1.034161e-06,6,1
-0.0001216107,2.197911e-05,6,1
-0.0001298761,4.758544e-05,6,1
-0.0001164247,7.157111e-05,6,1
-8.611845e-05,8.923623e-05,6,1
-4.754691e-05,0.0001005808,6,1
-6.382317e-06,0.0001065772,6,1
4.126489e-05,0.0001096565,6,1
9.896015e-05,0.0001130598,6,1
0.0001611932,0.0001211631,6,1
0.0002192126,0.0001362352,6,1
0.0002637806,0.0001594105,6,1
0.0002944109,0.000187934,6,1
0.0003154794,0.0002135403,6,1
0.0003376824,0.000230071,6,1
0.0003649094,0.0002372019,6,1
0.0003969983,0.0002367157,6,1
0.0004300596,0.0002329882,6,1
0.0004657141,0.0002294227,6,1
0.0005063924,0.0002299089,6,1
0.0005506363,0.0002360674,6,1
0.0005845079,0.0002457913,6,1
0.0005843459,0.0002513016,6,1
0.0005308643,0.0002477361,6,1
0.0004235771,0.000232502,6,1
0.0002788527,0.0002111094,6,1
0.0001193804,0.000187772,6,1
-3.441962e-05,0.0001624898,6,1
-0.0001647201,0.0001305629,6,1
-0.0002548284,8.956036e-05,6,1
-0.0002937241,4.158902e-05,6,1
-0.000276059,-9.947754e-06,6,1
-0.0002180396,-5.953974e-05,6,1
-0.0001499722,-0.0001016767,6,1
-0.0001057284,-0.0001300382,6,1
-0.0001024871,-0.0001428413,6,1
-0.0001399241,-0.0001434896,6,1
-0.0002032917,-0.0001384655,6,1
-0.0002720074,-0.0001323071,6,1
-0.0003361852,-0.0001282554,6,1
-0.0003956632,-0.0001237176,6,1
-0.0004465517,-0.0001199901,6,1
-0.0004749131,-0.0001131834,6,1
-0.0004749131,-0.0001054042,6,1
-0.0004567618,-9.697683e-05,6,1
-0.0004392588,-9.211487e-05,6,1
-0.0004285624,-9.486997e-05,6,1
-0.0004207833,-0.0001042698,6,1
-0.0004084663,-0.0001126972,6,1
-0.000390315,-0.0001159385,6,1
-0.0003747568,-0.0001128592,6,1
-0.0003731361,-0.0001034594,6,1
-0.0003912874,-9.098041e-05,6,1
-0.0004282383,-7.850138e-05,6,1
-0.0004778303,-6.893953e-05,6,1
-0.0005309877,-6.180866e-05,6,1
-0.0005802555,-5.791909e-05,6,1
-0.0006215822,-5.32192e-05,6,1
-0.0006337371,-4.868137e-05,6,1
-0.0005786349,-4.495386e-05,6,1
-0.0004154351,-4.268495e-05,6,1
-0.0001394379,-3.701266e-05,6,1
0.0002090025,-2.599222e-05,6,1
0.0005550121,-8.327101e-06,6,1
0.0008251752,1.387585e-05,6,1
0.000973303,3.640293e-05,6,1
0.0009862683,5.504044e-05,6,1
0.0008820602,7.076078e-05,6,1
0.0007028158,8.129502e-05,6,1
0.000502827,8.74535e-05,6,1
0.0003323342,9.037068e-05,6,1
0.0002093267,9.16672e-05,6,1
0.0001171115,8.972242e-05,6,1
2.278944e-05,8.696731e-05,6,1
-9.179074e-05,7.756752e-05,6,1
-0.0002162569,5.504044e-05,6,1
-0.0003196545,1.565857e-05,6,1
-0.0003710293,-3.393342e-05,6,1
-0.0003496366,-8.547019e-05,6,1
-0.0002622834,-0.0001295519,6,1
-0.0001363587,-0.0001673132,6,1
-6.382317e-06,-0.0002006986,6,1
0.0001088461,-0.0002277635,6,1
0.000205275,-0.0002379736,6,1
0.0002908455,-0.0002193361,6,1
0.0003720403,-0.0001707166,6,1
0.0004521006,-0.0001024871,6,1
0.0005188715,-2.583016e-05,6,1
0.0005496639,4.839576e-05,6,1
0.0005297299,0.0001148425,6,1
0.0004678209,0.0001683241,6,1
0.0003900295,0.0002073819,6,1
0.0003190449,0.0002347709,6,1
0.0002561635,0.0002542187,6,1
0.0001871237,0.0002639427,6,1
0.0001112771,0.0002631324,6,1
4.483033e-05,0.0002508154,6,1
5.286387e-06,0.0002290986,6,1
-7.516774e-06,0.0001991165,6,1
-5.247859e-06,0.000163138,6,1
-6.544382e-06,0.0001227837,6,1
-2.501983e-05,8.178122e-05,6,1
-6.213279e-05,4.515445e-05,6,1
-0.0001096179,1.54965e-05,6,1
-0.0001478653,-1.682422e-06,6,1
-0.0001489998,-2.492749e-06,6,1
-0.0001015147,1.338965e-05,6,1
-2.664048e-05,3.818565e-05,6,1
4.35338e-05,6.136099e-05,6,1
7.756752e-05,7.384002e-05,6,1
5.844381e-05,7.384002e-05,6,1
-9.623623e-06,6.362991e-05,6,1
-0.0001079973,4.72613e-05,6,1
-0.0002117191,3.056858e-05,6,1
-0.0003011791,1.711715e-05,6,1
-0.0003676259,1.209313e-05,6,1
-0.0004112214,1.54965e-05,6,1
-0.0004361795,2.246531e-05,6,1
-0.0004483344,2.554455e-05,6,1
-0.0004551412,2.035846e-05,6,1
-0.0004582204,7.069105e-06,6,1
-0.0004541688,-8.327101e-06,6,1
-0.0004295348,-2.080613e-05,6,1
-0.0003708672,-2.761287e-05,6,1
-0.0002768693,-2.7937e-05,6,1
-0.0001583996,-2.356124e-05,6,1
-4.009191e-05,-1.902341e-05,6,1
4.855783e-05,-1.805102e-05,6,1
8.372601e-05,-2.323711e-05,6,1
5.666109e-05,-3.312309e-05,6,1
-1.756482e-05,-4.05781e-05,6,1
-0.0001041077,-4.414354e-05,6,1
-0.00016942,-4.219875e-05,6,1
-0.0002021572,-3.701266e-05,6,1
-0.0002152845,-3.069211e-05,6,1
-0.0002326255,-2.437157e-05,6,1
-0.000266173,-2.031993e-05,6,1
-0.0003143064,-2.226472e-05,6,1
-0.0003624398,-2.874733e-05,6,1
-0.0003925839,-3.63644e-05,6,1
-0.0003982562,-4.05781e-05,6,1
-0.0003867496,-4.284701e-05,6,1
-0.0003720016,-4.770897e-05,6,1
-0.000367788,-6.132246e-05,6,1
-0.0003771877,-9.29252e-05,6,1
-0.000387722,-0.0001407345,6,1
-0.0003765395,-0.0001971332,6,1
-0.0003219235,-0.000253694,6,1
-0.0002057227,-0.0003023136,6,1
-3.393342e-05,-0.0003342404,6,1
0.0001628139,-0.0003460712,6,1
0.0003383307,-0.0003373197,6,1
0.0004496696,-0.0003102548,6,1
0.000475438,-0.0002647144,6,1
0.0004273046,-0.0002047502,6,1
0.0003381686,-0.0001365208,6,1
0.0002436845,-7.007399e-05,6,1
0.0001686482,-1.464765e-05,6,1
0.000120839,2.197911e-05,6,1
9.442231e-05,4.045456e-05,6,1
8.032264e-05,4.709924e-05,6,1
7.708133e-05,4.855783e-05,6,1
0.0001002567,4.904402e-05,6,1
0.0001642725,5.163707e-05,6,1
0.0002683184,5.893001e-05,6,1
0.0003910019,7.30297e-05,6,1
0.0004950479,9.442231e-05,6,1
0.0005504743,0.000120839,6,1
0.0005436675,0.000148228,6,1
0.0004827309,0.0001736723,6,1
0.0004013741,0.0001971717,6,1
0.0003472443,0.0002169437,6,1
0.0003530786,0.0002331503,6,1
0.0004235771,0.0002459534,6,1
0.0005204921,0.0002576221,6,1
0.0005799701,0.0002696149,6,1
0.0005509604,0.0002803113,6,1
0.0004203358,0.0002833905,6,1
0.0002268297,0.0002743149,6,1
2.878586e-05,0.0002558394,6,1
-0.000119666,0.0002337985,6,1
-0.0001903264,0.0002112714,6,1
-0.0001854645,0.0001880961,6,1
-0.0001389517,0.0001637863,6,1
-9.146661e-05,0.0001375317,6,1
-7.801519e-05,0.0001132219,6,1
-0.0001167488,9.004655e-05,6,1
-0.0002136638,6.249545e-05,6,1
-0.0003514194,2.522042e-05,6,1
-0.0004961436,-2.031993e-05,6,1
-0.0006068342,-7.153257e-05,6,1
-0.0006551297,-0.0001232314,6,1
-0.0006313061,-0.000166989,6,1
-0.0005395772,-0.0002003745,6,1
-0.0004063595,-0.0002243602,6,1
-0.0002642282,-0.0002391081,6,1
-0.0001314967,-0.000241377,6,1
-6.706447e-06,-0.0002308428,6,1
0.0001190562,-0.0002063709,6,1
0.0002393087,-0.0001699062,6,1
0.0003370341,-0.0001303623,6,1
0.0004042913,-9.357346e-05,6,1
0.0004543695,-6.472583e-05,6,1
0.0005055821,-4.85193e-05,6,1
0.0005600362,-4.657452e-05,6,1
0.0006029835,-5.386745e-05,6,1
0.0006208107,-6.099833e-05,6,1
0.000621621,-5.905355e-05,6,1
0.0006256726,-4.80331e-05,6,1
0.0006399344,-3.328516e-05,6,1
0.0006465791,-2.339918e-05,6,1
0.000631669,-2.177852e-05,6,1
0.0006010387,-2.939559e-05,6,1
0.0005606844,-4.074016e-05,6,1
0.0005065545,-4.949169e-05,6,1
0.0004264942,-5.095028e-05,6,1
0.0003112658,-4.738484e-05,6,1
0.0001665414,-4.05781e-05,6,1
1.792748e-05,-3.166451e-05,6,1
-0.0001062146,-2.015787e-05,6,1
-0.0001969711,-8.489166e-06,6,1
-0.000261149,1.396819e-06,6,1
-0.0003128478,7.879432e-06,6,1
-0.0003559572,1.014835e-05,6,1
-0.0003768636,6.744974e-06,6,1
-0.0003635742,-4.599598e-06,6,1
-0.0003259751,-2.550602e-05,6,1
-0.0002877277,-5.176061e-05,6,1
-0.0002695764,-7.347736e-05,6,1
-0.0002776796,-8.336335e-05,6,1
-0.0003005308,-7.866345e-05,6,1
-0.0003233821,-5.970181e-05,6,1
-0.0003311612,-2.988179e-05,6,1
-0.0003219235,3.989864e-06,6,1
-0.0003044204,3.818565e-05,6,1
-0.0002948586,6.914012e-05,6,1
-0.0003112272,9.053275e-05,6,1
-0.0003601709,0.0001046324,6,1
-0.0004285624,0.0001146805,6,1
-0.0004959816,0.000121001,6,1
-0.0005470322,0.000121001,6,1
-0.000571504,0.0001148425,6,1
-0.0005596732,0.0001056048,6,1
-0.0005107295,9.409818e-05,6,1
-0.0004306693,8.437427e-05,6,1
-0.0003339163,7.90261e-05,6,1
-0.0002407288,8.04847e-05,6,1
-0.0001622891,8.567078e-05,6,1
-0.0001026491,9.150514e-05,6,1
-6.002594e-05,9.798775e-05,6,1
-2.84232e-05,0.0001091703,6,1
-6.868513e-06,0.0001269974,6,1
3.989864e-06,0.0001487142,6,1
3.017472e-06,0.0001709172,6,1
-1.20546e-05,0.0001916615,6,1
-4.284701e-05,0.0002046267,6,1
-8.660465e-05,0.000205275,6,1
-0.0001319829,0.000192958,6,1
-0.0001656925,0.0001731861,6,1
-0.0001687718,0.0001539003,6,1
-0.0001274451,0.0001440143,6,1
-4.511593e-05,0.0001412592,6,1
5.828175e-05,0.000138342,6,1
0.0001595726,0.0001297526,6,1
0.0002495189,0.0001143563,6,1
0.0003264999,9.63671e-05,6,1
0.0003866261,8.194328e-05,6,1
0.0004190393,7.319176e-05,6,1
0.0004151496,6.816773e-05,6,1
0.0003675024,6.444023e-05,6,1
0.0002811216,6.168512e-05,6,1
0.0001714034,5.779555e-05,6,1
6.541262e-05,5.098881e-05,6,1
-1.464765e-05,3.721326e-05,6,1
-6.180866e-05,1.582063e-05,6,1
-8.190475e-05,-5.085794e-06,6,1
-9.098041e-05,-1.967167e-05,6,1
-0.0001062146,-2.761287e-05,6,1
-0.0001430034,-3.020592e-05,6,1
-0.0002060468,-3.328516e-05,6,1
-0.0002854588,-4.398147e-05,6,1
-0.0003668155,-6.44017e-05,6,1
-0.0004321279,-9.19528e-05,6,1
-0.0004713477,-0.0001208004,6,1
-0.0004823681,-0.0001464067,6,1
-0.0004710235,-0.0001655305,6,1
-0.0004491447,-0.0001741199,6,1
-0.0004305072,-0.0001721751,6,1
-0.0004245108,-0.0001630995,6,1
-0.0004261314,-0.0001524032,6,1
-0.0004143007,-0.0001423551,6,1
-0.000360495,-0.0001342519,6,1
-0.0002556388,-0.0001263107,6,1
-0.0001167488,-0.0001219349,6,1
1.64689e-05,-0.0001203142,6,1
0.0001046324,-0.0001227452,6,1
0.0001313732,-0.0001282554,6,1
0.0001073875,-0.0001319829,6,1
6.103686e-05,-0.0001293899,6,1
2.327564e-05,-0.0001209625,6,1
6.096713e-06,-0.0001118868,6,1
9.500085e-06,-0.0001079973,6,1
2.846173e-05,-0.0001139937,6,1
6.071273e-05,-0.0001313347,6,1
0.0001067393,-0.0001528894,6,1
0.0001718896,-0.0001712027,6,1
0.0002725321,-0.0001840059,6,1
0.0004392974,-0.0001904885,6,1
0.0006869333,-0.0001937298,6,1
0.0009883752,-0.0001947022,6,1
0.001280255,-0.0001893541,6,1
0.001489644,-0.0001731475,6,1
0.001560953,-0.0001441378,6,1
0.001472789,-0.0001058904,6,1
0.001243628,-6.278104e-05,6,1
0.0009319764,-1.821308e-05,6,1
0.0006089798,2.797553e-05,6,1
0.0003253654,7.30297e-05,6,1
9.750156e-05,0.0001107909,6,1
-6.764301e-05,0.0001396385,6,1
-0.0001522411,0.0001586002,6,1
-0.0001250141,0.000168,6,1
3.364782e-05,0.000168,6,1
0.0002872801,0.0001603829,6,1
0.000547233,0.0001449867,6,1
0.0007216153,0.0001177597,6,1
0.0007566215,7.967438e-05,6,1
0.0006530617,3.267542e-05,6,1
0.0004538833,-1.934754e-05,6,1
0.0002205092,-7.23429e-05,6,1
8.203562e-06,-0.0001154523,6,1
-0.0001556445,-0.0001379794,6,1
-0.0002666592,-0.0001282554,6,1
-0.0003297026,-8.482193e-05,6,1
-0.0003374817,-1.562004e-05,6,1
-0.0002699005,6.152305e-05,6,1
-0.0001191798,0.0001289422,6,1
8.502253e-05,0.000177886,6,1
0.0002997591,0.0002054371,6,1
0.0004932652,0.0002143507,6,1
0.0006608408,0.0002106232,6,1
0.0008131823,0.0001974959,6,1
0.0009570965,0.0001791825,6,1
0.001071353,0.000160707,6,1
0.001113328,0.0001453108,6,1
0.001042505,0.0001346145,6,1
0.0008488368,0.0001318594,6,1
0.0005624671,0.00013818,6,1
0.0002365536,0.0001534141,6,1
-7.315322e-05,0.0001697827,6,1
-0.000318196,0.0001822617,6,1
-0.0004760476,0.0001895547,6,1
-0.0005551354,0.0001942546,6,1
-0.0005843072,0.0001940925,6,1
-0.0005998655,0.0001866375,6,1
-0.000621258,0.0001726999,6,1
-0.0006569124,0.0001545486,6,1
-0.0007048837,0.0001373696,6,1
-0.0007627411,0.0001263492,6,1
-0.0008267568,0.0001232699,6,1
-0.0008839659,0.0001260251,6,1
-0.0009171893,0.0001279698,6,1
-0.0009197823,0.0001188942,6,1
-0.0009047102,9.912221e-05,6,1
-0.0008940139,7.513654e-05,6,1
-0.0008975794,5.471631e-05,6,1
-0.0009098963,3.915804e-05,6,1
-0.0009175134,2.214118e-05,6,1
-0.0009098963,-1.844488e-06,6,1
-0.0008846141,-3.409549e-05,6,1
-0.0008530114,-6.991193e-05,6,1
-0.0008267568,-0.0001055663,6,1
-0.0008061745,-0.0001405724,6,1
-0.0007864026,-0.0001809267,6,1
-0.0007612825,-0.0002340841,6,1
-0.0007347037,-0.0003042584,6,1
-0.0007150938,-0.0003848048,6,1
-0.0007053699,-0.0004689167,6,1
-0.0006954839,-0.0005512458,6,1
-0.0006711741,-0.0006313061,6,1
-0.0006215822,-0.0007032631,6,1
-0.0005439529,-0.000757555,6,1
-0.0004556273,-0.00077992,6,1
-0.0003843186,-0.0007572309,6,1
-0.0003502849,-0.0006883531,6,1
-0.0003535262,-0.0005846313,6,1
-0.0003836704,-0.0004705373,6,1
-0.0004233763,-0.0003682741,6,1
-0.0004600031,-0.0002927517,6,1
-0.0004828543,-0.0002494803,6,1
-0.0004775062,-0.0002298704,6,1
-0.0004245108,-0.0002235498,6,1
-0.0003138202,-0.0002159328,6,1
-0.0001588858,-0.0001951884,6,1
3.989864e-06,-0.0001549962,6,1
0.0001385041,-9.551824e-05,6,1
0.0002342847,-2.550602e-05,6,1
0.0003047831,4.969229e-05,6,1
0.0003720403,0.0001248906,6,1
0.000435894,0.0001937684,6,1
0.0004707381,0.0002530843,6,1
0.0004444835,0.0003026763,6,1
0.0003550234,0.0003380065,6,1
0.0002337985,0.0003611819,6,1
0.0001300767,0.0003770643,6,1
7.57848e-05,0.0003875985,6,1
7.481241e-05,0.0003957018,6,1
0.0001075496,0.0004007258,6,1
0.000150659,0.0003987811,6,1
0.0001867996,0.0003921364,6,1
0.0002133783,0.0003885709,6,1
0.0002346088,0.0003971604,6,1
0.000257298,0.0004200116,6,1
0.0002832284,0.0004535592,6,1
0.0003089969,0.0004869446,6,1
0.0003480546,0.0005089855,6,1
0.0004239012,0.0005107683,6,1
0.0005477191,0.0004913204,6,1
0.0007055709,0.0004587452,6,1
0.0008697432,0.0004229288,6,1
0.001005878,0.000391164,6,1
0.001086587,0.0003675024,6,1
0.001101659,0.0003477304,6,1
0.00106017,0.0003282826,6,1
0.0009736272,0.0003059176,6,1
0.0008491609,0.0002752873,6,1
0.0006966573,0.0002289366,6,1
0.0005355643,0.0001662173,6,1
0.0003960259,9.296373e-05,6,1
0.0003051073,1.889987e-05,6,1
0.0002696149,-4.80331e-05,6,1
0.0002830664,-0.0001003802,6,1
0.0003273102,-0.0001305243,6,1
0.0003817642,-0.0001381414,6,1
0.0004286011,-0.0001285796,6,1
0.0004569625,-0.0001086455,6,1
0.0004579349,-8.352541e-05,6,1
0.0004240633,-5.921561e-05,6,1
0.0003469201,-3.749886e-05,6,1
0.0002273159,-2.226472e-05,6,1
7.594687e-05,-1.335113e-05,6,1
-9.859748e-05,-1.318906e-05,6,1
-0.0002812451,-1.983374e-05,6,1
-0.0004434724,-3.020592e-05,6,1
-0.0005420081,-4.203669e-05,6,1
-0.0005353634,-5.710876e-05,6,1
-0.0004202971,-7.590833e-05,6,1
-0.0002303566,-9.519411e-05,6,1
-1.221667e-05,-0.0001126972,6,1
0.0001858272,-0.0001245279,6,1
0.0003255275,-0.0001267968,6,1
0.0003882468,-0.0001216107,6,1
0.0003807918,-0.0001175591,6,1
0.0003208276,-0.0001229073,6,1
0.000222616,-0.0001376552,6,1
0.0001028497,-0.0001587237,6,1
-1.513384e-05,-0.0001788198,6,1
-0.0001126972,-0.0001896782,6,1
-0.0001861127,-0.0001854645,6,1
-0.0002451045,-0.0001640719,6,1
-0.0002919414,-0.0001305243,6,1
-0.0003185201,-9.681477e-05,6,1
-0.0003186821,-7.299116e-05,6,1
-0.000301017,-6.099833e-05,6,1
-0.0002838381,-5.678463e-05,6,1
-0.0002802727,-5.435365e-05,6,1
-0.0002921034,-5.289507e-05,6,1
-0.0003178718,-5.22468e-05,6,1
-0.000360333,-4.932962e-05,6,1
-0.0004172179,-4.398147e-05,6,1
-0.0004758855,-3.620233e-05,6,1
-0.0005199672,-2.518189e-05,6,1
-0.0005347152,-1.010982e-05,6,1
-0.0005126743,7.555301e-06,6,1
-0.0004561135,2.586868e-05,6,1
-0.0003660052,4.385793e-05,6,1
-0.0002457528,6.281957e-05,6,1
-0.0001034594,8.145709e-05,6,1
5.293359e-05,0.0001023635,6,1
0.0002166196,0.0001297526,6,1
0.0003772264,0.0001650828,6,1
0.0005282713,0.0002031682,6,1
0.0006647304,0.0002376881,6,1
0.0007744487,0.0002634565,6,1
0.0008389507,0.0002793389,6,1
0.0008355473,0.0002939248,6,1
0.0007582422,0.0003098072,6,1
0.0006161107,0.0003221241,6,1
0.0004313562,0.0003248792,6,1
0.0002365536,0.0003136967,6,1
6.557468e-05,0.0002931144,6,1
-4.738484e-05,0.0002730183,6,1
-8.320128e-05,0.0002605393,6,1
-4.171256e-05,0.0002517878,6,1
5.504044e-05,0.0002393087,6,1
0.0001645966,0.0002159713,6,1
0.0002312055,0.0001822617,6,1
0.0002098128,0.0001412592,6,1
9.733949e-05,9.798775e-05,6,1
-6.650855e-05,5.925414e-05,6,1
-0.0002088019,2.81376e-05,6,1
-0.0002692523,8.527692e-06,6,1
-0.0002366771,3.341602e-06,6,1
-0.0001491618,1.1769e-05,6,1
-7.137051e-05,2.457216e-05,6,1
-5.046408e-05,3.154097e-05,6,1
-0.0001054042,3.154097e-05,6,1
-0.0002185258,2.554455e-05,6,1
-0.0003541745,9.013889e-06,6,1
-0.0004734545,-2.291298e-05,6,1
-0.0005527044,-7.250496e-05,6,1
-0.0005873864,-0.0001415448,6,1
-0.0005932208,-0.0002331117,6,1
-0.0005877105,-0.0003510952,6,1
-0.0005784728,-0.0004914437,6,1
-0.0005630766,-0.0006389232,6,1
-0.0005339049,-0.0007716547,6,1
-0.0004911196,-0.0008680834,6,1
-0.0004431483,-0.0009162169,6,1
-0.0004005251,-0.0009128135,6,1
-0.0003741085,-0.0008617629,6,1
-0.0003637363,-0.0007787855,6,1
-0.000358064,-0.0006791154,6,1
-0.0003387782,-0.0005776625,6,1
-0.0002971275,-0.0004914437,6,1
-0.0002366771,-0.0004352071,6,1
-0.0001699062,-0.0004091146,6,1
-0.0001067007,-0.0003964735,6,1
-5.500191e-05,-0.0003770257,6,1
-2.388537e-05,-0.0003350507,6,1
-1.772689e-05,-0.0002702246,6,1
-3.555408e-05,-0.0001912988,6,1
-7.315322e-05,-0.000112211,6,1
-0.0001310105,-4.333321e-05,6,1
-0.000211557,5.934648e-06,6,1
-0.0003123616,3.13789e-05,6,1
-0.0004180282,3.429608e-05,6,1
-0.0005055434,2.278944e-05,6,1
-0.0005624284,5.772582e-06,6,1
-0.0005857658,-5.89612e-06,6,1
-0.0005805797,-4.923729e-06,6,1
-0.0005504355,6.420843e-06,6,1
-0.0004998712,1.9224e-05,6,1
-0.0004322899,2.829966e-05,6,1
-0.0003519055,3.251336e-05,6,1
-0.0002622834,3.316162e-05,6,1
-0.0001710407,3.170304e-05,6,1
-8.887356e-05,3.267542e-05,6,1
-1.270286e-05,3.526847e-05,6,1
6.816773e-05,3.413401e-05,6,1
0.0001569795,3.267542e-05,6,1
0.0002487085,3.705119e-05,6,1
0.0003381686,5.19612e-05,6,1
0.0004213082,8.097089e-05,6,1
0.0004955341,0.0001187321,6,1
0.0005509604,0.0001624898,6,1
0.0005712186,0.0002081922,6,1
0.0005470709,0.0002542187,6,1
0.0004882411,0.0002983005,6,1
0.0004130428,0.0003360618,6,1
0.0003464339,0.0003628026,6,1
0.0003083486,0.0003777126,6,1
0.0003067279,0.000386302,6,1
0.000334117,0.0003931088,6,1
0.0003885709,0.0004021844,6,1
0.0004709002,0.0004101256,6,1
0.0005687877,0.0004136911,6,1
0.0006478756,0.0004115842,6,1
0.0006801266,0.0004057499,6,1
0.0006699165,0.0003948915,6,1
0.0006483617,0.0003770643,6,1
0.0006478756,0.0003571303,6,1
0.0006799645,0.0003423823,6,1
0.0007344186,0.0003401134,6,1
0.0007823899,0.0003509718,6,1
0.0007900069,0.0003725265,6,1
0.0007324737,0.0003992672,6,1
0.000596825,0.0004216323,6,1
0.0003978086,0.0004298976,6,1
0.0001770756,0.0004211461,6,1
-1.934754e-05,0.0003945674,6,1
-0.0001561307,0.0003530786,6,1
-0.0002235498,0.0002992729,6,1
-0.000224036,0.0002410915,6,1
-0.0001567789,0.0001887444,6,1
-2.356124e-05,0.0001453108,6,1
0.0001492004,0.0001104668,6,1
0.0003120761,8.129502e-05,6,1
0.0004266563,5.682316e-05,6,1
0.0004838654,4.223728e-05,6,1
0.00050542,3.98063e-05,6,1
0.0005268127,4.888196e-05,6,1
0.0005723531,6.654708e-05,6,1
0.0006430136,8.550872e-05,6,1
0.0007221015,0.0001000946,6,1
0.0007903311,0.0001056048,6,1
0.0008264717,0.0001022015,6,1
0.000817396,8.84259e-05,6,1
0.0007561353,5.876794e-05,6,1
0.0006496583,1.517237e-05,6,1
0.0005133613,-4.446767e-05,6,1
0.0003655576,-0.0001206384,6,1
0.0002104611,-0.0002126914,6,1
4.013043e-05,-0.0003139823,6,1
-0.0001501342,-0.0004130042,6,1
-0.0003546606,-0.0005008436,6,1
-0.0005454115,-0.0005729626,6,1
-0.0006774947,-0.0006304958,6,1
-0.0007214144,-0.0006729569,6,1
-0.0006800878,-0.0006959701,6,1
-0.0005928966,-0.0006943495,6,1
-0.0005092709,-0.0006596675,6,1
