EMG1,EMG2,class,user
0.001180099,0.0003355756,6,1
0.001063249,0.0003271482,6,1
0.0008525642,0.0003148312,6,1
0.000591801,0.0002987867,6,1
0.0003339549,0.0002793389,6,1
0.0001221355,0.0002585945,6,1
-2.064406e-05,0.0002391467,6,1
-9.584238e-05,0.0002169437,6,1
-0.0001284175,0.0001889064,6,1
-0.0001447861,0.0001561692,6,1
-0.000161965,0.000123432,6,1
-0.0001838438,9.442231e-05,6,1
-0.0002081536,7.189524e-05,6,1
-0.0002373254,5.358185e-05,6,1
-0.0002703867,3.397195e-05,6,1
-0.0003099306,7.069105e-06,6,1
-0.0003658432,-3.198864e-05,6,1
-0.0004476861,-8.125649e-05,6,1
-0.0005609698,-0.0001269589,6,1
-0.000698077,-0.0001577513,6,1
-0.0008377773,-0.0001703924,6,1
-0.0009577056,-0.0001713648,6,1
-0.001040197,-0.0001710407,6,1
-0.001080389,-0.0001747682,6,1
-0.00108282,-0.0001848162,6,1
-0.001058348,-0.0001977815,6,1
-0.001015077,-0.0002107467,6,1
-0.0009573814,-0.0002201465,6,1
-0.0008914209,-0.0002232257,6,1
-0.000824812,-0.0002196603,6,1
-0.0007640376,-0.0002135018,6,1
-0.0007050458,-0.0002107467,6,1
-0.0006426507,-0.0002131776,6,1
-0.0005708557,-0.0002199844,6,1
-0.0004763717,-0.0002274394,6,1
-0.0003407231,-0.0002331117,6,1
-0.0001585616,-0.0002352185,6,1
5.017848e-05,-0.0002340841,6,1
0.0002451431,-0.0002269532,6,1
0.0003854917,-0.0002100984,6,1
0.0004464283,-0.0001853024,6,1
0.0004313562,-0.000159534,6,1
0.0003653956,-0.0001396,6,1
0.0002929524,-0.0001248521,6,1
0.0002641047,-0.0001086455,6,1
0.0003206656,-8.676672e-05,6,1
0.0004660382,-5.710876e-05,6,1
0.0006658648,-1.853722e-05,6,1
0.0008694191,2.603075e-05,6,1
0.001041046,7.254349e-05,6,1
0.001161623,0.0001140322,6,1
0.001230501,0.0001436902,6,1
0.001268424,0.0001613553,6,1
0.00131202,0.000170431,6,1
0.00137636,0.0001723757,6,1
0.001447345,0.0001676758,6,1
0.001488023,0.0001595726,6,1
0.001470196,0.0001516314,6,1
0.001389163,0.0001467694,6,1
0.00125238,0.0001427178,6,1
0.001072001,0.0001346145,6,1
0.0008653674,0.0001190562,6,1
0.0006532237,9.944634e-05,6,1
0.0004493454,8.080883e-05,6,1
0.0002642668,6.071273e-05,6,1
9.409818e-05,3.526847e-05,6,1
-7.088431e-05,3.827799e-06,6,1
-0.0002347323,-3.490581e-05,6,1
-0.0003911253,-7.882551e-05,6,1
-0.0005198052,-0.0001208004,6,1
-0.0005963,-0.0001554824,6,1
-0.0006078067,-0.0001799543,6,1
-0.0005625904,-0.0001922712,6,1
-0.0004802613,-0.0001856265,6,1
-0.0003830221,-0.0001546721,6,1
-0.0002851347,-0.0001044318,6,1
-0.0001901644,-4.074016e-05,6,1
-0.0001002181,2.846173e-05,6,1
-3.749886e-05,8.858796e-05,6,1
-3.198864e-05,0.0001245665,6,1
-9.179074e-05,0.0001297526,6,1
-0.0001912988,0.0001054428,6,1
-0.0002870794,5.56887e-05,6,1
-0.0003541745,-1.059602e-05,6,1
-0.0003925839,-8.465986e-05,6,1
-0.0004128421,-0.0001616409,6,1
-0.0004115456,-0.0002399184,6,1
-0.0003801049,-0.000315765,6,1
-0.0003151167,-0.0003812394,6,1
-0.0002303566,-0.0004212695,6,1
-0.0001522411,-0.0004235384,6,1
-0.0001130213,-0.0003865875,6,1
-0.0001274451,-0.0003168994,6,1
-0.0001752544,-0.0002280877,6,1
-0.0002224154,-0.0001368449,6,1
-0.0002439701,-5.613637e-05,6,1
-0.0002381357,7.393236e-06,6,1
-0.0002219292,5.471631e-05,6,1
-0.0002172293,8.777764e-05,6,1
-0.0002353806,0.0001093323,6,1
-0.0002731418,0.0001242423,6,1
-0.0003141443,0.0001346145,6,1
-0.0003418575,0.0001422316,6,1
-0.0003470436,0.0001415833,6,1
-0.0003329439,0.0001250527,6,1
-0.0003120375,9.037068e-05,6,1
-0.0002922655,4.466826e-05,6,1
-0.0002694143,7.485573e-07,6,1
-0.0002348944,-2.534396e-05,6,1
-0.0001830335,-2.46957e-05,6,1
-0.0001191798,1.234753e-06,6,1
-5.386745e-05,3.494434e-05,6,1
1.002961e-07,6.444023e-05,6,1
3.737532e-05,8.405014e-05,6,1
5.811968e-05,9.863601e-05,6,1
6.427817e-05,0.0001140322,6,1
6.395404e-05,0.0001368834,6,1
6.962632e-05,0.0001636242,6,1
9.085688e-05,0.0001889064,6,1
0.0001252147,0.0002078681,6,1
0.0001600588,0.0002203471,6,1
0.0001851789,0.0002290986,6,1
0.0001960373,0.0002363916,6,1
0.0001955511,0.0002483844,6,1
0.0001923098,0.0002621599,6,1
0.0001908512,0.0002626462,6,1
0.0001999268,0.000232502,6,1
0.0002286124,0.0001678379,6,1
0.0002730183,7.853991e-05,6,1
0.0003146691,-1.578211e-05,6,1
0.0003375204,-0.0001003802,6,1
0.0003404375,-0.0001677994,6,1
0.0003412479,-0.0002241981,6,1
0.0003568061,-0.0002788141,6,1
0.0003833848,-0.000333268,6,1
0.0003974845,-0.0003731361,6,1
0.0003683128,-0.0003791325,6,1
0.0002793389,-0.0003421817,6,1
0.0001480659,-0.0002663351,6,1
2.878586e-05,-0.0001676373,6,1
-2.129233e-05,-7.266703e-05,6,1
2.181705e-05,-4.275467e-06,6,1
0.0001349386,2.635488e-05,6,1
0.0002577842,2.603075e-05,6,1
0.0003284447,1.079661e-05,6,1
0.0003125623,-1.358292e-06,6,1
0.0002148369,4.151929e-06,6,1
6.751948e-05,3.380988e-05,6,1
-8.093236e-05,8.631905e-05,6,1
-0.0001859507,0.000155521,6,1
-0.0002277635,0.0002328261,6,1
-0.000221605,0.0003067279,6,1
-0.0001974573,0.000366368,6,1
-0.0001833576,0.0004091532,6,1
-0.0001956746,0.0004376768,6,1
-0.0002310048,0.0004569625,6,1
-0.0002739521,0.0004696036,6,1
-0.0003006929,0.0004781931,6,1
-0.0002836761,0.0004882411,6,1
-0.0001849783,0.0005000719,6,1
1.857574e-05,0.0005088235,6,1
0.0003290929,0.00050542,6,1
0.0007146465,0.0004819206,6,1
0.0011096,0.0004365423,6,1
0.001430814,0.0003710679,6,1
0.001594825,0.0002898731,6,1
0.00154896,0.0001974959,6,1
0.001293869,0.0001007429,6,1
0.0008934048,1.047248e-05,6,1
0.0004598797,-5.921561e-05,6,1
0.0001075496,-9.843541e-05,6,1
-9.66527e-05,-0.0001052422,6,1
-0.0001413827,-8.935975e-05,6,1
-6.359137e-05,-6.261898e-05,6,1
6.897806e-05,-3.733679e-05,6,1
0.0001858272,-2.388537e-05,6,1
0.0002360674,-3.134038e-05,6,1
0.0002023578,-6.731888e-05,6,1
9.555677e-05,-0.000127121,6,1
-5.581224e-05,-0.0001961608,6,1
-0.0002138259,-0.0002558008,6,1
-0.0003483401,-0.0002985861,6,1
-0.0004457413,-0.0003322956,6,1
-0.0005138087,-0.00036795,6,1
-0.0005753936,-0.0004087905,6,1
-0.0006497815,-0.0004504412,6,1
-0.0007389174,-0.0004836646,6,1
-0.000824812,-0.0005037607,6,1
-0.0008852624,-0.0005091089,6,1
-0.0009004966,-0.0004977643,6,1
-0.0008661387,-0.0004758855,6,1
-0.0007945059,-0.0004509274,6,1
-0.0007050458,-0.0004293727,6,1
-0.0006233649,-0.0004083043,6,1
-0.0005719902,-0.0003835083,6,1
-0.0005629146,-0.0003497987,6,1
-0.000591438,-0.000303448,6,1
-0.0006377887,-0.0002459149,6,1
-0.0006836532,-0.0001848162,6,1
-0.0007110422,-0.0001290658,6,1
-0.0007094215,-8.417367e-05,6,1
-0.0006750637,-5.062615e-05,6,1
-0.0006129927,-2.485776e-05,6,1
-0.0005285567,-2.81688e-06,6,1
-0.0004267797,1.906194e-05,6,1
-0.0003193304,4.02925e-05,6,1
-0.0002233878,6.119892e-05,6,1
-0.0001579134,8.161915e-05,6,1
-0.000137007,0.0001026876,6,1
-0.0001606685,0.0001273216,6,1
-0.0002151224,0.0001543865,6,1
-0.0002708729,0.0001819376,6,1
-0.0002854588,0.0002120818,6,1
-0.0002350565,0.0002453052,6,1
-0.0001240417,0.000284525,6,1
2.262738e-05,0.0003234207,6,1
0.0001718896,0.0003542131,6,1
0.0002843629,0.0003709058,6,1
0.0003284447,0.000373823,6,1
0.0002942489,0.0003671783,6,1
0.0001947408,0.0003527545,6,1
6.768154e-05,0.0003269861,6,1
-3.458168e-05,0.0002859836,6,1
-6.81292e-05,0.0002286124,6,1
-1.318906e-05,0.0001542244,6,1
0.0001185701,6.346784e-05,6,1
0.0002905214,-4.446767e-05,6,1
0.0004543695,-0.0001650443,6,1
0.0005644119,-0.0002857829,6,1
0.0006010387,-0.0003801049,6,1
0.000574622,-0.0004215936,6,1
0.0005159543,-0.0004016596,6,1
0.0004704139,-0.0003246786,6,1
0.0004704139,-0.0002070192,6,1
0.0005272989,-6.81292e-05,6,1
0.0006274553,6.865393e-05,6,1
0.0007251808,0.0001850168,6,1
0.0007686144,0.0002743149,6,1
0.0007191843,0.0003357376,6,1
0.000567005,0.0003769022,6,1
0.0003354135,0.0004021844,6,1
7.432621e-05,0.0004166082,6,1
-0.0001577513,0.0004251977,6,1
-0.0003190063,0.0004307079,6,1
-0.0004016596,0.0004298976,6,1
-0.0004264556,0.0004192013,6,1
-0.0004217557,0.0003999155,6,1
-0.0004143007,0.0003709058,6,1
-0.0004177041,0.0003321722,6,1
-0.0004392588,0.0002874421,6,1
-0.0004797751,0.0002464396,6,1
-0.0005228845,0.0002185644,6,1
-0.0005436288,0.0002031682,6,1
-0.0005215878,0.0001979821,6,1
-0.0004465517,0.0001949028,6,1
-0.0003313232,0.0001838824,6,1
-0.0002034537,0.0001595726,6,1
-9.778715e-05,0.0001198666,6,1
-2.89094e-05,6.330578e-05,6,1
1.808955e-05,-7.840905e-06,6,1
8.680524e-05,-8.903562e-05,6,1
0.0002135403,-0.0001708786,6,1
0.000391164,-0.0002467252,6,1
0.0005835356,-0.0003162512,6,1
0.0007613214,-0.0003865875,6,1
0.0009135009,-0.000459841,6,1
0.001042667,-0.0005290429,6,1
0.00115271,-0.0005807417,6,1
0.001229853,-0.0006021344,6,1
0.001245573,-0.0005920863,6,1
0.001172482,-0.0005587008,6,1
0.001005878,-0.000516888,6,1
0.0007626179,-0.0004783165,6,1
0.000473007,-0.0004476861,6,1
0.0001694586,-0.0004245108,6,1
-0.0001118868,-0.0004071698,6,1
-0.0003399127,-0.0003935563,6,1
-0.0005006815,-0.0003788084,6,1
-0.0005911139,-0.0003582261,6,1
-0.0006282268,-0.000328244,6,1
-0.000648485,-0.0002895104,6,1
-0.0006834911,-0.0002457528,6,1
-0.0007468587,-0.0002003745,6,1
-0.0008236776,-0.0001580754,6,1
-0.0008781315,-0.0001204763,6,1
-0.0008821832,-8.644259e-05,6,1
-0.0008402083,-5.22468e-05,6,1
-0.0007598239,-1.335113e-05,6,1
-0.0006280648,3.040651e-05,6,1
-0.0004214316,7.789165e-05,6,1
-0.0001336036,0.0001214872,6,1
0.0001848548,0.000155521,6,1
0.0004550177,0.0001773998,6,1
0.0006062248,0.0001871237,6,1
0.0006034696,0.0001859892,6,1
0.0004613383,0.0001833962,6,1
0.0002278021,0.0001848548,6,1
-3.231277e-05,0.0001843686,6,1
-0.0002629317,0.0001783722,6,1
-0.0004321279,0.0001645966,6,1
-0.0005352014,0.0001490383,6,1
-0.0005870623,0.0001367214,6,1
-0.0006107238,0.0001326697,6,1
-0.0006309819,0.0001394765,6,1
-0.0006669604,0.0001586002,6,1
-0.0007243316,0.0001900409,6,1
-0.000782513,0.0002263435,6,1
-0.0008005023,0.000259891,6,1
-0.0007489655,0.0002840388,6,1
-0.0006332509,0.0002974902,6,1
-0.0004851232,0.0003064038,6,1
-0.0003395886,0.0003154794,6,1
-0.0002237119,0.000326824,6,1
-0.0001543479,0.0003360618,6,1
-0.0001310105,0.0003384927,6,1
-0.0001216107,0.0003342791,6,1
-6.618442e-05,0.0003299033,6,1
9.896015e-05,0.0003282826,6,1
0.0003999155,0.0003297412,6,1
0.0007987585,0.0003307136,6,1
0.001212998,0.0003281205,6,1
0.001553822,0.0003214759,6,1
0.001763535,0.0003106175,6,1
0.001835492,0.0002960316,6,1
0.001799352,0.0002751252,6,1
0.001691416,0.0002462775,6,1
0.001541505,0.0002106232,6,1
0.001369715,0.0001694586,6,1
0.001181719,0.0001244044,6,1
0.0009794616,7.935024e-05,6,1
0.0007712074,4.110282e-05,6,1
0.0005723531,9.986281e-06,6,1
0.0003871123,-1.497178e-05,6,1
0.0002109473,-3.620233e-05,6,1
3.737532e-05,-5.435365e-05,6,1
-0.0001339277,-7.33153e-05,6,1
-0.0003002067,-9.584238e-05,6,1
-0.0004604893,-0.0001229073,6,1
-0.0006201236,-0.0001509446,6,1
-0.0007821888,-0.0001802784,6,1
-0.0009346923,-0.0002079916,6,1
-0.001054459,-0.0002303566,6,1
-0.001127388,-0.0002455907,6,1
-0.001153156,-0.0002535319,6,1
-0.001148781,-0.0002596904,6,1
-0.001139543,-0.0002671454,6,1
-0.001136464,-0.0002746004,6,1
-0.001126091,-0.0002773555,6,1
-0.001089465,-0.0002728177,6,1
-0.001017346,-0.0002626076,6,1
-0.0009152445,-0.0002517492,6,1
-0.000784944,-0.0002452666,6,1
-0.0006293613,-0.0002480217,6,1
-0.0004541688,-0.0002593663,6,1
-0.0002656868,-0.0002775176,6,1
-6.845333e-05,-0.0002956689,6,1
0.0001302388,-0.0003073376,6,1
0.0003219621,-0.0003110651,6,1
0.0005021787,-0.0003091203,6,1
0.0006775336,-0.0003031239,6,1
0.0008400852,-0.0002914552,6,1
0.0009718445,-0.0002708729,6,1
0.001061629,-0.0002405667,6,1
0.001116569,-0.0002050744,6,1
0.001144282,-0.000171851,6,1
0.001136017,-0.0001477033,6,1
0.001069084,-0.0001318209,6,1
0.0009264661,-0.000122259,6,1
0.0007104329,-0.0001131834,6,1
0.0004478869,-9.989401e-05,6,1
0.0001791825,-8.368748e-05,6,1
-5.970181e-05,-6.650855e-05,6,1
-0.0002397564,-5.062615e-05,6,1
-0.0003397507,-3.134038e-05,6,1
-0.0003473677,-8.651231e-06,6,1
-0.0002723315,1.59827e-05,6,1
-0.0001514308,4.239934e-05,6,1
-3.879538e-05,7.076078e-05,6,1
2.570662e-05,9.896015e-05,6,1
3.478228e-05,0.0001252147,6,1
4.80019e-06,0.0001483901,6,1
-4.317115e-05,0.0001670276,6,1
-0.0001036215,0.0001832341,6,1
-0.0001789819,0.0001996027,6,1
-0.0002741142,0.0002167816,6,1
-0.0003856151,0.0002299089,6,1
-0.0004890127,0.0002341226,6,1
-0.0005549733,0.0002313675,6,1
-0.0005523803,0.0002287745,6,1
-0.0004564377,0.0002328261,6,1
-0.0002616352,0.000242388,6,1
9.500085e-06,0.0002506533,6,1
0.0003031625,0.0002532463,6,1
0.0005556603,0.0002509774,6,1
0.0007271256,0.000249843,6,1
0.0008031343,0.0002529222,6,1
0.0007853071,0.0002618358,6,1
0.0006848265,0.000272208,6,1
0.0005172509,0.0002782044,6,1
0.0003057555,0.0002799871,6,1
8.259155e-05,0.0002783665,6,1
-0.0001162626,0.0002717218,6,1
-0.0002724935,0.0002611876,6,1
-0.0003909633,0.0002487085,6,1
-0.0004878783,0.0002331503,6,1
-0.000574097,0.0002125679,6,1
-0.0006449196,0.0001906891,6,1
-0.0006841394,0.0001761032,6,1
-0.0006813843,0.0001725378,6,1
-0.0006374646,0.0001723757,6,1
-0.0005564319,0.0001707551,6,1
-0.0004444448,0.0001668655,6,1
-0.0003138202,0.0001561692,6,1
-0.0001806025,0.0001312112,6,1
-5.208474e-05,9.150514e-05,6,1
6.557468e-05,4.175109e-05,6,1
0.000158114,-1.529591e-05,6,1
0.0002148369,-8.109443e-05,6,1
0.0002326641,-0.0001536997,6,1
0.0002088404,-0.0002334358,6,1
0.0001469315,-0.0003141443,6,1
6.654708e-05,-0.0003935563,6,1
-6.176923e-08,-0.0004659995,6,1
-2.777494e-05,-0.000526774,6,1
-1.3027e-05,-0.0005679386,6,1
1.857574e-05,-0.0005857658,6,1
3.818565e-05,-0.0005854416,6,1
2.76514e-05,-0.0005744212,6,1
-9.461558e-06,-0.0005608077,6,1
-5.565017e-05,-0.0005536768,6,1
-9.033215e-05,-0.000556594,6,1
-9.843541e-05,-0.0005668041,6,1
-8.07703e-05,-0.0005755557,6,1
-5.743289e-05,-0.0005697213,6,1
-6.213279e-05,-0.0005389289,6,1
-0.0001238797,-0.0004762096,6,1
-0.0002417012,-0.0003830221,6,1
-0.0003812394,-0.0002729798,6,1
-0.0004950092,-0.0001639098,6,1
-0.0005520562,-7.039812e-05,6,1
-0.0005458977,-1.358292e-06,6,1
-0.0004904714,4.02925e-05,6,1
-0.0004044147,5.957827e-05,6,1
-0.0003076617,6.379197e-05,6,1
-0.0002186879,5.974033e-05,6,1
-0.0001499722,5.504044e-05,6,1
-0.0001065387,5.666109e-05,6,1
-8.158062e-05,6.687121e-05,6,1
-5.791909e-05,8.923623e-05,6,1
-2.356124e-05,0.0001268354,6,1
2.651694e-05,0.0001782101,6,1
9.21534e-05,0.0002347709,6,1
0.0001621656,0.0002835526,6,1
0.0002242366,0.0003072141,6,1
0.0002778803,0.0002942489,6,1
0.000339141,0.0002446569,6,1
0.000416122,0.0001786963,6,1
0.0004906721,0.0001227837,6,1
0.0005352402,9.280167e-05,6,1
0.0005352402,9.458438e-05,6,1
0.0004973168,0.0001260251,6,1
0.0004362182,0.0001851789,6,1
0.0003675024,0.0002678322,6,1
0.0002997591,0.0003628026,6,1
0.0002438466,0.0004540453,6,1
0.0002051129,0.000530054,6,1
0.0001838824,0.0005814288,6,1
0.0001830721,0.0006005525,6,1
0.0001974959,0.0005883976,6,1
0.0002159713,0.0005537156,6,1
0.0002287745,0.0005109303,6,1
0.0002235884,0.0004726828,6,1
0.0001913374,0.0004417284,6,1
0.0001331559,0.000411098,6,1
7.189524e-05,0.0003683128,6,1
5.763349e-05,0.0002965178,6,1
0.0001435281,0.0001913374,6,1
0.0003418961,5.876794e-05,6,1
0.0006070351,-8.757704e-05,6,1
0.0008580745,-0.0002342462,6,1
0.001010416,-0.0003690845,6,1
0.001015278,-0.0004783165,6,1
0.0008765499,-0.0005486528,6,1
0.0006477135,-0.0005674524,6,1
0.0003924605,-0.0005245051,6,1
0.0001634622,-0.0004209454,6,1
-1.399939e-05,-0.0002742763,6,1
-0.0001389517,-0.0001159385,6,1
-0.0002263049,2.424803e-05,6,1
-0.0002911311,0.0001240803,6,1
-0.0003452609,0.0001726999,6,1
-0.0003924218,0.000180479,6,1
-0.0004269418,0.0001650828,6,1
-0.0004407173,0.0001415833,6,1
-0.0004269418,0.0001141943,6,1
-0.0003899909,8.875003e-05,6,1
-0.0003515814,7.30297e-05,6,1
-0.000335537,7.124698e-05,6,1
-0.0003523917,8.323981e-05,6,1
-0.0003995528,0.0001065772,6,1
-0.0004609755,0.0001389903,6,1
-0.0005225603,0.0001799928,6,1
-0.0005773384,0.0002253711,6,1
-0.0006230408,0.000267346,6,1
-0.0006570745,0.000304297,6,1
-0.0006700397,0.000341572,6,1
-0.0006525366,0.000383871,6,1
-0.0006019723,0.0004232529,6,1
-0.0005287188,0.0004477248,6,1
-0.0004489826,0.0004477248,6,1
-0.0003742705,0.0004133669,6,1
-0.0003165753,0.0003342791,6,1
-0.0002809209,0.000205275,6,1
-0.0002621213,3.332369e-05,6,1
-0.0002499665,-0.0001630995,6,1
-0.0002366771,-0.0003544986,6,1
-0.000224036,-0.0005136467,6,1
-0.0002177155,-0.0006241752,6,1
-0.0002219292,-0.0006859221,6,1
-0.0002384598,-0.0007133111,6,1
-0.0002640662,-0.0007219006,6,1
-0.0002899966,-0.0007287074,6,1
-0.0003117133,-0.0007481552,6,1
-0.0003301888,-0.000789968,6,1
-0.0003486642,-0.0008583596,6,1
-0.0003685983,-0.0009525195,6,1
-0.0003885323,-0.001064669,6,1
-0.0004021458,-0.00118168,6,1
-0.0003943667,-0.001277136,6,1
-0.0003467195,-0.001326242,6,1
-0.0002567732,-0.00131117,6,1
-0.0001441378,-0.001225275,6,1
-3.944364e-05,-0.00107261,6,1
3.283749e-05,-0.0008703524,6,1
6.930219e-05,-0.0006441093,6,1
8.145709e-05,-0.0004181903,6,1
8.323981e-05,-0.000204102,6,1
8.064677e-05,-4.437533e-06,6,1
7.465034e-05,0.0001835583,6,1
6.816773e-05,0.0003545372,6,1
7.108491e-05,0.0004979651,6,1
0.0001039842,0.000606873,6,1
0.0001856651,0.0006814231,6,1
0.0003161277,0.0007295565,6,1
0.0004901859,0.0007588904,6,1
0.0007084881,0.0007765555,6,1
0.0009789753,0.0007866036,6,1
0.001296786,0.0007917897,6,1
0.001645389,0.0007903311,6,1
0.001995613,0.000779959,6,1
0.002297704,0.0007609973,6,1
0.002483594,0.0007363633,6,1
0.002498018,0.0007067053,6,1
0.00232169,0.0006754267,6,1
0.001983783,0.0006431757,6,1
0.001551067,0.0006123833,6,1
0.001090314,0.0005840218,6,1
0.0006496583,0.0005574431,6,1
0.0002600531,0.0005337815,6,1
-5.743289e-05,0.0005135234,6,1
-0.0002980999,0.000497803,6,1
-0.0004694029,0.0004851619,6,1
-0.0005753936,0.0004717105,6,1
-0.0006120203,0.0004542074,6,1
-0.0005818762,0.0004323286,6,1
-0.0005016539,0.0004065602,6,1
-0.0004042526,0.000378847,6,1
-0.0003196545,0.0003519442,6,1
-0.0002617972,0.0003289309,6,1
-0.000236353,0.0003127243,6,1
-0.0002408908,0.0003002453,6,1
-0.0002679557,0.0002843629,6,1
-0.0003063652,0.0002613496,6,1
-0.0003514194,0.0002313675,6,1
-0.0003990665,0.0001981441,6,1
-0.0004441207,0.0001668655,6,1
-0.0004818819,0.0001428799,6,1
-0.0005084606,0.0001263492,6,1
-0.0005245051,0.0001114392,6,1
-0.0005408737,9.490851e-05,6,1
-0.0005669662,7.30297e-05,6,1
-0.0005961379,4.531652e-05,6,1
-0.0006056998,1.144487e-05,6,1
-0.0005653456,-2.680255e-05,6,1
-0.0004651892,-7.363943e-05,6,1
-0.0003243544,-0.0001284175,6,1
-0.000176875,-0.000191785,6,1
-6.44017e-05,-0.0002601766,6,1
-1.545797e-05,-0.0003227338,6,1
-3.101625e-05,-0.0003684362,6,1
-8.757704e-05,-0.0003912874,6,1
-0.0001481895,-0.0003891806,6,1
-0.0001959987,-0.0003648708,6,1
-0.0002276015,-0.0003287302,6,1
-0.0002407288,-0.0002896725,6,1
-0.0002335979,-0.0002541802,6,1
-0.0002128535,-0.0002266291,6,1
-0.0001935677,-0.0002070192,6,1
-0.0001987538,-0.0001950263,6,1
-0.0002467252,-0.0001872472,6,1
-0.000335699,-0.0001838438,6,1
-0.0004470379,-0.0001799543,6,1
-0.0005564319,-0.0001721751,6,1
-0.0006395715,-0.0001611547,6,1
-0.0006791154,-0.0001478653,6,1
-0.0006543194,-0.0001314967,6,1
-0.0005386047,-0.0001133454,6,1
-0.0003214373,-9.843541e-05,6,1
-2.09682e-05,-9.519411e-05,6,1
0.000304297,-0.0001055663,6,1
0.0005705704,-0.0001282554,6,1
0.0007120535,-0.0001577513,6,1
0.0007024916,-0.0001872472,6,1
0.0005678153,-0.0002078295,6,1
0.0003621543,-0.0002159328,6,1
0.0001425557,-0.0002094502,6,1
-6.132246e-05,-0.0001872472,6,1
-0.0002428356,-0.000151917,6,1
-0.0004039285,-0.0001114006,6,1
-0.0005343911,-7.169464e-05,6,1
-0.0006150996,-3.976777e-05,6,1
-0.0006327647,-2.031993e-05,6,1
-0.0005920863,-1.529591e-05,6,1
-0.0005073262,-1.724069e-05,6,1
-0.0003950149,-1.886135e-05,6,1
-0.0002697385,-1.367526e-05,6,1
-0.0001392759,2.855407e-06,6,1
-1.480971e-05,2.781346e-05,6,1
9.085688e-05,5.585077e-05,6,1
0.0001697827,8.388807e-05,6,1
0.0002148369,0.0001125736,6,1
0.0002156472,0.0001393144,6,1
0.0001649207,0.0001603829,6,1
7.254349e-05,0.0001707551,6,1
-2.615429e-05,0.0001689724,6,1
-8.676672e-05,0.0001576278,6,1
-9.843541e-05,0.000140773,6,1
-9.276313e-05,0.0001198666,6,1
-0.0001230693,0.0001002567,6,1
-0.0002280877,8.388807e-05,6,1
-0.000407656,7.157111e-05,6,1
-0.0006293613,6.492643e-05,6,1
-0.0008426392,6.46023e-05,6,1
-0.0009967634,6.881599e-05,6,1
-0.001052838,7.367795e-05,6,1
-0.0009902808,7.659513e-05,6,1
-0.0008124951,7.52986e-05,6,1
-0.0005528665,6.865393e-05,6,1
-0.0002530457,5.56887e-05,6,1
4.904402e-05,3.834771e-05,6,1
0.0003166139,1.808955e-05,6,1
0.0005185474,-6.544382e-06,6,1
0.0006399344,-3.63644e-05,6,1
0.0006906608,-6.537409e-05,6,1
0.0006879058,-9.098041e-05,6,1
0.000641393,-0.0001105903,6,1
0.0005537156,-0.0001269589,6,1
0.0004367043,-0.0001431655,6,1
0.0003132105,-0.0001621271,6,1
0.0002109473,-0.0001836818,6,1
0.0001519555,-0.0002071812,6,1
0.0001509831,-0.000231329,6,1
0.0002047888,-0.0002533699,6,1
0.0002976523,-0.0002708729,6,1
0.0004119083,-0.0002750866,6,1
0.0005413986,-0.0002624455,6,1
0.0006921195,-0.0002358668,6,1
0.0008872462,-0.0002055606,6,1
0.001149144,-0.0001853024,6,1
0.001465982,-0.0001854645,6,1
0.00177488,-0.0002036158,6,1
0.0019914,-0.0002285739,6,1
0.002048609,-0.0002473734,6,1
0.001921549,-0.000251101,6,1
0.001637448,-0.0002370013,6,1
0.001254973,-0.0002047502,6,1
0.0008316578,-0.0001608306,6,1
0.0004138531,-0.000117235,6,1
3.818565e-05,-8.02841e-05,6,1
-0.0002682799,-5.208474e-05,6,1
-0.0004948471,-3.717473e-05,6,1
-0.00064103,-3.409549e-05,6,1
-0.0007024527,-3.652646e-05,6,1
-0.0006761982,-3.830919e-05,6,1
-0.0005797693,-3.506788e-05,6,1
-0.0004478482,-2.307504e-05,6,1
-0.0003143064,-5.247859e-06,6,1
-0.0002120432,1.679302e-05,6,1
-0.0001618029,3.624086e-05,6,1
-0.0001600202,4.677511e-05,6,1
-0.0001989159,4.547859e-05,6,1
-0.0002653627,3.413401e-05,6,1
-0.000342992,1.808955e-05,6,1
-0.0004134903,2.369211e-06,6,1
-0.0004624341,-6.706447e-06,6,1
-0.0004802613,-5.247859e-06,6,1
-0.000464703,4.313994e-06,6,1
-0.000422566,1.857574e-05,6,1
-0.0003601709,3.55926e-05,6,1
-0.0002828657,5.260946e-05,6,1
-0.0001951884,6.914012e-05,6,1
-0.0001096179,8.761557e-05,6,1
-3.717473e-05,0.0001116012,6,1
1.403791e-05,0.0001398006,6,1
3.235129e-05,0.0001670276,6,1
9.824215e-06,0.0001905271,6,1
-4.90055e-05,0.0002109473,6,1
-0.0001230693,0.0002315296,6,1
-0.0001794681,0.0002482223,6,1
-0.0001948643,0.0002568118,6,1
-0.0001674752,0.0002534084,6,1
-0.0001177212,0.0002435224,6,1
-6.731888e-05,0.0002372019,6,1
-2.874733e-05,0.0002389846,6,1
-8.975362e-06,0.0002485465,6,1
-2.129233e-05,0.0002600531,6,1
-9.033215e-05,0.0002735045,6,1
-0.0002193361,0.0002864697,6,1
-0.0003752429,0.0002934386,6,1
-0.0005018159,0.0002910076,6,1
-0.0005494631,0.0002764217,6,1
-0.0005018159,0.0002550291,6,1
-0.0003856151,0.0002307193,6,1
-0.0002509389,0.0002068957,6,1
-0.0001543479,0.0001863134,6,1
-0.0001305243,0.0001739964,6,1
-0.0001723372,0.0001678379,6,1
-0.0002517492,0.000163138,6,1
-0.0003386162,0.0001560072,6,1
-0.0004146248,0.0001464453,6,1
-0.0004695649,0.0001368834,6,1
-0.0004959816,0.0001278078,6,1
-0.0004958195,0.0001185701,6,1
-0.0004742648,0.0001104668,6,1
-0.0004379622,0.0001030118,6,1
-0.0003908012,9.53947e-05,6,1
-0.000342992,8.291568e-05,6,1
-0.0003074997,6.427817e-05,6,1
-0.0002934,3.818565e-05,6,1
-0.0002974516,4.47606e-06,6,1
-0.0003044204,-3.393342e-05,6,1
-0.0002966413,-7.23429e-05,6,1
-0.0002548284,-0.0001044318,6,1
-0.000166827,-0.0001295519,6,1
-3.036798e-05,-0.0001543479,6,1
0.0001443384,-0.0001815749,6,1
0.0003266619,-0.0002092881,6,1
0.0004744656,-0.0002337599,6,1
0.0005430193,-0.0002545043,6,1
0.0005086614,-0.0002684419,6,1
0.000373823,-0.0002765452,6,1
0.0001767515,-0.0002817312,6,1
-2.485776e-05,-0.0002862691,6,1
-0.0001783336,-0.0002922655,6,1
-0.0002553146,-0.0002987481,6,1
-0.0002648765,-0.000303448,6,1
-0.0002344082,-0.000300855,6,1
-0.0001838438,-0.0002864312,6,1
-0.0001065387,-0.0002577456,6,1
1.322759e-05,-0.0002172293,6,1
0.0001694586,-0.0001673132,6,1
0.0003203414,-0.0001141558,6,1
0.0004164462,-6.48879e-05,6,1
0.0004271425,-2.275091e-05,6,1
0.0003623164,1.1769e-05,6,1
0.000259729,3.624086e-05,6,1
0.0001582761,5.341979e-05,6,1
7.270556e-05,6.687121e-05,6,1
1.014835e-05,8.04847e-05,6,1
-3.798505e-05,9.63671e-05,6,1
-9.568031e-05,0.0001150046,6,1
-0.0001865989,0.0001349386,6,1
-0.000318196,0.0001529279,6,1
-0.0004695649,0.0001598967,6,1
-0.0005995413,0.0001511452,6,1
-0.0006685811,0.0001294284,6,1
-0.000650754,0.0001033359,6,1
-0.0005293671,8.356394e-05,6,1
-0.0003138202,7.027458e-05,6,1
-4.38194e-05,6.087479e-05,6,1
0.0002336365,4.871989e-05,6,1
0.0004961824,2.862379e-05,6,1
0.0007443045,-1.034161e-06,6,1
0.0009933992,-3.522994e-05,6,1
0.001263238,-6.81292e-05,6,1
0.00156387,-9.227693e-05,6,1
0.001864988,-0.0001029732,6,1
0.002098039,-0.0001007043,6,1
0.002191551,-8.498399e-05,6,1
0.002108411,-6.537409e-05,6,1
0.001856723,-5.613637e-05,6,1
0.001490779,-6.942573e-05,6,1
0.001090476,-0.000104756,6,1
0.0007271256,-0.0001498101,6,1
0.0004428628,-0.00018433,6,1
0.0002525981,-0.0001932436,6,1
0.0001430419,-0.0001687718,6,1
8.437427e-05,-0.0001161005,6,1
4.418206e-05,-5.046408e-05,6,1
-6.176923e-08,1.630683e-05,6,1
-5.354332e-05,8.194328e-05,6,1
-0.0001120489,0.0001487142,6,1
-0.0001724993,0.0002172679,6,1
-0.0002305186,0.0002851732,6,1
-0.0002841623,0.0003483787,6,1
-0.0003322956,0.0004021844,6,1
-0.0003757291,0.0004448076,6,1
-0.0004194868,0.0004751139,6,1
-0.0004703753,0.0004916445,6,1
-0.0005298533,0.0004947237,6,1
-0.0005928966,0.0004875929,6,1
-0.0006541573,0.0004786793,6,1
-0.0007126629,0.0004718725,6,1
-0.0007641996,0.0004652279,6,1
-0.0008003402,0.0004467524,6,1
-0.0008139537,0.000406074,6,1
-0.0008050401,0.0003342791,6,1
-0.0007846198,0.0002292607,6,1
-0.0007729512,9.847395e-05,6,1
-0.0007820268,-4.333321e-05,6,1
-0.0008032574,-0.00018433,6,1
-0.0008064987,-0.0003160891,6,1
-0.0007638755,-0.0004403932,6,1
-0.0006710121,-0.0005624284,6,1
-0.0005431426,-0.0006859221,6,1
-0.0003995528,-0.00080974,6,1
-0.000261311,-0.0009256167,6,1
-0.0001441378,-0.001017184,6,1
-5.532604e-05,-0.001059483,6,1
5.772582e-06,-0.001030311,6,1
3.915804e-05,-0.0009335579,6,1
4.256141e-05,-0.0007919128,6,1
1.776542e-05,-0.0006369784,6,1
-2.874733e-05,-0.0004938748,6,1
-8.692878e-05,-0.0003745947,6,1
-0.0001475412,-0.0002817312,6,1
-0.0001925954,-0.0002079916,6,1
-0.0001997262,-0.0001421931,6,1
-0.0001541859,-7.720486e-05,6,1
-6.164659e-05,-1.270286e-05,6,1
4.564065e-05,4.45062e-05,6,1
0.000128456,9.280167e-05,6,1
0.0001639484,0.0001338042,6,1
0.0001542244,0.0001642725,6,1
0.0001232699,0.0001814514,6,1
9.426025e-05,0.0001851789,6,1
7.708133e-05,0.000177886,6,1
6.865393e-05,0.0001626518,6,1
6.152305e-05,0.0001415833,6,1
5.666109e-05,0.0001201907,6,1
6.362991e-05,0.0001080358,6,1
8.664318e-05,0.0001103047,6,1
0.0001227837,0.0001257009,6,1
0.0001633001,0.000148228,6,1
0.0002030061,0.0001714034,6,1
0.0002397949,0.0001945787,6,1
0.0002679943,0.000217754,6,1
0.0002840388,0.0002407673,6,1
0.0002914938,0.0002644289,6,1
0.0002997591,0.0002910076,6,1
0.0003182346,0.0003200173,6,1
0.0003396272,0.0003470822,6,1
0.0003496752,0.000361506,6,1
0.00033671,0.0003597233,6,1
0.0002983005,0.0003449753,6,1
0.0002401191,0.0003203414,6,1
0.0001709172,0.0002936006,6,1
0.0001009049,0.000274639,6,1
3.769945e-05,0.0002713977,6,1
-2.330684e-06,0.0002848491,6,1
-5.57199e-06,0.0003101313,6,1
2.522042e-05,0.0003381686,6,1
7.643307e-05,0.000356482,6,1
0.0001294284,0.0003563199,6,1
0.0001624898,0.0003384927,6,1
0.000165569,0.0003146691,6,1
0.0001355869,0.0002960316,6,1
7.140904e-05,0.0002863077,6,1
-2.258885e-05,0.0002838767,6,1
-0.0001365208,0.0002877662,6,1
-0.0002514251,0.0002958695,6,1
-0.000350447,0.000304459,6,1
-0.0004232143,0.0003073762,6,1
-0.0004634065,0.0002979764,6,1
-0.0004734545,0.0002769079,6,1
-0.0004651892,0.0002478982,6,1
-0.0004489826,0.0002135403,6,1
-0.0004245108,0.0001733481,6,1
-0.0003796187,0.0001378558,6,1
-0.0003112272,0.0001227837,6,1
-0.0002297083,0.000135749,6,1
-0.0001512687,0.0001688103,6,1
-8.482193e-05,0.0002091646,6,1
-3.085418e-05,0.000244981,6,1
1.355172e-05,0.0002675081,6,1
5.893001e-05,0.0002681563,6,1
0.0001117633,0.000239957,6,1
0.0001699448,0.0001788584,6,1
0.0002243987,8.79397e-05,6,1
0.0002566497,-2.680255e-05,6,1
0.0002478982,-0.0001498101,6,1
0.0001968476,-0.0002668213,6,1
0.0001151667,-0.0003711913,6,1
1.630683e-05,-0.0004601652,6,1
-8.303922e-05,-0.0005306636,6,1
-0.0001603444,-0.0005841451,6,1
-0.0002023193,-0.0006180168,6,1
-0.0001937298,-0.0006332509,6,1
-0.0001258245,-0.0006373025,6,1
-1.448558e-05,-0.0006394094,6,1
0.0001107909,-0.0006431369,6,1
0.000220023,-0.0006488092,6,1
0.0002824181,-0.0006528608,6,1
0.0002877662,-0.0006481609,6,1
0.000257298,-0.0006266062,6,1
0.000235095,-0.0005825245,6,1
0.0002576221,-0.0005183466,6,1
0.0003328204,-0.0004452552,6,1
0.0004324906,-0.0003737844,6,1
0.000514982,-0.0003086341,6,1
0.0005470709,-0.0002509389,6,1
0.0005114165,-0.0001974573,6,1
0.0004065602,-0.0001485136,6,1
0.000252436,-0.0001013526,6,1
7.6271e-05,-5.451572e-05,6,1
-9.584238e-05,-1.3027e-05,6,1
-0.0002370013,2.230325e-05,6,1
-0.0003248407,5.730935e-05,6,1
-0.0003507711,9.409818e-05,6,1
-0.0003269475,0.0001329939,6,1
-0.0002814071,0.0001722137,6,1
-0.000238946,0.0002091646,6,1
-0.0002172293,0.0002417397,6,1
-0.0002329496,0.0002670219,6,1
-0.0002895104,0.0002848491,6,1
-0.0003702189,0.0002976523,6,1
-0.0004481723,0.0003080245,6,1
-0.0004954954,0.0003141829,6,1
-0.0004781544,0.0003151553,6,1
-0.0003648708,0.0003064038,6,1
-0.0001481895,0.000284525,6,1
0.0001466074,0.0002514636,6,1
0.0004611762,0.0002085163,6,1
0.0007209671,0.0001521176,6,1
0.0008613158,7.853991e-05,6,1
0.0008507816,-1.351319e-05,6,1
0.0007023296,-0.0001264727,6,1
0.0004733311,-0.0002502906,6,1
0.0002407673,-0.0003635742,6,1
6.978839e-05,-0.0004467137,6,1
-1.610624e-05,-0.000489661,6,1
-3.68506e-05,-0.0004893369,6,1
-2.809907e-05,-0.0004493068,6,1
-7.030578e-06,-0.0003810773,6,1
2.667901e-05,-0.0002948586,6,1
7.6271e-05,-0.0001982676,6,1
0.0001323456,-9.989401e-05,6,1
0.0001752929,-4.599598e-06,6,1
0.0001955511,8.242948e-05,6,1
0.0002013854,0.0001595726,6,1
0.0002099749,0.000227478,6,1
0.0002294227,0.000284687,6,1
0.0002611876,0.0003258516,6,1
0.0002897111,0.0003472443,6,1
0.000289549,0.0003519442,6,1
0.000252274,0.0003452995,6,1
0.0001914995,0.0003324963,6,1
0.0001221355,0.000316938,6,1
4.742337e-05,0.000304459,6,1
-3.344723e-05,0.0002958695,6,1
-0.0001212866,0.0002869559,6,1
-0.000201509,0.0002760976,6,1
-0.0002478596,0.000262322,6,1
-0.0002442942,0.0002495189,6,1
-0.0001968091,0.000239957,6,1
-0.0001313347,0.000232502,6,1
-8.563225e-05,0.000225209,6,1
-9.616651e-05,0.0002172679,6,1
-0.0001890299,0.0002083542,6,1
-0.0003544986,0.0001994406,6,1
-0.000551732,0.0001837203,6,1
-0.0007291936,0.0001537382,6,1
-0.0008408565,0.0001114392,6,1
-0.0008698662,6.492643e-05,6,1
-0.0008188156,2.34377e-05,6,1
-0.0006974287,-6.706447e-06,6,1
-0.0005264499,-2.7937e-05,6,1
-0.0003416954,-4.219875e-05,6,1
-0.0001974573,-5.289507e-05,6,1
-0.0001400862,-6.261898e-05,6,1
-0.0001796301,-7.590833e-05,6,1
-0.0002828657,-9.162867e-05,6,1
-0.0003966356,-0.0001088076,6,1
-0.0004812336,-0.0001280934,6,1
-0.0005223983,-0.0001483515,6,1
-0.0005311498,-0.0001723372,6,1
-0.0005251534,-0.0002019951,6,1
-0.0005100812,-0.0002344082,6,1
-0.0004804233,-0.0002595283,6,1
-0.0004261314,-0.0002724935,6,1
-0.0003454229,-0.0002754107,6,1
-0.0002515871,-0.0002794623,6,1
-0.0001655305,-0.0002906449,6,1
-0.0001002181,-0.0003092824,6,1
-4.80331e-05,-0.0003303509,6,1
1.160693e-05,-0.0003472056,6,1
8.988449e-05,-0.0003566054,6,1
0.0001872858,-0.0003585502,6,1
0.000289549,-0.0003561192,6,1
0.000373985,-0.0003502849,6,1
0.0004235771,-0.0003327818,6,1
0.0004399457,-0.0002943724,6,1
0.0004389733,-0.0002295462,6,1
0.0004300596,-0.000144462,6,1
0.0004190393,-5.402952e-05,6,1
0.0004119083,2.262738e-05,6,1
0.000418553,7.20573e-05,6,1
0.0004409181,9.409818e-05,6,1
0.0004640934,9.879808e-05,6,1
0.0004697657,9.750156e-05,6,1
0.0004443214,0.0001005808,6,1
0.0003804677,0.0001119254,6,1
0.0002782044,0.0001260251,6,1
0.0001519555,0.0001385041,6,1
2.116879e-05,0.000150659,6,1
-0.0001002181,0.0001670276,6,1
-0.0002088019,0.0001906891,6,1
-0.0003021515,0.0002188885,6,1
-0.0003692465,0.0002462775,6,1
-0.000385291,0.0002701012,6,1
-0.0003117133,0.0002869559,6,1
-0.0001115627,0.0002973281,6,1
0.0002085163,0.0003051073,6,1
0.0005822391,0.0003115899,6,1
0.0009227386,0.0003153174,6,1
0.00115271,0.0003185587,6,1
0.001232608,0.0003224483,6,1
0.00116924,0.0003256896,6,1
0.00100523,0.0003214759,6,1
0.0007942207,0.0003065659,6,1
0.0005793219,0.0002832284,6,1
0.0003781987,0.000257298,6,1
0.0001889064,0.0002365536,6,1
6.420843e-06,0.0002237505,6,1
-0.0001624512,0.0002119197,6,1
-0.0003042584,0.0001931201,6,1
-0.0004039285,0.0001639484,6,1
-0.0004590307,0.0001286181,6,1
-0.0004882024,9.037068e-05,6,1
-0.0005139708,5.439218e-05,6,1
-0.0005502735,2.603075e-05,6,1
-0.0005928966,1.014835e-05,6,1
-0.0006269303,8.527692e-06,6,1
-0.0006317923,1.533444e-05,6,1
-0.0005904656,2.505836e-05,6,1
-0.0004998712,3.024445e-05,6,1
-0.0003796187,2.505836e-05,6,1
-0.0002708729,8.365628e-06,6,1
-0.0002138259,-2.113026e-05,6,1
-0.0002256567,-5.953974e-05,6,1
-0.0002955068,-9.859748e-05,6,1
-0.0003998769,-0.0001310105,6,1
-0.0005123502,-0.0001527273,6,1
-0.0006116962,-0.0001640719,6,1
-0.0006886772,-0.0001697442,6,1
-0.0007389174,-0.0001712027,6,1
-0.0007663065,-0.0001720131,6,1
-0.0007782993,-0.0001780095,6,1
-0.0007721409,-0.0001893541,6,1
-0.0007369727,-0.0002028055,6,1
-0.0006755499,-0.0002118811,6,1
-0.0006065101,-0.0002143121,6,1
-0.0005332566,-0.0002099363,6,1
-0.0004280762,-0.0002005366,6,1
-0.0002434839,-0.0001896782,6,1
3.802358e-05,-0.0001820611,6,1
0.0003908399,-0.0001810887,6,1
0.0007597008,-0.0001856265,6,1
0.001082049,-0.0001870851,6,1
0.001310886,-0.0001789819,6,1
0.001431787,-0.0001592099,6,1
0.001457555,-0.000134576,6,1
0.001417849,-0.0001135075,6,1
0.001338923,-9.778715e-05,6,1
0.001227098,-8.660465e-05,6,1
0.001086101,-7.55842e-05,6,1
0.0009345694,-6.423963e-05,6,1
0.0007963275,-4.997789e-05,6,1
0.0006788301,-3.134038e-05,6,1
0.0005751082,-1.043395e-05,6,1
0.0004859722,9.338019e-06,6,1
0.0004170944,2.975825e-05,6,1
0.0003743092,5.163707e-05,6,1
0.000363937,7.57848e-05,6,1
0.0003916502,0.0001009049,6,1
0.0004632831,0.0001240803,6,1
0.0005788357,0.0001438522,6,1
0.0007240463,0.0001620036,6,1
0.0008695811,0.0001795066,6,1
0.0009817304,0.0001939304,6,1
0.001037319,0.000202682,6,1
0.001027595,0.0002010613,6,1
0.0009473725,0.0001850168,6,1
0.0007953551,0.0001519555,6,1
0.0005811046,0.0001015532,6,1
0.0003284447,3.802358e-05,6,1
6.622294e-05,-3.604027e-05,6,1
-0.0001801163,-0.0001185315,6,1
-0.0003929081,-0.0002002124,6,1
-0.000554163,-0.0002668213,6,1
-0.0006452437,-0.0003016653,6,1
-0.0006622606,-0.0002945344,6,1
-0.0006217443,-0.0002457528,6,1
-0.0005478425,-0.0001629374,6,1
-0.0004715097,-5.759496e-05,6,1
-0.0004217557,5.309566e-05,6,1
-0.0004227281,0.0001501728,6,1
-0.0004856094,0.0002184023,6,1
-0.0006065101,0.0002513016,6,1
-0.0007667927,0.0002551911,6,1
-0.0009351785,0.0002415777,6,1
-0.001075527,0.0002242366,6,1
-0.00116126,0.0002154851,6,1
-0.001185245,0.0002239125,6,1
-0.00116126,0.0002459534,6,1
-0.001118474,0.0002663737,6,1
-0.001079417,0.0002733424,6,1
-0.001052352,0.0002629703,6,1
-0.001031445,0.0002365536,6,1
-0.001003732,0.0001970097,6,1
-0.000963702,0.0001453108,6,1
-0.0009154066,8.956036e-05,6,1
-0.0008599802,4.304761e-05,6,1
-0.0007946679,1.711715e-05,6,1
-0.0007215765,1.468618e-05,6,1
-0.0006535091,2.748934e-05,6,1
-0.0006084549,4.223728e-05,6,1
-0.0005961379,5.19612e-05,6,1
-0.0006125065,5.293359e-05,6,1
-0.0006382749,4.807163e-05,6,1
-0.0006402197,3.867184e-05,6,1
-0.000578959,2.522042e-05,6,1
-0.0004097628,7.555301e-06,6,1
-0.0001112386,-7.192643e-06,6,1
0.0003038107,-1.027188e-05,6,1
0.0007872519,-6.176923e-08,6,1
0.001270855,1.306552e-05,6,1
0.001680719,1.112074e-05,6,1
0.00195218,-1.351319e-05,6,1
0.00204083,-6.342931e-05,6,1
0.001937756,-0.000137169,6,1
0.001682664,-0.0002292221,6,1
0.001344757,-0.0003347266,6,1
0.0009886993,-0.0004488206,6,1
0.000656303,-0.0005685869,6,1
0.0003608578,-0.0006864083,6,1
0.0001002567,-0.0007953162,6,1
-0.0001269589,-0.0008862348,6,1
-0.0003143064,-0.0009504127,6,1
-0.0004531963,-0.0009802326,6,1
-0.0005356876,-0.000971319,6,1
-0.0005634008,-0.0009179996,6,1
-0.0005564319,-0.0008210845,6,1
-0.0005322842,-0.0006938633,6,1
-0.0004954954,-0.0005569181,6,1
-0.0004444448,-0.0004285624,6,1
-0.0003799429,-0.0003204649,6,1
-0.0003141443,-0.0002344082,6,1
-0.0002642282,-0.0001653684,6,1
-0.0002344082,-0.0001060525,6,1
-0.0002170672,-4.787104e-05,6,1
-0.0002107467,1.371378e-05,6,1
-0.0002185258,7.837785e-05,6,1
-0.0002457528,0.0001412592,6,1
-0.0002901587,0.0001923098,6,1
-0.0003439643,0.0002278021,6,1
-0.0003886944,0.0002511395,6,1
-0.0004083043,0.000267346,6,1
-0.0003906392,0.0002809595,6,1
-0.0003311612,0.0002979764,6,1
-0.0002344082,0.0003248792,6,1
-0.0001057284,0.0003660439,6,1
4.207521e-05,0.0004177427,6,1
0.0001997648,0.0004702519,6,1
0.0003603715,0.0005133613,6,1
0.0005094717,0.0005478812,6,1
0.0006253485,0.000577053,6,1
0.000688554,0.0006046041,6,1
0.0006929298,0.0006284277,6,1
0.00064901,0.0006441481,6,1
0.0005789978,0.0006511169,6,1
0.0005007202,0.0006496583,6,1
0.0004253598,0.0006418792,6,1
0.0003529166,0.0006248623,6,1
0.0002842008,0.0005981215,6,1
0.0002185644,0.0005613327,6,1
0.0001511452,0.000515144,6,1
8.097089e-05,0.0004637693,6,1
2.829966e-05,0.0004088291,6,1
1.64689e-05,0.0003504856,6,1
5.649903e-05,0.0002882525,6,1
0.0001414213,0.0002229401,6,1
0.0002543808,0.0001594105,6,1
0.0003726885,0.0001039842,6,1
0.0004579349,5.99024e-05,6,1
0.000475438,2.910999e-05,6,1
0.0004149876,1.014835e-05,6,1
0.0003002453,-5.247859e-06,6,1
0.0001699448,-2.874733e-05,6,1
5.666109e-05,-6.229485e-05,6,1
-2.356124e-05,-9.892161e-05,6,1
-7.769106e-05,-0.0001293899,6,1
-0.0001245279,-0.0001431655,6,1
-0.0001778474,-0.0001399241,6,1
-0.0002373254,-0.0001274451,6,1
-0.000290969,-0.000114804,6,1
-0.0003297026,-0.0001071869,6,1
-0.000350609,-0.0001052422,6,1
-0.0003585502,-0.0001067007,6,1
-0.0003582261,-0.0001068628,6,1
-0.000355471,-0.0001028112,6,1
-0.0003574158,-9.033215e-05,6,1
-0.0003702189,-6.521203e-05,6,1
-0.0003864254,-3.26369e-05,6,1
-0.0003925839,-7.100305e-07,6,1
-0.0003779981,2.246531e-05,6,1
-0.0003444506,3.364782e-05,6,1
-0.0003068514,3.056858e-05,6,1
-0.0002843243,1.274139e-05,6,1
-0.0002843243,-1.886135e-05,6,1
-0.0002985861,-5.872941e-05,6,1
-0.0003074997,-0.0001020008,6,1
-0.0002891863,-0.0001481895,6,1
-0.0002284118,-0.0001984297,6,1
-0.0001298761,-0.0002530457,6,1
-8.002969e-06,-0.0003050687,6,1
0.0001161391,-0.0003446126,6,1
0.0002231022,-0.0003614674,6,1
0.0002947351,-0.0003515814,6,1
0.0003205035,-0.0003162512,6,1
0.0003007315,-0.0002614731,6,1
0.0002496809,-0.0002003745,6,1
0.0001913374,-0.0001454344,6,1
0.0001414213,-9.956988e-05,6,1
9.960841e-05,-6.002594e-05,6,1
6.200925e-05,-2.031993e-05,6,1
2.748934e-05,2.39239e-05,6,1
-1.682422e-06,7.189524e-05,6,1
-1.594417e-05,0.0001145184,6,1
-6.220252e-06,0.0001449867,6,1
2.327564e-05,0.0001613553,6,1
4.920609e-05,0.0001647587,6,1
3.688912e-05,0.0001595726,6,1
-3.020592e-05,0.0001537382,6,1
-0.0001386276,0.0001542244,6,1
-0.0002476975,0.000160707,6,1
-0.0003120375,0.0001658931,6,1
-0.0003073376,0.0001636242,6,1
-0.0002405667,0.0001521176,6,1
-0.000137169,0.0001373696,6,1
-2.226472e-05,0.0001231079,6,1
8.307774e-05,0.000110953,6,1
0.0001683241,0.0001023635,6,1
0.0002248849,9.571884e-05,6,1
0.0002534084,8.84259e-05,6,1
0.0002684805,7.90261e-05,6,1
0.0002924662,6.995045e-05,6,1
0.0003397893,6.249545e-05,6,1
0.0004054258,5.860588e-05,6,1
0.0004710622,5.552663e-05,6,1
0.0005206542,5.131294e-05,6,1
0.0005564707,4.645098e-05,6,1
0.0006012007,3.98063e-05,6,1
0.000693416,2.667901e-05,6,1
0.0008637467,-3.858999e-07,6,1
0.001112517,-3.895745e-05,6,1
0.001394187,-7.33153e-05,6,1
0.001629021,-9.179074e-05,6,1
0.001735498,-8.854943e-05,6,1
0.001666296,-6.683268e-05,6,1
0.001437135,-3.360929e-05,6,1
0.001112841,5.86492e-07,6,1
0.0007750969,3.170304e-05,6,1
0.0004825689,5.779555e-05,6,1
0.0002477361,7.416415e-05,6,1
5.390598e-05,6.946425e-05,6,1
-0.0001212866,3.721326e-05,6,1
-0.0002951827,-2.210265e-05,6,1
-0.0004679443,-9.843541e-05,6,1
-0.0006287131,-0.0001763888,6,1
-0.0007547998,-0.0002382978,6,1
-0.0008287016,-0.0002744383,6,1
-0.0008481495,-0.0002854588,6,1
-0.0008189777,-0.0002767073,6,1
-0.0007543136,-0.0002519113,6,1
-0.0006744154,-0.0002146363,6,1
-0.0005995413,-0.0001715269,6,1
-0.0005494631,-0.0001295519,6,1
-0.0005405495,-9.146661e-05,6,1
-0.0005749074,-5.840528e-05,6,1
-0.0006347094,-3.150244e-05,6,1
-0.0006953219,-1.367526e-05,6,1
-0.0007407002,-8.813297e-06,6,1
-0.0007710064,-2.291298e-05,6,1
-0.0007891576,-5.111234e-05,6,1
-0.0007964507,-8.595638e-05,6,1
-0.0008005023,-0.0001209625,6,1
-0.0008220569,-0.0001477033,6,1
-0.0008721352,-0.0001627754,6,1
-0.0009361509,-0.0001682856,6,1
-0.0009693743,-0.0001723372,6,1
-0.0009272373,-0.0001781716,6,1
-0.000789968,-0.0001822232,6,1
-0.0005783107,-0.0001750923,6,1
-0.0003410472,-0.0001527273,6,1
-0.0001339277,-0.000114804,6,1
5.124321e-06,-6.650855e-05,6,1
4.82337e-05,-1.772689e-05,6,1
-1.707863e-05,2.100672e-05,6,1
-0.0001682856,4.515445e-05,6,1
-0.0003486642,5.56887e-05,6,1
-0.0004993849,5.649903e-05,6,1
-0.0005859278,5.423012e-05,6,1
-0.0006078067,5.61749e-05,6,1
-0.0005873864,6.525056e-05,6,1
-0.0005457356,7.853991e-05,6,1
-0.0004826922,9.053275e-05,6,1
-0.0003908012,9.458438e-05,6,1
-0.0002700626,9.53947e-05,6,1
-0.0001219349,0.0001107909,6,1
3.948217e-05,0.0001496866,6,1
0.0001919856,0.000202682,6,1
0.0003200173,0.0002542187,6,1
0.0004187151,0.0002903593,6,1
0.0004820827,0.0003031625,6,1
0.000507527,0.0002908455,6,1
0.0004958582,0.0002532463,6,1
0.0004425387,0.000192796,6,1
0.0003396272,0.0001169494,6,1
0.0001866375,3.753739e-05,6,1
3.665733e-06,-4.155049e-05,6,1
-0.0001679614,-0.0001195039,6,1
-0.0002801106,-0.000194216,6,1
-0.0002966413,-0.0002605007,6,1
-0.0001900023,-0.0003086341,6,1
4.223728e-05,-0.0003335922,6,1
0.0003760919,-0.0003329439,6,1
0.0007616456,-0.0003078238,6,1
0.001144768,-0.0002603387,6,1
0.001482837,-0.0001968091,6,1
0.001748139,-0.0001295519,6,1
0.001930301,-7.315322e-05,6,1
0.002023813,-3.652646e-05,6,1
0.002017006,-2.275091e-05,6,1
0.001897564,-2.09682e-05,6,1
0.001676992,-1.594417e-05,6,1
0.001388191,6.258778e-06,6,1
0.001069084,4.871989e-05,6,1
0.0007533802,0.0001022015,6,1
0.0004621486,0.0001553589,6,1
0.000207706,0.0001999268,6,1
-4.437533e-06,0.0002320158,6,1
-0.0001653684,0.000252274,6,1
-0.0002580697,0.0002621599,6,1
-0.0002754107,0.0002639427,6,1
-0.0002358668,0.0002594049,6,1
-0.0001825473,0.0002519498,6,1
-0.0001613168,0.0002422259,6,1
-0.0001987538,0.0002307193,6,1
-0.0002908069,0.0002184023,6,1
-0.0004083043,0.0002060853,6,1
-0.0005155915,0.0001958752,6,1
-0.0005875485,0.0001893926,6,1
-0.0006204477,0.0001820997,6,1
-0.0006342233,0.0001702689,6,1
-0.0006546435,0.0001551968,6,1
-0.0006962943,0.0001402868,6,1
-0.0007572309,0.0001276457,6,1
-0.0008183295,0.0001172735,6,1
-0.0008580354,0.0001069013,6,1
-0.0008659766,9.182927e-05,6,1
-0.0008442599,6.346784e-05,6,1
-0.0008034194,2.230325e-05,6,1
-0.0007533412,-2.226472e-05,6,1
-0.0006951598,-6.359137e-05,6,1
-0.000628551,-9.859748e-05,6,1
-0.0005578905,-0.00012469,6,1
-0.0005014918,-0.000142031,6,1
-0.0004847991,-0.0001559686,6,1
-0.0005149432,-0.000174282,6,1
-0.0005616181,-0.0001985918,6,1
-0.0005778245,-0.0002220912,6,1
-0.0005296912,-0.0002407288,6,1
-0.0004209454,-0.0002507768,6,1
-0.0002875656,-0.0002499665,6,1
-0.0001677994,-0.0002423494,6,1
-8.125649e-05,-0.0002347323,6,1
-2.826114e-05,-0.000231329,6,1
1.883015e-06,-0.0002293842,6,1
3.170304e-05,-0.0002225774,6,1
7.967438e-05,-0.0002073433,6,1
0.0001595726,-0.000184168,6,1
0.0002720459,-0.0001590478,6,1
0.000411098,-0.0001352242,6,1
0.000572029,-0.0001139937,6,1
0.000743008,-9.811128e-05,6,1
0.000899077,-8.692878e-05,6,1
0.0009968026,-7.898758e-05,6,1
0.0009992336,-6.861539e-05,6,1
0.0008985908,-4.932962e-05,6,1
0.0007128638,-1.691656e-05,6,1
0.0004731691,2.732727e-05,6,1
0.0002154851,7.772959e-05,6,1
-1.918548e-05,0.0001273216,6,1
-0.0001937298,0.0001683241,6,1
-0.0002865932,0.0001973338,6,1
-0.0002912931,0.0002153231,6,1
-0.0002267911,0.0002284504,6,1
-0.0001303623,0.0002417397,6,1
-3.668853e-05,0.0002560015,6,1
4.418206e-05,0.0002701012,6,1
0.0001328318,0.0002837146,6,1
0.0002453052,0.0002983005,6,1
0.0003616681,0.0003122381,6,1
0.0004326527,0.0003252034,6,1
0.0004243874,0.0003420582,6,1
0.0003362238,0.0003602095,6,1
0.0001893926,0.0003744712,6,1
1.873781e-05,0.0003757678,6,1
-0.0001394379,0.0003579406,6,1
-0.0002556388,0.0003261758,6,1
-0.0003117133,0.0002918179,6,1
-0.0003097686,0.0002637806,6,1
-0.0002716832,0.0002475741,6,1
-0.0002232257,0.0002443328,6,1
-0.0001815749,0.0002516257,6,1
-0.000144462,0.0002595669,6,1
-8.02841e-05,0.0002571359,6,1
5.309566e-05,0.0002339606,6,1
0.0002718839,0.0001842065,6,1
0.0005426951,0.0001124116,6,1
0.0007940586,2.522042e-05,6,1
0.0009494794,-7.526008e-05,6,1
0.0009621205,-0.000191785,6,1
0.0008365198,-0.0003246786,6,1
0.0006164349,-0.0004606514,6,1
0.0003650715,-0.0005779866,6,1
0.0001391524,-0.0006471885,6,1
-3.312309e-05,-0.000650754,6,1
-0.0001488377,-0.0005903036,6,1
-0.0002102605,-0.0004817198,6,1
-0.0002201465,-0.0003520676,6,1
-0.000199078,-0.0002297083,6,1
-0.000191623,-0.0001290658,6,1
-0.0002543422,-5.581224e-05,6,1
-0.0004162455,-7.354709e-06,6,1
-0.0006520505,1.582063e-05,6,1
-0.0008996862,1.776542e-05,6,1
-0.001096596,5.448452e-06,6,1
-0.001205666,-1.67545e-05,6,1
-0.001226086,-5.046408e-05,6,1
-0.001184111,-9.762509e-05,6,1
-0.00111345,-0.0001621271,6,1
-0.001028528,-0.0002370013,6,1
-0.0009196203,-0.0003068514,6,1
-0.000767603,-0.0003564434,6,1
-0.0005604835,-0.0003752429,6,1
-0.0003143064,-0.0003669776,6,1
-6.91016e-05,-0.0003403989,6,1
0.0001299146,-0.0003096065,6,1
0.0002488706,-0.0002817312,6,1
0.0002777182,-0.0002569353,6,1
0.0002334744,-0.0002323013,6,1
0.0001412592,-0.0002070192,6,1
2.846173e-05,-0.0001825473,6,1
-9.000802e-05,-0.000159534,6,1
-0.0002084778,-0.0001342519,6,1
-0.0003102548,-0.0001065387,6,1
-0.0003791325,-7.963584e-05,6,1
-0.0004023079,-5.257093e-05,6,1
-0.0003732982,-2.226472e-05,6,1
-0.0002955068,8.203562e-06,6,1
-0.0001775233,3.786152e-05,6,1
-3.506788e-05,6.525056e-05,6,1
0.0001039842,8.907416e-05,6,1
0.0002187264,0.0001088461,6,1
0.0003013798,0.0001248906,6,1
0.0003512959,0.0001428799,6,1
0.0003749574,0.0001675138,6,1
0.0003760919,0.0002034923,6,1
0.000363937,0.0002504913,6,1
0.0003478926,0.0002997591,6,1
0.0003363859,0.0003399513,6,1
0.0003334687,0.0003632887,6,1
0.0003389789,0.0003668542,6,1
0.0003414099,0.0003534027,6,1
0.0003342791,0.0003284447,6,1
0.0003227724,0.0002952213,6,1
0.0003214759,0.0002547049,6,1
0.0003448133,0.0002119197,6,1
0.0003976466,0.0001691344,6,1
0.0004709002,0.0001302388,6,1
0.0005444778,0.0001002567,6,1
0.000601849,8.437427e-05,6,1
0.0006381517,8.129502e-05,6,1
0.0006582477,8.680524e-05,6,1
0.0006710509,8.923623e-05,6,1
0.0006780197,8.129502e-05,6,1
0.0006780197,5.487838e-05,6,1
0.0006767232,6.420843e-06,6,1
0.0006866092,-6.132246e-05,6,1
0.0007102708,-0.0001381414,6,1
0.0007378219,-0.0002036158,6,1
0.0007541905,-0.0002400805,6,1
0.0007465734,-0.000233922,6,1
0.0007164293,-0.0001836818,6,1
0.0006741302,-9.762509e-05,6,1
0.0006245382,7.393236e-06,6,1
0.0005686256,0.0001083599,6,1
0.000490348,0.0001850168,6,1
0.0003749574,0.0002303951,6,1
0.0002231022,0.0002480603,6,1
5.860588e-05,0.0002495189,6,1
-8.498399e-05,0.0002456293,6,1
-0.000181737,0.0002428742,6,1
-0.0002276015,0.0002407673,6,1
-0.0002370013,0.0002346088,6,1
-0.0002301945,0.0002224539,6,1
-0.0002259808,0.0002054371,6,1
-0.0002392702,0.0001832341,6,1
-0.0002705488,0.0001563313,6,1
-0.0003149546,0.0001318594,6,1
-0.0003575778,0.0001179218,6,1
-0.0003882082,0.0001161391,6,1
-0.0004044147,0.0001193804,6,1
-0.0004160834,0.0001145184,6,1
-0.0004382863,9.231547e-05,6,1
-0.0004765338,5.666109e-05,6,1
-0.0005176983,1.727922e-05,6,1
-0.000544115,-1.562004e-05,6,1
-0.0005486528,-3.830919e-05,6,1
-0.0005374703,-5.386745e-05,6,1
-0.0005160777,-6.926366e-05,6,1
-0.0004880404,-8.854943e-05,6,1
-0.0004559515,-0.0001139937,6,1
-0.0004258073,-0.0001454344,6,1
-0.0004066836,-0.0001789819,6,1
-0.0004068457,-0.0002105846,6,1
-0.0004282383,-0.0002311669,6,1
-0.0004640547,-0.0002407288,6,1
-0.0005005194,-0.0002420253,6,1
-0.0005202913,-0.0002365151,6,1
-0.0005121881,-0.0002211189,6,1
-0.0004744269,-0.0002000504,6,1
-0.0004170558,-0.0001786577,6,1
-0.0003536883,-0.000164396,6,1
-0.0003003688,-0.0001562927,6,1
-0.0002781658,-0.0001538618,6,1
-0.0002969654,-0.0001509446,6,1
-0.0003517435,-0.0001478653,6,1
-0.0004232143,-0.0001396,6,1
-0.0004898231,-0.0001282554,6,1
-0.0005321222,-0.0001136696,6,1
-0.0005368221,-9.616651e-05,6,1
-0.0004925782,-7.55842e-05,6,1
-0.0003914495,-5.354332e-05,6,1
-0.0002340841,-3.21507e-05,6,1
-3.717473e-05,-9.461558e-06,6,1
0.0001590864,1.517237e-05,6,1
0.0003106175,4.110282e-05,6,1
0.0003914881,6.995045e-05,6,1
0.0004049396,9.944634e-05,6,1
0.0003791712,0.000125863,6,1
0.0003571303,0.0001443384,6,1
0.0003816021,0.0001548727,6,1
0.0004765725,0.0001586002,6,1
0.0006318311,0.0001608691,6,1
0.0008102651,0.0001671896,6,1
0.0009622826,0.0001814514,6,1
0.001047529,0.0002015475,6,1
0.001052877,0.000222616,6,1
0.0009976128,0.0002365536,6,1
0.000918849,0.0002386605,6,1
0.0008455954,0.0002329882,6,1
0.0007796348,0.0002248849,6,1
0.0007104329,0.0002184023,6,1
0.0006251864,0.0002138645,6,1
0.0005196818,0.0002070577,6,1
0.0003952156,0.0001932822,6,1
0.0002628082,0.0001702689,6,1
0.0001347766,0.0001367214,6,1
2.181705e-05,9.296373e-05,6,1
-7.23429e-05,4.110282e-05,6,1
-0.0001524032,-1.691656e-05,6,1
-0.0002232257,-7.671866e-05,6,1
-0.0002793003,-0.0001305243,6,1
-0.0003117133,-0.000174282,6,1
-0.0003131719,-0.0002021572,6,1
-0.0002922655,-0.0002131776,6,1
-0.0002679557,-0.0002102605,6,1
-0.0002601766,-0.000201509,6,1
-0.0002767073,-0.0001865989,6,1
-0.000318196,-0.0001626133,6,1
-0.00038286,-0.000127283,6,1
-0.000462272,-7.882551e-05,6,1
-0.0005431426,-2.307504e-05,6,1
-0.0006181788,3.073064e-05,6,1
-0.0006901358,7.221937e-05,6,1
-0.0007664686,9.669123e-05,6,1
-0.0008453943,0.0001052807,6,1
-0.0009202685,0.0001049566,6,1
-0.0009781258,9.879808e-05,6,1
-0.001006325,8.712937e-05,6,1
-0.000998546,6.865393e-05,6,1
-0.0009547884,5.1475e-05,6,1
-0.0008795901,3.769945e-05,6,1
-0.0007889956,2.489629e-05,6,1
-0.0007100698,8.041497e-06,6,1
-0.0006473506,-1.610624e-05,6,1
-0.0005706937,-4.949169e-05,6,1
-0.0004408794,-8.660465e-05,6,1
-0.0002382978,-0.0001237176,6,1
2.003433e-05,-0.0001541859,6,1
0.0002859836,-0.0001786577,6,1
0.0005138475,-0.0002036158,6,1
0.0006947125,-0.0002376495,6,1
0.0008525642,-0.0002802727,6,1
0.001017385,-0.0003233821,6,1
0.00120214,-0.0003606571,6,1
0.001388515,-0.0003880461,6,1
0.001531943,-0.0003979321,6,1
0.001592556,-0.0003875599,6,1
0.001548312,-0.0003583881,6,1
0.001403587,-0.0003139823,6,1
0.001189012,-0.0002650386,6,1
0.0009442933,-0.0002151224,6,1
0.0007052467,-0.0001697442,6,1
0.0004924549,-0.0001314967,6,1
0.0003162898,-0.0001010285,6,1
0.0001752929,-7.461182e-05,6,1
6.606088e-05,-4.868137e-05,6,1
-1.237873e-05,-2.307504e-05,6,1
-5.59743e-05,3.017472e-06,6,1
-5.970181e-05,2.716521e-05,6,1
-3.21507e-05,4.790957e-05,6,1
6.096713e-06,6.589881e-05,6,1
3.786152e-05,8.097089e-05,6,1
5.115087e-05,9.134307e-05,6,1
3.93201e-05,9.896015e-05,6,1
1.883015e-06,0.0001023635,6,1
-5.986387e-05,0.0001002567,6,1
-0.0001457585,9.231547e-05,6,1
-0.0002507768,7.918817e-05,6,1
-0.0003566054,6.265751e-05,6,1
-0.0004520619,4.693717e-05,6,1
-0.0005326084,3.445814e-05,6,1
-0.0006000275,2.748934e-05,6,1
-0.0006541573,2.311357e-05,6,1
-0.0006959701,1.97102e-05,6,1
-0.0007277349,1.760335e-05,6,1
-0.0007512344,2.052053e-05,6,1
-0.0007690616,3.332369e-05,6,1
-0.0007864026,5.633696e-05,6,1
-0.0008035815,8.275361e-05,6,1
-0.0008115227,0.0001041462,6,1
-0.0007967748,0.0001156529,6,1
-0.0007466965,0.0001222976,6,1
-0.0006562641,0.0001286181,6,1
-0.0005321222,0.00013818,6,1
-0.0003919357,0.0001508211,6,1
-0.0002540181,0.0001621656,6,1
-0.000127121,0.0001699448,6,1
-1.010982e-05,0.0001746447,6,1
0.0001171115,0.0001744826,6,1
0.0002819319,0.000170431,6,1
0.0004890515,0.0001662173,6,1
0.0007175637,0.0001660552,6,1
0.000926142,0.0001688103,6,1
0.001064546,0.000170593,6,1
0.001105386,0.0001715654,6,1
0.001060494,0.0001746447,6,1
0.0009634171,0.0001806411,6,1
0.0008501333,0.0001892305,6,1
0.0007360392,0.0002015475,6,1
0.0006151384,0.0002135403,6,1
0.0004798138,0.0002185644,6,1
0.0003363859,0.000215161,6,1
0.0002015475,0.0002055991,6,1
9.280167e-05,0.000192796,6,1
2.068259e-05,0.0001770756,6,1
-1.237873e-05,0.0001594105,6,1
-2.177852e-05,0.0001414213,6,1
-3.749886e-05,0.0001248906,6,1
-7.428769e-05,0.000111115,6,1
-0.0001175591,0.0001013911,6,1
-0.0001412206,9.928428e-05,6,1
-0.0001459206,0.0001007429,6,1
-0.0001618029,9.831188e-05,6,1
-0.0002292221,8.534666e-05,6,1
-0.0003616295,6.071273e-05,6,1
-0.0005363359,3.170304e-05,6,1
-0.000703101,5.934648e-06,6,1
-0.0008034194,-1.351319e-05,6,1
-0.0007996919,-2.7937e-05,6,1
-0.0006949978,-3.911951e-05,6,1
-0.0005288809,-4.884343e-05,6,1
-0.0003608192,-5.856735e-05,6,1
-0.0002460769,-6.796714e-05,6,1
-0.0002068571,-7.898758e-05,6,1
-0.0002237119,-8.984595e-05,6,1
-0.0002507768,-0.0001000561,6,1
-0.0002520733,-0.0001079973,6,1
-0.0002131776,-0.0001157764,6,1
-0.0001358725,-0.0001267968,6,1
-3.68506e-05,-0.0001405724,6,1
6.249545e-05,-0.0001546721,6,1
0.0001378558,-0.0001679614,6,1
0.0001718896,-0.0001783336,6,1
0.0001615174,-0.0001794681,6,1
0.0001229458,-0.0001679614,6,1
8.42122e-05,-0.0001460826,6,1
6.281957e-05,-0.0001167488,6,1
5.358185e-05,-8.838737e-05,6,1
3.899597e-05,-6.893953e-05,6,1
3.503668e-06,-6.521203e-05,6,1
-5.824322e-05,-7.65566e-05,6,1
-0.0001392759,-0.0001002181,6,1
-0.000223874,-0.0001295519,6,1
-0.0002948586,-0.0001558065,6,1
-0.000340561,-0.000171851,6,1
-0.0003564434,-0.0001806025,6,1
-0.0003412093,-0.000186761,6,1
-0.0002904828,-0.0001901644,6,1
-0.0001914609,-0.0001921092,6,1
-2.971972e-05,-0.0001940539,6,1
0.0001936063,-0.0001972953,6,1
0.0004491834,-0.0002031296,6,1
0.0006966573,-0.0002105846,6,1
0.0009083148,-0.0002177155,6,1
0.001075242,-0.000223874,6,1
0.001193226,-0.0002287359,6,1
0.001255945,-0.0002282497,6,1
0.001247356,-0.0002175534,6,1
0.001154492,-0.000191623,6,1
0.0009833511,-0.0001481895,6,1
0.0007569456,-8.530812e-05,6,1
0.0005063924,-7.840905e-06,6,1
0.0002637806,7.724339e-05,6,1
5.909208e-05,0.0001611932,6,1
-8.141856e-05,0.0002378501,6,1
-0.0001483515,0.0002974902,6,1
-0.0001546721,0.00033671,6,1
-0.000132145,0.000356644,6,1
-0.0001156143,0.0003645853,6,1
-0.0001237176,0.0003754436,6,1
-0.0001608306,0.0004002396,6,1
-0.0002100984,0.0004360561,6,1
-0.0002520733,0.0004728449,6,1
-0.000283514,0.0004948858,6,1
-0.0003156029,0.0004929411,6,1
-0.0003614674,0.0004762483,6,1
-0.0004207833,0.0004553419,6,1
-0.0004878783,0.0004375147,6,1
-0.0005595111,0.0004269804,6,1
-0.0006324406,0.0004255218,6,1
-0.0006953219,0.0004263322,6,1
-0.0007376209,0.0004204978,6,1
-0.0007546378,0.0004034809,6,1
-0.0007457242,0.0003733368,6,1
-0.0007191455,0.0003279585,6,1
-0.000685436,0.0002615117,6,1
-0.000653185,0.0001751309,6,1
-0.00061121,7.52986e-05,6,1
-0.0005436288,-3.21507e-05,6,1
-0.0004457413,-0.0001389517,6,1
-0.0003261372,-0.000238946,6,1
-0.0001964849,-0.0003269475,6,1
-6.229485e-05,-0.0003990665,6,1
7.789165e-05,-0.0004531963,6,1
0.0002208333,-0.0004925782,6,1
0.000346596,-0.0005207775,6,1
0.0004290873,-0.0005411978,6,1
0.0004597176,-0.0005523803,6,1
0.0004566384,-0.0005556216,6,1
0.0004380009,-0.0005476804,6,1
0.0004127187,-0.0005246671,6,1
0.0003877606,-0.0004867439,6,1
0.0003804677,-0.0004412035,6,1
0.0004169324,-0.000395177,6,1
0.0005033132,-0.0003462333,6,1
0.0006143281,-0.0002934,6,1
0.0007094605,-0.0002379736,6,1
0.0007486803,-0.000184168,6,1
0.0007024916,-0.0001378173,6,1
0.0005587396,-9.794922e-05,6,1
0.0003269861,-6.0188e-05,6,1
3.332369e-05,-2.113026e-05,6,1
-0.0002749245,1.403791e-05,6,1
-0.0005423322,3.737532e-05,6,1
-0.0007194696,4.402e-05,6,1
-0.0007818647,2.797553e-05,6,1
-0.0007351899,-6.058186e-06,6,1
-0.0006060239,-4.689865e-05,6,1
-0.0004279142,-8.465986e-05,6,1
-0.0002324634,-0.0001138316,6,1
-5.451572e-05,-0.000134738,6,1
7.30297e-05,-0.0001481895,6,1
0.0001367214,-0.0001585616,6,1
0.0001393144,-0.0001700683,6,1
9.63671e-05,-0.0001799543,6,1
3.591673e-05,-0.0001823853,6,1
-1.724069e-05,-0.000171851,6,1
-4.673658e-05,-0.0001410586,6,1
-5.208474e-05,-8.871149e-05,6,1
-5.062615e-05,-1.189254e-05,6,1
-6.099833e-05,8.453633e-05,6,1
-9.2439e-05,0.0001866375,6,1
-0.0001465688,0.000277232,6,1
-0.0002282497,0.0003478926,6,1
-0.0003327818,0.0003968363,6,1
-0.0004339106,0.0004230909,6,1
-0.0004938748,0.0004274666,6,1
-0.000487068,0.0004112601,6,1
-0.0004130042,0.0003725265,6,1
-0.000301017,0.0003125623,6,1
-0.0001909747,0.0002321778,6,1
-0.0001109144,0.0001316974,6,1
-6.861539e-05,1.54965e-05,6,1
-5.743289e-05,-0.0001063766,6,1
-6.116039e-05,-0.0002219292,6,1
-5.872941e-05,-0.0003136581,6,1
-3.587821e-05,-0.000360333,6,1
1.095867e-05,-0.0003535262,6,1
7.805372e-05,-0.0003003688,6,1
0.0001639484,-0.0002178775,6,1
0.0002670219,-0.0001255003,6,1
0.0003773884,-3.522994e-05,6,1
0.0004773828,4.272347e-05,6,1
0.000549826,9.831188e-05,6,1
0.0005882355,0.0001276457,6,1
0.0006000663,0.000133318,6,1
0.0006050903,0.0001261871,6,1
0.0006175694,0.0001164632,6,1
0.0006381517,0.0001104668,6,1
0.0006491721,0.0001127357,6,1
0.0006358828,0.0001242423,6,1
0.0005963388,0.0001449867,6,1
0.0005371849,0.0001746447,6,1
0.0004657141,0.0002169437,6,1
0.0003877606,0.0002679943,6,1
0.0003083486,0.000316938,6,1
0.000227478,0.0003517821,6,1
0.000143204,0.0003650715,6,1
5.552663e-05,0.0003584268,6,1
-2.7937e-05,0.0003308757,6,1
-0.000104918,0.0002790148,6,1
-0.000176875,0.000207706,6,1
-0.0002493182,0.0001312112,6,1
-0.0003237062,6.525056e-05,6,1
-0.0003932322,1.889987e-05,6,1
-0.0004394208,-9.947754e-06,6,1
-0.0004446069,-3.117831e-05,6,1
-0.0003971218,-5.386745e-05,6,1
-0.0003026377,-7.817725e-05,6,1
-0.0001848162,-0.0001016767,6,1
-7.898758e-05,-0.0001216107,6,1
-1.788895e-05,-0.000142031,6,1
-1.173047e-05,-0.0001653684,6,1
-5.354332e-05,-0.0001840059,6,1
-0.0001269589,-0.0001940539,6,1
-0.0002107467,-0.0001972953,6,1
-0.0002741142,-0.0001974573,6,1
-0.0002852967,-0.0001977815,6,1
-0.0002267911,-0.0001958367,6,1
-0.0001016767,-0.0001831956,6,1
5.828175e-05,-0.0001564548,6,1
0.0002093267,-0.0001162626,6,1
0.0003214759,-6.991193e-05,6,1
0.0003841952,-2.761287e-05,6,1
0.000398619,7.393236e-06,6,1
0.0003781987,3.899597e-05,6,1
0.0003360618,7.416415e-05,6,1
0.0002801492,0.0001188942,6,1
0.000220023,0.0001773998,6,1
0.000165569,0.0002470879,6,1
0.0001188942,0.0003177483,6,1
7.124698e-05,0.0003798194,6,1
1.436204e-05,0.0004251977,6,1
-5.289507e-05,0.0004504799,6,1
-0.0001206384,0.0004574487,6,1
-0.0001806025,0.0004512903,6,1
-0.0002321393,0.000428439,6,1
-0.0002726556,0.0003850055,6,1
-0.0003013411,0.0003240689,6,1
-0.0003214373,0.0002535705,6,1
-0.0003403989,0.0001871237,6,1
-0.0003668155,0.0001352628,6,1
-0.0004032803,0.0001023635,6,1
-0.0004425001,8.518459e-05,6,1
-0.000472158,7.351589e-05,6,1
-0.0004799371,4.985435e-05,6,1
-0.0004463896,7.485573e-07,6,1
-0.0003522297,-7.493595e-05,6,1
-0.0001901644,-0.0001663408,6,1
2.34377e-05,-0.0002583939,6,1
0.0002456293,-0.0003392644,6,1
0.0004378388,-0.0004032803,6,1
0.0005757565,-0.0004538446,6,1
0.0006571133,-0.0005006815,6,1
0.0007011951,-0.0005527044,6,1
0.0007313393,-0.0006131548,6,1
0.0007674799,-0.0006760361,6,1
0.0008133444,-0.0007282211,6,1
0.0008447851,-0.0007496137,6,1
0.0008237166,-0.0007160662,6,1
0.0007298806,-0.0006159099,6,1
0.0005752703,-0.0004507654,6,1
0.0003989431,-0.0002451045,6,1
0.0002412535,-3.587821e-05,6,1
0.0001227837,0.0001406109,6,1
3.526847e-05,0.0002645909,6,1
-3.976777e-05,0.0003349273,6,1
-0.0001125351,0.0003616681,6,1
-0.0001812508,0.0003613439,6,1
-0.0002358668,0.0003508097,6,1
-0.0002674695,0.0003380065,6,1
-0.0002695764,0.000324231,6,1
-0.000251263,0.00030689,6,1
-0.0002332737,0.0002838767,6,1
-0.0002318152,0.0002576221,6,1
-0.0002517492,0.000232502,6,1
-0.0002758969,0.0002085163,6,1
-0.0002671454,0.0001851789,6,1
-0.0001963229,0.0001654069,6,1
-6.861539e-05,0.0001519555,6,1
8.080883e-05,0.0001402868,6,1
0.0002106232,0.0001257009,6,1
0.0002898731,0.000106091,6,1
0.0003062417,8.194328e-05,6,1
0.0002654013,5.893001e-05,6,1
0.0001808031,4.434413e-05,6,1
6.395404e-05,3.786152e-05,6,1
-7.55842e-05,3.786152e-05,6,1
-0.0002263049,3.705119e-05,6,1
-0.0003638984,3.235129e-05,6,1
-0.0004648651,2.603075e-05,6,1
-0.0005211017,2.133085e-05,6,1
-0.000546708,1.889987e-05,6,1
-0.0005625904,1.565857e-05,6,1
-0.000583983,5.286387e-06,6,1
-0.000616072,-1.497178e-05,6,1
-0.0006526987,-3.976777e-05,6,1
-0.0006817085,-6.099833e-05,6,1
-0.0006946736,-8.158062e-05,6,1
-0.0006857601,-0.0001070249,6,1
-0.0006457299,-0.0001373311,6,1
-0.0005627525,-0.0001663408,6,1
-0.0004334244,-0.000189192,6,1
-0.0002689281,-0.0001998883,6,1
-8.07703e-05,-0.000201671,6,1
0.0001229458,-0.0001972953,6,1
0.0003222862,-0.0001943781,6,1
0.0004806241,-0.0001982676,6,1
0.0005493398,-0.0002055606,6,1
0.0004942376,-0.000211557,6,1
0.0003258516,-0.0002118811,6,1
0.0001022015,-0.0002078295,6,1
-0.0001031353,-0.0002008607,6,1
-0.0002397564,-0.0001908126,6,1
-0.000300855,-0.0001736337,6,1
-0.0003172236,-0.0001493239,6,1
-0.000335699,-0.000122097,6,1
-0.0003865875,-9.551824e-05,6,1
-0.0004713477,-7.18567e-05,6,1
-0.0005632387,-5.111234e-05,6,1
-0.0006157478,-2.939559e-05,6,1
-0.0005975965,-7.030578e-06,6,1
-0.000514457,1.193106e-05,6,1
-0.0004044147,2.327564e-05,6,1
-0.0003128478,3.170304e-05,6,1
-0.0002724935,4.580272e-05,6,1
-0.0002823795,6.881599e-05,6,1
-0.0003159271,9.766362e-05,6,1
-0.0003345645,0.0001269974,6,1
-0.0003016653,0.0001501728,6,1
-0.0002032917,0.0001668655,6,1
-4.219875e-05,0.0001801549,6,1
0.0001566554,0.0001916615,6,1
0.0003493511,0.0002030061,6,1
0.0004901859,0.0002184023,6,1
0.0005519328,0.0002367157,6,1
0.0005365367,0.0002545429,6,1
0.0004683071,0.0002670219,6,1
0.0003806297,0.0002731804,6,1
0.0003039728,0.0002741528,6,1
0.0002563256,0.0002678322,6,1
0.0002444948,0.0002568118,6,1
0.0002641047,0.0002453052,6,1
0.0003017039,0.0002357433,6,1
0.000339141,0.000225209,6,1
0.0003559958,0.0002086784,6,1
0.0003342791,0.0001859892,6,1
0.0002739907,0.0001590864,6,1
0.0001913374,0.0001346145,6,1
0.0001172735,0.0001156529,6,1
8.340187e-05,0.0001051186,6,1
0.0001002567,0.0001000946,6,1
0.0001508211,9.442231e-05,6,1
0.0002112714,8.648112e-05,6,1
0.0002662116,7.643307e-05,6,1
0.0003018659,6.41161e-05,6,1
0.0003059176,4.82337e-05,6,1
0.0002754493,2.910999e-05,6,1
0.0002138645,7.879432e-06,6,1
0.0001286181,-1.643037e-05,6,1
2.684107e-05,-4.398147e-05,6,1
-8.239095e-05,-7.461182e-05,6,1
-0.0001956746,-0.0001034594,6,1
-0.0003066893,-0.0001258245,6,1
-0.0004070078,-0.0001410586,6,1
-0.0004869059,-0.0001533756,6,1
-0.0005348772,-0.0001687718,6,1
-0.0005426564,-0.0001880575,6,1
-0.0004984126,-0.000206533,6,1
-0.0003912874,-0.000219012,6,1
-0.0002256567,-0.000224036,6,1
-2.437157e-05,-0.0002206326,6,1
0.0001866375,-0.0002133397,6,1
0.0003840331,-0.0002083157,6,1
0.0005389676,-0.0002081536,6,1
0.0006237278,-0.0002079916,6,1
0.000624052,-0.0002071812,6,1
0.0005580913,-0.0002036158,6,1
0.0004697657,-0.0001968091,6,1
0.0004204978,-0.0001877334,6,1
0.0004611762,-0.0001773612,6,1
0.0006010387,-0.0001656925,6,1
0.0008118858,-0.0001525652,6,1
0.001043153,-0.0001368449,6,1
0.001249787,-0.0001229073,6,1
0.00140148,-0.000112373,6,1
0.001480893,-0.0001091317,6,1
0.00147992,-0.0001151281,6,1
0.001391108,-0.0001276072,6,1
0.001215591,-0.0001383035,6,1
0.0009660101,-0.0001405724,6,1
0.0006720233,-0.0001293899,6,1
0.000373823,-0.0001065387,6,1
0.0001009049,-7.866345e-05,6,1
-0.0001232314,-5.159854e-05,6,1
-0.0002877277,-3.231277e-05,6,1
-0.0003964735,-2.534396e-05,6,1
-0.0004624341,-2.680255e-05,6,1
-0.0005021401,-2.809907e-05,6,1
-0.0005300153,-2.356124e-05,6,1
-0.0005504355,-9.137427e-06,6,1
-0.0005574043,1.517237e-05,6,1
-0.0005457356,4.466826e-05,6,1
-0.0005178604,7.448828e-05,6,1
-0.0004813957,0.0001015532,6,1
-0.0004476861,0.0001244044,6,1
-0.0004212695,0.0001440143,6,1
-0.0004029561,0.0001553589,6,1
-0.0003908012,0.0001524417,6,1
-0.0003823738,0.0001323456,6,1
-0.0003788084,0.0001007429,6,1
-0.0003797808,6.508849e-05,6,1
-0.0003833462,2.76514e-05,6,1
-0.0003835083,-5.89612e-06,6,1
-0.0003773498,-3.101625e-05,6,1
-0.0003698948,-4.203669e-05,6,1
-0.0003791325,-3.441962e-05,6,1
-0.0004110594,-9.461558e-06,6,1
-0.0004459034,2.441009e-05,6,1
-0.0004549791,5.795762e-05,6,1
-0.0004235384,8.518459e-05,6,1
-0.0003590364,0.0001064152,6,1
-0.000286107,0.0001265113,6,1
-0.000223874,0.0001475797,6,1
-0.0001825473,0.0001678379,6,1
-0.0001666649,0.0001817755,6,1
-0.0001741199,0.0001880961,6,1
-0.000201671,0.0001914995,6,1
-0.0002473734,0.0001965235,6,1
-0.0003037722,0.0002041406,6,1
-0.0003575778,0.0002112714,6,1
-0.0004016596,0.0002125679,6,1
-0.0004251591,0.0002073819,6,1
-0.000410087,0.0001991165,6,1
-0.0003423437,0.0001874478,6,1
-0.0002233878,0.0001718896,6,1
-7.963584e-05,0.0001547106,6,1
4.288554e-05,0.000135749,6,1
9.798775e-05,0.0001148425,6,1
6.573675e-05,9.604298e-05,6,1
-3.053005e-05,8.291568e-05,6,1
-0.0001428413,7.967438e-05,6,1
-0.0002259808,8.550872e-05,6,1
-0.0002582318,9.458438e-05,6,1
-0.0002459149,9.879808e-05,6,1
-0.0002188499,9.68533e-05,6,1
-0.0002096122,8.907416e-05,6,1
-0.0002344082,7.724339e-05,6,1
-0.000281083,6.508849e-05,6,1
-0.000325813,5.439218e-05,6,1
-0.0003494746,4.094075e-05,6,1
-0.0003395886,2.278944e-05,6,1
-0.0002998826,4.47606e-06,6,1
-0.0002444563,-1.108221e-05,6,1
-0.0001862748,-2.437157e-05,6,1
-0.0001399241,-3.490581e-05,6,1
-0.0001105903,-4.05781e-05,6,1
-9.405965e-05,-4.414354e-05,6,1
-8.109443e-05,-5.062615e-05,6,1
-6.618442e-05,-6.553616e-05,6,1
-5.095028e-05,-8.984595e-05,6,1
-3.312309e-05,-0.0001230693,6,1
-2.654814e-06,-0.0001642339,6,1
4.142696e-05,-0.0002112329,6,1
9.247754e-05,-0.0002541802,6,1
0.0001462832,-0.0002893484,6,1
0.0002057612,-0.0003177098,6,1
0.0002663737,-0.000342992,6,1
0.0003138588,-0.0003632501,6,1
0.0003349273,-0.0003765395,6,1
0.0003266619,-0.0003833462,6,1
0.0002879283,-0.0003848048,6,1
0.0002166196,-0.0003835083,6,1
0.0001143563,-0.0003775118,6,1
-5.734056e-06,-0.0003566054,6,1
-0.0001219349,-0.0003112272,6,1
-0.0002194982,-0.0002426735,6,1
-0.0002852967,-0.0001632615,6,1
-0.0002977757,-9.049421e-05,6,1
-0.000231491,-3.296103e-05,6,1
-7.444975e-05,9.175954e-06,6,1
0.0001467694,3.996837e-05,6,1
0.0003692851,6.622294e-05,6,1
0.0005358884,9.280167e-05,6,1
0.0006112488,0.0001229458,6,1
0.0005883976,0.0001560072,6,1
0.0004935893,0.0001940925,6,1
0.000376416,0.0002336365,6,1
0.0002861456,0.0002668598,6,1
0.0002493568,0.0002809595,6,1
0.0002642668,0.0002655633,6,1
0.0003005694,0.0002219677,6,1
0.0003146691,0.000160707,6,1
0.0002718839,9.377406e-05,6,1
0.0001668655,3.170304e-05,6,1
2.457216e-05,-1.335113e-05,6,1
-0.0001217728,-3.328516e-05,6,1
-0.0002423494,-2.696461e-05,6,1
-0.0003185201,-3.858999e-07,6,1
-0.0003493125,3.721326e-05,6,1
-0.0003515814,7.319176e-05,6,1
-0.0003442885,9.588091e-05,6,1
-0.0003374817,9.814982e-05,6,1
-0.0003259751,7.870197e-05,6,1
-0.0002882139,4.807163e-05,6,1
-0.0002049123,2.197911e-05,6,1
-7.931171e-05,1.209313e-05,6,1
7.059871e-05,1.630683e-05,6,1
0.000220023,2.975825e-05,6,1
0.0003474063,4.888196e-05,6,1
0.0004367043,7.400208e-05,6,1
0.000483055,0.0001033359,6,1
0.0004872688,0.000130725,6,1
0.0004626348,0.0001539003,6,1
0.0004247115,0.0001718896,6,1
0.0003947294,0.0001863134,6,1
0.0003919743,0.0002021958,6,1
0.0004313562,0.0002203471,6,1
0.0005169268,0.000237526,6,1
0.0006373413,0.0002504913,6,1
0.0007655351,0.0002558394,6,1
0.0008838429,0.0002560015,6,1
0.0009878889,0.0002532463,6,1
0.001073297,0.0002521119,6,1
0.001127589,0.0002535705,6,1
0.001131641,0.0002585945,6,1
0.001063411,0.0002652392,6,1
0.0009118802,0.0002639427,6,1
0.0006822334,0.00024255,6,1
0.0004104497,0.000192796,6,1
0.000158114,0.0001195424,6,1
-1.788895e-05,3.60788e-05,6,1
-9.924574e-05,-4.025397e-05,6,1
-9.940781e-05,-9.697683e-05,6,1
-3.328516e-05,-0.0001279313,6,1
7.756752e-05,-0.000134738,6,1
0.0002020337,-0.0001214487,6,1
0.0002979764,-9.341139e-05,6,1
0.0003329825,-6.44017e-05,6,1
0.0002892249,-5.046408e-05,6,1
0.0001718896,-6.423963e-05,6,1
2.207145e-06,-0.0001084835,6,1
-0.00018433,-0.0001776853,6,1
-0.0003519055,-0.0002674695,6,1
-0.0004813957,-0.0003716775,6,1
-0.0005734488,-0.0004830164,6,1
-0.0006400577,-0.000586414,6,1
-0.0006933771,-0.0006624226,6,1
-0.0007413484,-0.000695646,6,1
-0.0007791097,-0.0006826808,6,1
-0.0007982334,-0.0006249856,6,1
-0.0007927231,-0.0005358497,6,1
-0.0007622549,-0.0004371519,6,1
-0.0007103939,-0.0003400748,6,1
-0.0006426507,-0.0002457528,6,1
-0.0005661559,-0.0001567789,6,1
-0.0004791268,-8.222889e-05,6,1
-0.000367788,-2.485776e-05,6,1
-0.0002212809,1.889987e-05,6,1
-3.798505e-05,5.423012e-05,6,1
0.0001662173,8.550872e-05,6,1
0.0003553475,0.0001145184,6,1
0.0004806241,0.0001378558,6,1
0.000507689,0.0001540623,6,1
0.0004295735,0.0001654069,6,1
0.0002675081,0.0001728619,6,1
6.654708e-05,0.0001738343,6,1
-0.000129714,0.0001696206,6,1
-0.0002922655,0.0001647587,6,1
-0.0004123559,0.0001678379,6,1
-0.0004985746,0.0001812893,6,1
-0.0005674524,0.0002030061,6,1
-0.0006283889,0.0002312055,6,1
-0.0006734431,0.0002621599,6,1
-0.0006828429,0.0002876042,6,1
-0.0006394094,0.0003021901,6,1
-0.000539091,0.00030689,6,1
-0.0003908012,0.0003065659,6,1
-0.0002143121,0.0003033245,6,1
-4.090223e-05,0.0002965178,6,1
9.426025e-05,0.0002872801,6,1
0.0001613553,0.0002749631,6,1
0.0001516314,0.0002619979,6,1
7.886404e-05,0.0002529222,6,1
-2.566809e-05,0.0002550291,6,1
-0.0001306864,0.0002689667,6,1
-0.0002173914,0.0002856594,6,1
-0.0002831898,0.0002960316,6,1
-0.0003238683,0.0002989488,6,1
-0.0003314853,0.000297004,6,1
-0.0003128478,0.0002926282,6,1
-0.0002836761,0.0002876042,6,1
-0.0002561249,0.0002764217,6,1
-0.0002326255,0.0002571359,6,1
-0.0002021572,0.0002292607,6,1
-0.0001493239,0.0001934442,6,1
-7.396356e-05,0.0001453108,6,1
1.193106e-05,8.453633e-05,6,1
8.599492e-05,1.387585e-05,6,1
0.0001255389,-6.06742e-05,6,1
0.0001260251,-0.0001298761,6,1
0.0001023635,-0.0001874093,6,1
7.756752e-05,-0.000231491,6,1
6.006447e-05,-0.0002600145,6,1
4.45062e-05,-0.0002801106,6,1
2.197911e-05,-0.000300855,6,1
-1.513384e-05,-0.0003248407,6,1
-7.23429e-05,-0.0003421817,6,1
-0.0001509446,-0.0003438023,6,1
-0.0002467252,-0.000325651,6,1
-0.0003485022,-0.0002932379,6,1
-0.0004358554,-0.0002566112,6,1
-0.0004925782,-0.0002282497,6,1
-0.000511864,-0.0002131776,6,1
-0.0004979264,-0.0002062088,6,1
-0.0004577342,-0.000199078,6,1
-0.0003984183,-0.0001822232,6,1
-0.0003303509,-0.0001522411,6,1
-0.0002652006,-0.0001165867,6,1
-0.0002117191,-8.935975e-05,6,1
-0.0001755785,-8.368748e-05,6,1
-0.0001577513,-0.0001003802,6,1
-0.0001546721,-0.0001269589,6,1
-0.000156941,-0.0001485136,6,1
-0.0001514308,-0.0001579134,6,1
-0.0001230693,-0.0001528894,6,1
-6.845333e-05,-0.0001360346,6,1
3.179537e-06,-0.0001112386,6,1
7.351589e-05,-8.336335e-05,6,1
0.0001188942,-5.532604e-05,6,1
0.000128456,-2.858527e-05,6,1
0.0001017153,-3.789272e-06,6,1
5.212327e-05,2.570662e-05,6,1
1.558884e-06,6.184718e-05,6,1
-2.939559e-05,0.0001017153,6,1
-3.344723e-05,0.0001365593,6,1
-1.756482e-05,0.0001590864,6,1
1.241726e-05,0.0001589243,6,1
5.601284e-05,0.0001312112,6,1
0.0001187321,8.097089e-05,6,1
0.0002018716,2.262738e-05,6,1
0.0002887387,-3.069211e-05,6,1
0.0003522683,-7.493595e-05,6,1
0.0003733368,-0.0001110765,6,1
0.0003551855,-0.0001430034,6,1
0.0003256896,-0.0001729855,6,1
0.0003337929,-0.0002000504,6,1
0.0004266563,-0.0002175534,6,1
0.0006196762,-0.0002193361,6,1
0.0008775223,-0.000201509,6,1
0.001137313,-0.0001650443,6,1
0.001333899,-0.0001161005,6,1
0.001415418,-5.921561e-05,6,1
0.001368905,6.096713e-06,6,1
0.001221588,7.546067e-05,6,1
0.001027271,0.0001430419,6,1
0.0008305234,0.0001973338,6,1
0.0006519272,0.0002331503,6,1
0.000490348,0.000252436,6,1
0.0003324963,0.0002579462,6,1
0.0001678379,0.0002535705,6,1
-6.058186e-06,0.0002419018,6,1
-0.0001797922,0.000225209,6,1
-0.0003329439,0.000210299,6,1
-0.0004390967,0.0002025199,6,1
-0.0004847991,0.0002055991,6,1
-0.0004664857,0.0002203471,6,1
-0.000387884,0.0002407673,6,1
-0.0002598524,0.0002560015,6,1
-0.0001125351,0.0002568118,6,1
9.824215e-06,0.0002433604,6,1
6.606088e-05,0.000220023,6,1
4.175109e-05,0.0001910133,6,1
-3.976777e-05,0.0001615174,6,1
-0.0001357104,0.0001342904,6,1
-0.0002126914,0.0001041462,6,1
-0.0002473734,6.006447e-05,6,1
-0.0002204706,-1.075808e-05,6,1
-0.0001204763,-0.0001076731,6,1
4.175109e-05,-0.0002209568,6,1
0.000220185,-0.0003300267,6,1
0.0003509718,-0.0004167317,6,1
0.0003854917,-0.0004661616,6,1
0.0003154794,-0.0004765338,6,1
0.0001647587,-0.0004507654,6,1
-3.409549e-05,-0.0004040906,6,1
-0.0002543422,-0.0003553089,6,1
-0.0004698891,-0.0003196545,6,1
-0.0006520505,-0.0002979378,6,1
-0.0007705202,-0.0002827037,6,1
-0.0007961266,-0.0002614731,6,1
-0.0007045596,-0.0002287359,6,1
-0.000489661,-0.0001890299,6,1
-0.000191785,-0.0001504584,6,1
0.0001187321,-0.0001214487,6,1
0.0003840331,-0.000104756,6,1
0.0005705704,-0.0001026491,6,1
0.0006550064,-0.0001105903,6,1
0.0006305345,-0.0001274451,6,1
0.0005106062,-0.0001512687,6,1
0.0003264999,-0.000181737,6,1
0.000125863,-0.000216581,6,1
-3.620233e-05,-0.0002494803,6,1
-0.0001110765,-0.0002703867,6,1
-6.748094e-05,-0.0002718453,6,1
8.372601e-05,-0.000251263,6,1
0.0002832284,-0.0002120432,6,1
0.0004584211,-0.0001630995,6,1
0.0005590637,-0.0001126972,6,1
0.000574622,-6.569822e-05,6,1
0.000522599,-2.388537e-05,6,1
0.0004337872,1.160693e-05,6,1
0.0003457857,4.499239e-05,6,1
0.000289387,7.691926e-05,6,1
0.000269777,0.0001099806,6,1
0.0002720459,0.0001451488,6,1
0.0002728562,0.0001817755,6,1
0.0002529222,0.0002164575,6,1
0.0002041406,0.0002470879,6,1
0.0001291043,0.0002715597,6,1
3.478228e-05,0.0002900352,6,1
-6.278104e-05,0.0003036487,6,1
-0.0001498101,0.0003159656,6,1
-0.0002162569,0.0003273102,6,1
-0.000263742,0.0003388169,6,1
-0.0003021515,0.0003483787,6,1
-0.00033813,0.000356482,6,1
-0.0003671397,0.0003624784,6,1
-0.0003799429,0.0003676645,6,1
-0.0003684362,0.0003741471,6,1
-0.0003340784,0.000378847,6,1
-0.000285945,0.0003841952,6,1
-0.0002323013,0.0003874365,6,1
-0.0001682856,0.0003833848,6,1
-9.486997e-05,0.0003683128,6,1
-3.328516e-05,0.0003501615,6,1
-5.247859e-06,0.0003370341,6,1
-1.934754e-05,0.0003326584,6,1
-6.602235e-05,0.0003328204,6,1
-0.0001229073,0.0003346032,6,1
-0.0001653684,0.000334117,6,1
-0.0001825473,0.0003303894,6,1
-0.0001822232,0.0003222862,6,1
-0.0001835197,0.000309483,6,1
-0.0002131776,0.0002936006,6,1
-0.0002912931,0.0002752873,6,1
-0.0004107352,0.0002577842,6,1
-0.0005410357,0.000242388,6,1
-0.000648323,0.0002289366,6,1
-0.0007066664,0.0002145127,6,1
-0.0007087733,0.00019782,6,1
-0.0006619364,0.0001785342,6,1
-0.0005820383,0.0001584381,6,1
-0.0004878783,0.0001396385,6,1
-0.0003956632,0.0001257009,6,1
-0.0003188442,0.0001140322,6,1
-0.0002718453,0.0001020394,6,1
-0.0002626076,8.356394e-05,6,1
-0.0002763831,5.633696e-05,6,1
-0.0002716832,2.295151e-05,6,1
-0.0002042641,-8.165035e-06,6,1
-5.64605e-05,-3.344723e-05,6,1
0.0001461212,-5.451572e-05,6,1
0.0003495132,-7.444975e-05,6,1
0.000487755,-9.649064e-05,6,1
0.0005093097,-0.0001232314,6,1
0.0004021844,-0.0001551583,6,1
0.0002031682,-0.0001898403,6,1
-1.027188e-05,-0.0002225774,6,1
-0.000159534,-0.0002454286,6,1
-0.0002036158,-0.0002553146,6,1
-0.0001624512,-0.0002556388,6,1
-9.422172e-05,-0.0002540181,6,1
-5.2733e-05,-0.0002545043,6,1
-5.59743e-05,-0.0002549905,6,1
-9.017008e-05,-0.0002545043,6,1
-0.000132145,-0.0002564491,6,1
-0.0001673132,-0.0002626076,6,1
-0.0001883817,-0.0002739521,6,1
-0.0001982676,-0.0002888622,6,1
-0.000213988,-0.0003073376,6,1
-0.0002567732,-0.000328082,6,1
-0.0003392644,-0.0003444506,6,1
-0.0004493068,-0.0003507711,6,1
-0.0005552975,-0.0003454229,6,1
-0.0006288751,-0.0003322956,6,1
-0.0006562641,-0.0003144685,6,1
-0.0006348715,-0.0002968033,6,1
-0.0005708557,-0.0002820554,6,1
-0.0004836646,-0.0002697385,6,1
-0.0004023079,-0.0002523975,6,1
-0.0003548227,-0.000226467,6,1
-0.000350609,-0.0001938919,6,1
-0.0003771877,-0.0001564548,6,1
-0.0004018217,-0.0001151281,6,1
-0.0003843186,-7.088431e-05,6,1
-0.0002979378,-3.166451e-05,6,1
-0.0001407345,1.234753e-06,6,1
5.390598e-05,2.81376e-05,6,1
0.0002384984,4.628891e-05,6,1
0.0003765781,5.649903e-05,6,1
0.0004543695,6.168512e-05,6,1
0.0004819206,7.043665e-05,6,1
0.0004914824,9.004655e-05,6,1
0.0005198439,0.0001197045,6,1
0.0005841838,0.0001517934,6,1
0.0006707268,0.0001767515,6,1
0.0007580801,0.0001914995,6,1
0.0008379783,0.0001968476,6,1
0.0009105837,0.0001961994,6,1
0.0009737893,0.0001937684,6,1
0.001011388,0.0001918236,6,1
0.001002475,0.0001911753,6,1
0.0009447795,0.000192796,6,1
0.0008598572,0.0001932822,6,1
0.0007785003,0.0001866375,6,1
0.0007214533,0.0001691344,6,1
0.0006906608,0.0001385041,6,1
0.0006691061,9.31258e-05,6,1
0.0006328035,3.591673e-05,6,1
0.000562143,-2.712668e-05,6,1
0.0004525868,-8.725291e-05,6,1
0.0003208276,-0.0001397621,6,1
0.0001863134,-0.0001890299,6,1
5.633696e-05,-0.0002412149,6,1
-7.137051e-05,-0.0002925897,6,1
-0.0002057227,-0.0003319715,6,1
-0.0003412093,-0.000350447,6,1
-0.0004659995,-0.0003426678,6,1
-0.0005650214,-0.0003130099,6,1
-0.0006266062,-0.0002718453,6,1
-0.0006449196,-0.0002290601,6,1
-0.0006279027,-0.000186761,6,1
-0.0005807417,-0.0001475412,6,1
-0.0005112157,-0.0001130213,6,1
-0.0004277521,-8.498399e-05,6,1
-0.0003491504,-6.683268e-05,6,1
-0.0002942103,-5.435365e-05,6,1
-0.0002663351,-4.657452e-05,6,1
-0.0002541802,-4.252288e-05,6,1
-0.0002517492,-3.879538e-05,6,1
-0.0002635799,-3.198864e-05,6,1
-0.0002898345,-1.902341e-05,6,1
-0.0003212752,-4.113403e-06,6,1
-0.0003329439,1.274139e-05,6,1
-0.0003021515,3.18651e-05,6,1
-0.0002157707,5.277153e-05,6,1
-6.926366e-05,7.335383e-05,6,1
0.0001323456,8.923623e-05,6,1
0.0003725265,0.0001017153,6,1
0.0006170832,0.0001080358,6,1
0.0008366818,0.0001051186,6,1
0.001007337,9.16672e-05,6,1
0.001119486,7.076078e-05,6,1
0.001164054,4.288554e-05,6,1
0.001132127,1.241726e-05,6,1
0.001021923,-1.594417e-05,6,1
0.0008501333,-3.182657e-05,6,1
0.0006524134,-2.42095e-05,6,1
0.0004699278,9.986281e-06,6,1
0.0003339549,6.249545e-05,6,1
0.0002576221,0.0001213252,6,1
0.0002279642,0.0001735102,6,1
0.000227478,0.0002125679,6,1
0.0002367157,0.0002360674,6,1
0.0002376881,0.00024255,6,1
0.000217592,0.0002326641,6,1
0.000177886,0.0002114335,6,1
0.0001253768,0.0001898788,6,1
6.897806e-05,0.0001772377,6,1
1.630683e-05,0.0001840444,6,1
-3.555408e-05,0.0002059233,6,1
-9.227693e-05,0.0002299089,6,1
-0.0001559686,0.0002378501,6,1
-0.000221605,0.0002124059,6,1
-0.0002778417,0.000148228,6,1
-0.0003235441,5.682316e-05,6,1
-0.0003647087,-4.203669e-05,6,1
-0.0004070078,-0.0001319829,6,1
-0.0004480103,-0.0002031296,6,1
-0.0004765338,-0.0002527216,6,1
-0.0004815578,-0.0002852967,6,1
-0.0004583824,-0.0003146305,6,1
-0.0004152731,-0.0003491504,6,1
-0.0003622777,-0.0003895047,6,1
-0.0003055549,-0.0004269418,6,1
-0.0002545043,-0.000444931,6,1
-0.0002248464,-0.0004235384,6,1
-0.0002347323,-0.000355471,6,1
-0.0002951827,-0.0002449425,6,1
-0.0003891806,-0.0001081593,6,1
-0.0004890127,3.267542e-05,6,1
-0.0005757177,0.0001480659,6,1
-0.0006475127,0.0002156472,6,1
-0.000708125,0.0002308813,6,1
-0.0007538275,0.0002060853,6,1
-0.0007716547,0.0001597346,6,1
-0.0007347037,0.0001128978,6,1
-0.0006225546,7.886404e-05,6,1
-0.0004400691,6.006447e-05,6,1
-0.0002211189,5.56887e-05,6,1
-8.651231e-06,6.362991e-05,6,1
0.0001660552,8.04847e-05,6,1
0.0002864697,0.000103498,6,1
0.0003551855,0.0001315353,6,1
0.000378847,0.0001665414,6,1
0.000366368,0.0002090025,6,1
0.0003344411,0.0002561635,6,1
0.0003096451,0.0002940868,6,1
0.0003128864,0.0003091589,6,1
0.0003493511,0.0003017039,6,1
0.0003987811,0.0002854973,6,1
0.0004323286,0.0002803113,6,1
0.0004253598,0.0002900352,6,1
0.0003662059,0.0003062417,6,1
0.0002641047,0.0003171001,6,1
0.0001443384,0.0003162898,6,1
4.013043e-05,0.0003055935,6,1
-2.404744e-05,0.0002934386,6,1
-4.203669e-05,0.0002842008,6,1
-2.680255e-05,0.0002773941,6,1
-2.330684e-06,0.0002641047,6,1
9.824215e-06,0.000237526,6,1
-4.761664e-06,0.0001987924,6,1
-4.965376e-05,0.000153252,6,1
-0.0001178833,0.000101067,6,1
-0.0001964849,4.369587e-05,6,1
-0.0002739521,-1.869928e-05,6,1
-0.0003475298,-8.498399e-05,6,1
-0.0004214316,-0.0001515928,6,1
-0.0005000332,-0.0002198223,6,1
-0.0005755557,-0.0003002067,6,1
-0.000623689,-0.0003933943,6,1
-0.000621096,-0.000484475,6,1
-0.0005588629,-0.0005496252,6,1
-0.0004463896,-0.0005749074,6,1
-0.0003128478,-0.0005656697,6,1
-0.0001900023,-0.0005431426,6,1
-9.859748e-05,-0.0005290429,6,1
-4.47918e-05,-0.0005340669,6,1
-3.344723e-05,-0.0005530285,6,1
-6.310517e-05,-0.000568911,6,1
-0.0001180453,-0.0005645352,6,1
-0.000176713,-0.0005272602,6,1
-0.0002203085,-0.0004565997,6,1
-0.0002358668,-0.0003609812,6,1
-0.0002183637,-0.0002558008,6,1
-0.0001724993,-0.000156941,6,1
-0.0001032974,-7.866345e-05,6,1
-1.399939e-05,-2.647842e-05,6,1
8.016057e-05,1.072688e-06,6,1
0.0001569795,1.306552e-05,6,1
0.0001974959,2.376183e-05,6,1
0.0001961994,4.013043e-05,6,1
0.0001634622,6.152305e-05,6,1
0.0001218114,8.567078e-05,6,1
9.896015e-05,0.0001088461,6,1
0.0001080358,0.0001289422,6,1
0.0001440143,0.0001490383,6,1
0.0001777239,0.000170431,6,1
0.0001786963,0.0001900409,6,1
0.0001380179,0.0002047888,6,1
6.83298e-05,0.0002090025,6,1
-1.20546e-05,0.0001987924,6,1
-9.308726e-05,0.0001752929,6,1
-0.0001681235,0.0001445005,6,1
-0.0002057227,0.0001197045,6,1
-0.0001585616,0.0001158149,6,1
-2.492749e-06,0.0001399627,6,1
0.0002336365,0.0001905271,6,1
0.0004759242,0.000259729,6,1
0.0006569512,0.0003389789,6,1
0.0007631041,0.0004193634,6,1
0.0008334405,0.0004905101,6,1
0.0009141492,0.0005410745,6,1
0.001016899,0.0005650602,6,1
0.001110735,0.000557281,6,1
0.001148658,0.0005213025,6,1
0.001095176,0.0004668485,6,1
0.0009494794,0.0004104497,6,1
0.0007457631,0.0003666921,6,1
0.0005269747,0.0003402755,6,1
0.000324231,0.0003258516,6,1
0.0001480659,0.0003146691,6,1
-7.100305e-07,0.0003028383,6,1
-0.0001225832,0.000287118,6,1
-0.0002207947,0.0002678322,6,1
-0.0003060411,0.0002467637,6,1
-0.0003859393,0.0002261814,6,1
-0.0004577342,0.0002013854,6,1
-0.0005155915,0.0001725378,6,1
-0.0005577285,0.0001415833,6,1
-0.0005899795,0.0001148425,6,1
-0.0006142893,9.393612e-05,6,1
-0.00062612,7.805372e-05,6,1
-0.0006129927,6.444023e-05,6,1
-0.0005630766,4.920609e-05,6,1
-0.0004755614,3.494434e-05,6,1
-0.0003692465,2.424803e-05,6,1
-0.0002836761,1.290346e-05,6,1
-0.0002549905,-3.627206e-06,6,1
-0.0002911311,-2.631635e-05,6,1
-0.0003692465,-6.002594e-05,6,1
-0.0004530343,-0.0001075111,6,1
-0.0005133225,-0.0001630995,6,1
-0.0005437909,-0.0002147983,6,1
-0.000546546,-0.0002528836,6,1
-0.0005272602,-0.0002729798,6,1
-0.0004958195,-0.0002767073,6,1
-0.0004578962,-0.0002708729,6,1
-0.0004177041,-0.0002677937,6,1
-0.0003841565,-0.00027849,6,1
-0.000360495,-0.0003044204,6,1
-0.0003327818,-0.0003300267,6,1
-0.0002737901,-0.0003373197,6,1
-0.0001572651,-0.0003237062,6,1
1.776542e-05,-0.0002961551,6,1
0.000232502,-0.0002609869,6,1
0.0004618245,-0.0002241981,6,1
0.0006738061,-0.0001865989,6,1
0.0008436506,-0.0001498101,6,1
0.0009694134,-0.000117235,6,1
0.001067301,-8.838737e-05,6,1
0.001164378,-6.213279e-05,6,1
0.001274907,-3.68506e-05,6,1
0.001394836,-1.25408e-05,6,1
0.001493209,6.096713e-06,6,1
0.00153794,1.614476e-05,6,1
0.001518168,1.565857e-05,6,1
0.001454314,3.665733e-06,6,1
0.001384787,-1.869928e-05,6,1
0.001330334,-4.90055e-05,6,1
0.001278148,-8.352541e-05,6,1
0.00119193,-0.0001149661,6,1
0.001047367,-0.000137169,6,1
0.0008410576,-0.0001451102,6,1
0.0005887217,-0.0001394379,6,1
0.000326824,-0.0001279313,6,1
9.21534e-05,-0.0001191798,6,1
-9.324933e-05,-0.0001177212,6,1
-0.0002209568,-0.0001178833,6,1
-0.0002993964,-0.0001143178,6,1
-0.0003476919,-0.0001067007,6,1
-0.0003867496,-0.0001010285,6,1
-0.0004322899,-0.0001075111,6,1
-0.0004839888,-0.0001331174,6,1
-0.0005275843,-0.000174444,6,1
-0.0005528665,-0.0002167431,6,1
-0.0005685869,-0.000246239,6,1
-0.0005945173,-0.0002541802,6,1
-0.0006407059,-0.0002447804,6,1
-0.0007043975,-0.0002280877,6,1
-0.0007666306,-0.0002131776,6,1
-0.0008149261,-0.0002023193,6,1
-0.0008534976,-0.0001908126,6,1
-0.0008993621,-0.0001676373,6,1
-0.0009580297,-0.0001261486,6,1
-0.00101459,-7.380149e-05,6,1
-0.001037766,-2.356124e-05,6,1
-0.0009957909,1.095867e-05,6,1
-0.0008760247,2.927205e-05,6,1
-0.0006959701,3.575467e-05,6,1
-0.0005034366,3.93201e-05,6,1
-0.0003509331,4.564065e-05,6,1
-0.0002716832,5.730935e-05,6,1
-0.000271197,7.643307e-05,6,1
-0.0003277578,0.000101067,6,1
-0.0004091146,0.000125863,6,1
-0.0004813957,0.0001464453,6,1
-0.0005248293,0.0001592484,6,1
-0.0005358497,0.0001647587,6,1
-0.0005279084,0.0001673517,6,1
-0.0005188328,0.0001715654,6,1
-0.0005136467,0.0001769136,6,1
-0.0005076503,0.0001814514,6,1
-0.0004914437,0.000185503,6,1
-0.000464703,0.0001892305,6,1
-0.0004407173,0.000190365,6,1
-0.0004425001,0.0001845306,6,1
-0.0004883645,0.0001688103,6,1
-0.0005702075,0.0001453108,6,1
-0.0006648536,0.0001201907,6,1
-0.0007497758,9.912221e-05,6,1
-0.000814764,8.323981e-05,6,1
-0.0008538218,7.481241e-05,6,1
-0.000859494,7.30297e-05,6,1
-0.0008205983,7.351589e-05,6,1
-0.0007300039,6.995045e-05,6,1
-0.0005854416,5.666109e-05,6,1
-0.0003869116,3.55926e-05,6,1
-0.0001507825,1.22552e-05,6,1
9.296373e-05,-8.975362e-06,6,1
0.0003088348,-2.761287e-05,6,1
0.0004663623,-4.446767e-05,6,1
0.0005577672,-6.002594e-05,6,1
0.000601849,-7.444975e-05,6,1
0.0006279415,-9.065628e-05,6,1
0.0006674855,-0.000107349,6,1
0.0007402529,-0.0001237176,6,1
0.0008486747,-0.0001373311,6,1
0.0009810822,-0.0001447861,6,1
0.001113328,-0.0001434896,6,1
0.001220615,-0.0001302002,6,1
0.001285117,-0.0001052422,6,1
0.001299379,-7.396356e-05,6,1
0.001263725,-4.43056e-05,6,1
0.001186581,-2.113026e-05,6,1
0.001067301,-9.137427e-06,6,1
0.0009049114,-8.165035e-06,6,1
0.0007076777,-1.497178e-05,6,1
0.0004958582,-2.501983e-05,6,1
0.0002906835,-3.63644e-05,6,1
0.0001132219,-4.43056e-05,6,1
-1.886135e-05,-4.706071e-05,6,1
-0.0001055663,-4.187462e-05,6,1
-0.0001645581,-2.761287e-05,6,1
-0.0002169052,-5.409925e-06,6,1
-0.0002747625,2.295151e-05,6,1
-0.000340561,5.325772e-05,6,1
-0.0004055492,8.372601e-05,6,1
-0.0004475241,0.0001143563,6,1
-0.0004334244,0.0001440143,6,1
-0.0003274337,0.0001694586,6,1
-0.0001173971,0.0001897167,6,1
0.0001665414,0.0002046267,6,1
0.0004459421,0.000210299,6,1
0.0006357207,0.0002033302,6,1
0.0006822334,0.0001838824,6,1
0.0005858046,0.0001642725,6,1
0.0003995914,0.0001586002,6,1
0.000195389,0.0001811273,6,1
2.441009e-05,0.0002346088,6,1
-9.632857e-05,0.0003073762,6,1
-0.0001791439,0.0003785229,6,1
-0.0002476975,0.0004289252,6,1
-0.0003118754,0.0004478869,6,1
-0.0003707051,0.0004375147,6,1
-0.0004159214,0.0004122325,6,1
-0.0004450931,0.0003867882,6,1
-0.0004540067,0.0003660439,6,1
-0.0004379622,0.0003412479,6,1
-0.0003843186,0.0003015418,6,1
-0.0002642282,0.000237526,6,1
-4.884343e-05,0.000143204,6,1
0.0002509774,2.635488e-05,6,1
0.000567167,-8.935975e-05,6,1
0.0008089686,-0.0001806025,6,1
0.0009183628,-0.0002331117,6,1
0.0009006977,-0.0002439701,6,1
0.0008195029,-0.0002207947,6,1
0.0007569456,-0.0001776853,6,1
0.0007671557,-0.0001302002,6,1
0.000861964,-9.065628e-05,6,1
0.001012037,-6.780507e-05,6,1
0.001163568,-6.342931e-05,6,1
0.001256594,-7.33153e-05,6,1
0.001256432,-8.919769e-05,6,1
0.001162271,-0.0001011905,6,1
0.001003123,-0.0001028112,6,1
0.0008107513,-9.098041e-05,6,1
0.0006136798,-7.282909e-05,6,1
0.0004337872,-5.986387e-05,6,1
0.0002801492,-6.634648e-05,6,1
0.0001509831,-0.0001013526,6,1
3.380988e-05,-0.0001637477,6,1
-9.324933e-05,-0.0002421874,6,1
-0.0002556388,-0.0003178718,6,1
-0.0004559515,-0.0003757291,6,1
-0.0006680949,-0.0004112214,6,1
-0.0008522011,-0.0004277521,6,1
-0.0009747224,-0.0004400691,6,1
-0.001019615,-0.0004561135,6,1
-0.0009949806,-0.0004805854,6,1
-0.0009385819,-0.0005089468,6,1
-0.0008959587,-0.0005295291,6,1
-0.0009001724,-0.0005316359,6,1
-0.0009570573,-0.0005115399,6,1
-0.001050245,-0.000472158,6,1
-0.001155425,-0.0004160834,6,1
-0.001247802,-0.0003460712,6,1
-0.001303553,-0.000271197,6,1
-0.001301608,-0.000201671,6,1
-0.001226248,-0.0001428413,6,1
-0.001082658,-9.713889e-05,6,1
-0.0009060067,-5.970181e-05,6,1
-0.0007488034,-2.745081e-05,6,1
-0.0006494574,2.693341e-06,6,1
-0.0006172064,3.380988e-05,6,1
-0.0006280648,6.914012e-05,6,1
-0.0006424887,0.000108522,6,1
-0.0006274165,0.000153252,6,1
-0.000571504,0.0002051129,6,1
-0.0004825302,0.0002660495,6,1
-0.0003788084,0.000334117,6,1
-0.0002817312,0.0004041292,6,1
-0.0002078295,0.0004657141,6,1
-0.0001553203,0.0005083373,6,1
-9.811128e-05,0.0005253541,6,1
-4.275467e-06,0.0005169268,6,1
0.0001294284,0.0004888894,6,1
0.0002707494,0.0004529109,6,1
0.0003717161,0.0004224426,6,1
0.0004088291,0.0004015361,6,1
0.0003981328,0.0003830607,6,1
0.0003696093,0.0003572923,6,1
0.0003328204,0.0003183966,6,1
0.0002735045,0.0002654013,6,1
0.0001799928,0.0002033302,6,1
6.41161e-05,0.0001362352,6,1
-3.652646e-05,6.46023e-05,6,1
-9.454585e-05,-7.678839e-06,6,1
-0.0001128592,-7.55842e-05,6,1
-0.0001164247,-0.0001384655,6,1
-0.0001305243,-0.0001901644,6,1
-0.0001549962,-0.0002188499,6,1
-0.0001634236,-0.0002063709,6,1
-0.0001245279,-0.0001459206,6,1
-2.858527e-05,-4.916756e-05,6,1
9.701536e-05,5.406805e-05,6,1
0.000210299,0.000133318,6,1
0.0002908455,0.0001709172,6,1
0.0003592371,0.0001616794,6,1
0.0004548557,0.0001096565,6,1
0.000596825,2.910999e-05,6,1
0.0007697488,-5.64605e-05,6,1
0.0009318143,-0.0001280934,6,1
0.001041046,-0.0001807646,6,1
0.001070866,-0.0002225774,6,1
0.001017709,-0.0002682799,6,1
0.000901508,-0.0003262992,6,1
0.0007618076,-0.0003904771,6,1
0.0006446343,-0.0004397449,6,1
0.0005793219,-0.0004569239,6,1
0.0005598741,-0.0004316416,6,1
0.000557281,-0.0003674638,6,1
0.0005459364,-0.0002796244,6,1
0.0005120648,-0.0001865989,6,1
0.0004459421,-0.0001002181,6,1
0.0003464339,-2.826114e-05,6,1
0.0002231022,2.846173e-05,6,1
8.891209e-05,7.513654e-05,6,1
-3.117831e-05,0.0001171115,6,1
-0.0001193418,0.0001628139,6,1
-0.0001713648,0.0002154851,6,1
-0.0002026434,0.0002684805,6,1
-0.0002323013,0.0003060797,6,1
-0.0002702246,0.0003161277,6,1
-0.000318358,0.0002984626,6,1
-0.0003724878,0.0002603772,6,1
-0.0004240246,0.0002205092,6,1
-0.0004640547,0.0001958752,6,1
-0.0004886886,0.0001895547,6,1
-0.0005040849,0.0001936063,6,1
-0.0005160777,0.0001924718,6,1
-0.0005332566,0.0001791825,6,1
-0.0005561078,0.0001498487,6,1
-0.0005757177,0.0001098185,6,1
-0.0005729626,6.670914e-05,6,1
-0.0005246671,2.619281e-05,6,1
-0.0004240246,-1.351319e-05,6,1
-0.0002958309,-5.240886e-05,6,1
-0.0001775233,-8.563225e-05,6,1
-9.924574e-05,-0.0001067007,6,1
-6.845333e-05,-0.0001139937,6,1
-7.007399e-05,-0.000112373,6,1
-7.33153e-05,-0.0001067007,6,1
-5.192267e-05,-9.875954e-05,6,1
7.485573e-07,-8.757704e-05,6,1
7.254349e-05,-7.120844e-05,6,1
0.0001451488,-5.159854e-05,6,1
0.0001986303,-3.279896e-05,6,1
0.0002227781,-1.853722e-05,6,1
0.0002232643,-5.734056e-06,6,1
0.0002145127,1.12828e-05,6,1
0.0002072198,3.364782e-05,6,1
0.0002148369,5.763349e-05,6,1
0.000247412,8.550872e-05,6,1
0.0003111037,0.0001174356,6,1
0.0004039671,0.0001472556,6,1
0.0005217887,0.0001717275,6,1
0.0006530617,0.0001905271,6,1
0.0007783383,0.0002025199,6,1
0.0008768741,0.0002070577,6,1
0.0009340832,0.0002086784,6,1
0.0009475346,0.0002114335,6,1
0.0009180387,0.0002198609,6,1
0.0008465679,0.0002357433,6,1
0.0007371737,0.000257298,6,1
0.0006010387,0.0002799871,6,1
0.0004568005,0.0002955454,6,1
0.0003132105,0.0003004074,6,1
0.0001592484,0.0002958695,6,1
-2.809907e-05,0.0002872801,6,1
-0.0002564491,0.0002791768,6,1
-0.0005008436,0.0002709115,6,1
-0.0007068285,0.0002607014,6,1
-0.0008202742,0.0002490327,6,1
-0.0008181673,0.0002344468,6,1
-0.0007212523,0.0002132162,6,1
-0.0005799314,0.0001867996,6,1
-0.0004504412,0.0001597346,6,1
-0.0003713534,0.0001354248,6,1
-0.000345585,0.0001141943,6,1
-0.0003507711,9.21534e-05,6,1
-0.0003663294,6.962632e-05,6,1
-0.0003848048,4.256141e-05,6,1
-0.0004063595,7.23117e-06,6,1
-0.0004410415,-3.992984e-05,6,1
-0.0004958195,-0.0001018388,6,1
-0.0005650214,-0.0001765509,6,1
-0.0006272545,-0.0002556388,6,1
-0.0006588572,-0.000328082,6,1
-0.0006528608,-0.0003838324,6,1
-0.0006154237,-0.0004157593,6,1
-0.0005538389,-0.0004206212,6,1
-0.00046211,-0.0004006872,6,1
-0.0003227338,-0.0003640605,6,1
-0.0001178833,-0.0003190063,6,1
0.0001748067,-0.0002767073,6,1
0.0005577672,-0.0002439701,6,1
0.00100442,-0.0002147983,6,1
0.001454962,-0.0001882196,6,1
0.001843596,-0.0001661787,6,1
0.002117325,-0.0001553203,6,1
0.002232554,-0.0001588858,6,1
0.002154276,-0.0001729855,6,1
0.001878602,-0.0001870851,6,1
0.0014501,-0.0001932436,6,1
0.0009420244,-0.0001914609,6,1
0.0004292493,-0.0001851404,6,1
-3.004385e-05,-0.0001776853,6,1
-0.0003875599,-0.0001695821,6,1
-0.0006157478,-0.0001648822,6,1
-0.0007121767,-0.0001663408,6,1
-0.0007024527,-0.0001723372,6,1
-0.0006287131,-0.0001788198,6,1
-0.0005345531,-0.000184168,6,1
-0.0004512515,-0.0001862748,6,1
-0.0003959873,-0.0001883817,6,1
-0.0003752429,-0.000191785,6,1
-0.0003987424,-0.0001951884,6,1
-0.0004749131,-0.0001961608,6,1
-0.0005919242,-0.0001937298,6,1
-0.0007222248,-0.0001922712,6,1
-0.0008359946,-0.0001971332,6,1
-0.0009131377,-0.0002060468,6,1
-0.000946523,-0.0002160948,6,1
-0.0009405267,-0.0002222533,6,1
-0.0009108688,-0.000219012,6,1
-0.0008829935,-0.000204102,6,1
-0.0008776453,-0.0001822232,6,1
-0.0009021172,-0.0001546721,6,1
-0.0009471713,-0.0001235555,6,1
-0.0009888222,-9.276313e-05,6,1
-0.001003084,-6.81292e-05,6,1
-0.0009706708,-4.965376e-05,6,1
-0.0008739179,-3.036798e-05,6,1
-0.0007011562,-7.030578e-06,6,1
-0.0004574101,1.889987e-05,6,1
-0.000174444,4.661304e-05,6,1
9.863601e-05,7.6271e-05,6,1
0.000311914,0.000111115,6,1
0.0004435111,0.0001495245,6,1
0.0005073649,0.0001869616,6,1
0.0005370228,0.0002195368,6,1
0.000564736,0.000244981,6,1
0.0005874252,0.0002619979,6,1
0.0005764047,0.0002723701,6,1
0.0005169268,0.0002782044,6,1
0.000428439,0.0002809595,6,1
0.0003504856,0.0002832284,6,1
0.0003034866,0.0002853353,6,1
0.0002785285,0.0002906835,6,1
0.000259891,0.0003023522,6,1
0.0002402811,0.0003188828,6,1
0.0002229401,0.0003303894,6,1
0.0002265056,0.000331686,6,1
0.0002691288,0.0003219621,6,1
0.0003743092,0.0003017039,6,1
0.0005619809,0.0002738286,6,1
0.0008242028,0.0002430362,6,1
0.001116245,0.0002091646,6,1
0.001369553,0.000170593,6,1
0.001522381,0.0001257009,6,1
0.001541505,7.870197e-05,6,1
0.001430004,3.672706e-05,6,1
0.001216239,3.179537e-06,6,1
0.0009412141,-2.453363e-05,6,1
0.0006436619,-4.787104e-05,6,1
0.0003503235,-6.44017e-05,6,1
7.983644e-05,-6.618442e-05,6,1
-0.0001543479,-5.143648e-05,6,1
-0.0003433161,-2.356124e-05,6,1
-0.0004859335,6.90704e-06,6,1
-0.0005847933,3.008238e-05,6,1
-0.0006512401,4.175109e-05,6,1
-0.0007019666,4.531652e-05,6,1
-0.0007509103,4.77475e-05,6,1
-0.0008079573,5.536457e-05,6,1
-0.0008781315,6.622294e-05,6,1
-0.0009654847,7.367795e-05,6,1
-0.001072124,7.254349e-05,6,1
-0.001196914,6.184718e-05,6,1
-0.00132527,4.142696e-05,6,1
-0.001412461,1.452411e-05,6,1
-0.00140144,-1.691656e-05,6,1
-0.001251044,-4.949169e-05,6,1
-0.0009823395,-8.060823e-05,6,1
-0.0006723086,-0.0001067007,6,1
-0.0004049009,-0.0001242038,6,1
-0.0002277635,-0.0001303623,6,1
-0.0001418689,-0.0001233935,6,1
-0.0001178833,-0.0001058904,6,1
-0.0001105903,-8.465986e-05,6,1
-8.271508e-05,-6.634648e-05,6,1
-2.323711e-05,-5.532604e-05,6,1
5.56887e-05,-5.257093e-05,6,1
0.0001344524,-5.451572e-05,6,1
0.0002047888,-5.808115e-05,6,1
0.0002642668,-6.180866e-05,6,1
0.0003089969,-6.569822e-05,6,1
0.0003339549,-7.039812e-05,6,1
0.0003409237,-7.428769e-05,6,1
0.0003313618,-7.914964e-05,6,1
0.0003122381,-8.384954e-05,6,1
0.0002809595,-8.887356e-05,6,1
0.0002368777,-9.179074e-05,6,1
0.0001856651,-9.260107e-05,6,1
0.0001370455,-8.984595e-05,6,1
9.766362e-05,-8.725291e-05,6,1
6.83298e-05,-9.033215e-05,6,1
4.564065e-05,-0.0001026491,6,1
2.635488e-05,-0.0001188556,6,1
3.665733e-06,-0.000129714,6,1
-2.647842e-05,-0.0001290658,6,1
-6.132246e-05,-0.0001182074,6,1
-8.984595e-05,-0.0001028112,6,1
-0.0001054042,-8.952183e-05,6,1
-0.0001067007,-8.352541e-05,6,1
-0.0001071869,-8.417367e-05,6,1
-0.0001183694,-8.82253e-05,6,1
-0.0001488377,-9.454585e-05,6,1
-0.0001972953,-0.0001042698,6,1
-0.0002575835,-0.0001165867,6,1
-0.0003246786,-0.0001216107,6,1
-0.0003958252,-0.0001104282,6,1
-0.0004593548,-8.109443e-05,6,1
-0.0004799371,-3.344723e-05,6,1
-0.0004138145,2.489629e-05,6,1
-0.0002441321,8.567078e-05,6,1
3.179537e-06,0.0001422316,6,1
0.0002692908,0.0001931201,6,1
0.0004987754,0.0002414156,6,1
0.0006585719,0.0002897111,6,1
0.00074787,0.0003386548,6,1
0.0007793107,0.0003824125,6,1
0.0007725039,0.0004136911,6,1
0.0007507871,0.0004269804,6,1
0.00074317,0.0004204978,6,1
0.0007640765,0.0003995914,6,1
0.0008065377,0.0003704196,6,1
0.0008571021,0.0003355756,6,1
0.0009068561,0.0002978143,6,1
0.0009577448,0.0002566497,6,1
0.001023705,0.0002093267,6,1
0.0011096,0.0001563313,6,1
0.001196629,0.0001022015,6,1
0.001238442,5.1475e-05,6,1
0.00118885,6.420843e-06,6,1
0.00102565,-2.615429e-05,6,1
0.0007579181,-3.766092e-05,6,1
0.000423415,-2.437157e-05,6,1
7.043665e-05,5.934648e-06,6,1
-0.0002540181,4.094075e-05,6,1
-0.0005198052,6.995045e-05,6,1
-0.0007139594,8.46984e-05,6,1
-0.0008413427,7.724339e-05,6,1
-0.0009111929,4.175109e-05,6,1
-0.0009301545,-1.788895e-05,6,1
-0.0009107067,-8.628052e-05,6,1
-0.0008664628,-0.0001426792,6,1
-0.0008100641,-0.0001708786,6,1
-0.0007479931,-0.0001627754,6,1
-0.0006802498,-0.0001138316,6,1
-0.0006121824,-2.258885e-05,6,1
-0.00055157,9.896015e-05,6,1
-0.0005034366,0.0002203471,6,1
-0.0004638926,0.0003107795,6,1
-0.0004258073,0.0003545372,6,1
-0.0003836704,0.0003558337,6,1
-0.0003339163,0.0003297412,6,1
-0.0002828657,0.0002901973,6,1
-0.0002434839,0.0002388225,6,1
-0.0002261429,0.0001761032,6,1
-0.0002282497,0.0001046324,6,1
-0.0002300324,2.943412e-05,6,1
-0.0002160948,-3.960571e-05,6,1
-0.0001773612,-9.794922e-05,6,1
-0.000112373,-0.0001455964,6,1
-2.226472e-05,-0.0001877334,6,1
9.182927e-05,-0.0002300324,6,1
0.0002297469,-0.0002739521,6,1
0.0003864641,-0.000318358,6,1
0.0005550121,-0.0003661673,6,1
0.0007287462,-0.0004264556,6,1
0.0008977805,-0.0005078124,6,1
0.001043964,-0.0006091032,6,1
0.001136341,-0.0007222248,6,1
0.001147848,-0.0008325911,6,1
0.001070056,-0.0009262649,6,1
0.0009122044,-0.000988498,6,1
0.0006964952,-0.001013618,6,1
0.0004465904,-0.001005029,6,1
0.000192958,-0.0009643502,6,1
-2.161646e-05,-0.0008898003,6,1
-0.0001511067,-0.0007770028,6,1
-0.0001681235,-0.0006259579,6,1
-7.769106e-05,-0.0004415277,6,1
6.995045e-05,-0.0002441321,6,1
0.0002088404,-5.889148e-05,6,1
0.0003012177,9.280167e-05,6,1
0.0003355756,0.0002008992,6,1
0.0003213138,0.000267184,6,1
0.0002741528,0.0002966799,6,1
0.0002015475,0.0002958695,6,1
0.0001044704,0.0002757735,6,1
-1.075808e-05,0.0002493568,6,1
-0.0001326312,0.0002284504,6,1
-0.0002395943,0.000222616,6,1
-0.0003147926,0.0002359054,6,1
-0.000353202,0.0002666978,6,1
-0.0003564434,0.000314345,6,1
-0.0003318095,0.0003791712,6,1
-0.0002992343,0.0004519385,6,1
-0.0002822175,0.0005161164,6,1
-0.0002934,0.0005618189,6,1
-0.0003340784,0.000591963,6,1
-0.0003979321,0.0006190279,6,1
-0.0004755614,0.000646417,6,1
-0.0005574043,0.000666189,6,1
-0.0006351956,0.0006669993,6,1
-0.0007008321,0.0006425274,6,1
-0.000740376,0.0006007145,6,1
-0.0007418346,0.0005532294,6,1
-0.0007011562,0.0005088235,6,1
-0.0006291993,0.0004671726,6,1
-0.0005548113,0.0004295735,6,1
-0.0005112157,0.0004028327,6,1
-0.0005172121,0.0003944053,6,1
-0.0005643732,0.0004051016,6,1
-0.0006246614,0.0004242253,6,1
-0.0006737672,0.0004281149,6,1
-0.0006977529,0.000393595,6,1
-0.000688191,0.000309483,6,1
-0.0006431369,0.0001838824,6,1
-0.0005578905,4.094075e-05,6,1
-0.0004321279,-9.130454e-05,6,1
-0.0002794623,-0.0001938919,6,1
-0.0001208004,-0.0002635799,6,1
1.436204e-05,-0.0003074997,6,1
0.0001099806,-0.000335699,6,1
0.0001702689,-0.0003570916,6,1
0.0002106232,-0.0003804291,6,1
0.0002446569,-0.0004053871,6,1
0.0002799871,-0.0004266177,6,1
0.0003229345,-0.000439907,6,1
0.0003726885,-0.0004465517,6,1
0.0004193634,-0.0004514136,6,1
0.00044578,-0.000459679,6,1
0.000443187,-0.0004684305,6,1
0.0004081808,-0.0004664857,6,1
0.0003435168,-0.0004470379,6,1
0.0002529222,-0.0004134903,6,1
0.0001483901,-0.0003707051,6,1
5.082674e-05,-0.0003222476,6,1
-2.275091e-05,-0.0002664971,6,1
-6.521203e-05,-0.0002018331,6,1
-7.590833e-05,-0.0001308485,6,1
-6.342931e-05,-5.986387e-05,6,1
-4.446767e-05,1.234753e-06,6,1
-4.414354e-05,4.661304e-05,6,1
-8.109443e-05,7.319176e-05,6,1
-0.0001580754,8.291568e-05,6,1
-0.0002639041,7.610894e-05,6,1
-0.0003779981,5.682316e-05,6,1
-0.00047702,3.040651e-05,6,1
-0.0005457356,7.485573e-07,6,1
-0.0005818762,-2.745081e-05,6,1
-0.0005909518,-4.949169e-05,6,1
-0.0005794452,-5.905355e-05,6,1
-0.0005457356,-5.111234e-05,6,1
-0.0004899852,-2.599222e-05,6,1
-0.0004230522,1.095867e-05,6,1
-0.0003491504,5.098881e-05,6,1
-0.0002632558,8.356394e-05,6,1
-0.000171851,0.0001067393,6,1
-9.600444e-05,0.0001229458,6,1
-5.240886e-05,0.0001355869,6,1
-3.506788e-05,0.0001461212,6,1
-1.480971e-05,0.0001553589,6,1
4.434413e-05,0.0001692965,6,1
0.0001644345,0.0001869616,6,1
0.0003399513,0.0002049509,6,1
0.0005323229,0.0002153231,6,1
0.000688554,0.0002156472,6,1
0.0007759072,0.0002078681,6,1
0.0007985964,0.0001974959,6,1
0.0007964896,0.000190365,6,1
0.000824689,0.0001893926,6,1
0.0009230627,0.0001892305,6,1
0.001093069,0.0001897167,6,1
0.001300513,0.0001911753,6,1
0.001506499,0.0001913374,6,1
0.001679423,0.0001869616,6,1
0.001798217,0.0001824238,6,1
0.001855264,0.0001812893,6,1
0.001851861,0.0001869616,6,1
0.001783307,0.0001944166,6,1
0.001644417,0.0001939304,6,1
0.001437297,0.0001791825,6,1
0.00117783,0.0001466074,6,1
0.0008927565,9.63671e-05,6,1
0.0006169211,4.110282e-05,6,1
0.000383709,-4.599598e-06,6,1
0.0002111094,-2.874733e-05,6,1
9.750156e-05,-2.680255e-05,6,1
2.651694e-05,-8.002969e-06,6,1
-2.437157e-05,1.59827e-05,6,1
-7.104638e-05,3.299956e-05,6,1
-0.0001203142,4.142696e-05,6,1
-0.000174444,4.35338e-05,6,1
-0.0002374874,3.656499e-05,6,1
-0.0003172236,1.792748e-05,6,1
-0.0004149489,-1.059602e-05,6,1
-0.0005191569,-3.539201e-05,6,1
-0.0006167202,-4.333321e-05,6,1
-0.0006992114,-2.939559e-05,6,1
-0.0007688995,-1.034161e-06,6,1
-0.0008287016,2.76514e-05,6,1
-0.0008888278,4.612685e-05,6,1
-0.0009525195,5.001642e-05,6,1
-0.001010377,4.158902e-05,6,1
-0.00104198,2.684107e-05,6,1
-0.001025935,1.501031e-05,6,1
-0.0009440921,9.175954e-06,6,1
-0.0007917507,4.638125e-06,6,1
-0.0005679386,-1.034161e-06,6,1
-0.0002875656,-1.270286e-05,6,1
3.503668e-06,-2.89094e-05,6,1
0.0002386605,-5.013995e-05,6,1
0.0003597233,-7.769106e-05,6,1
0.0003401134,-0.0001120489,6,1
0.0001997648,-0.0001509446,6,1
-8.489166e-06,-0.0001882196,6,1
-0.0002219292,-0.0002146363,6,1
-0.0003998769,-0.0002261429,6,1
-0.0005279084,-0.0002243602,6,1
-0.0006094273,-0.0002162569,6,1
-0.0006546435,-0.0002084778,6,1
-0.0006752257,-0.0002071812,6,1
-0.0006902979,-0.0002126914,6,1
-0.0007150938,-0.000224036,6,1
-0.0007492896,-0.000233922,6,1
-0.0007813785,-0.0002376495,6,1
-0.0007954782,-0.0002340841,6,1
-0.0007804062,-0.0002230636,6,1
-0.0007340555,-0.0002062088,6,1
-0.0006661501,-0.0001859507,6,1
-0.0006029447,-0.0001632615,6,1
-0.0005595111,-0.0001415448,6,1
-0.0005104054,-0.0001266348,6,1
-0.0004083043,-0.0001195039,6,1
-0.0002233878,-0.0001173971,6,1
2.214118e-05,-0.0001151281,6,1
0.0002678322,-0.0001125351,6,1
0.0004621486,-0.0001088076,6,1
0.0005827253,-0.0001026491,6,1
0.0006261588,-9.584238e-05,6,1
0.000596825,-8.871149e-05,6,1
0.0005088235,-7.639453e-05,6,1
0.0003869503,-5.759496e-05,6,1
0.0002649151,-3.053005e-05,6,1
0.0001649207,4.151929e-06,6,1
9.669123e-05,4.35338e-05,6,1
5.56887e-05,7.90261e-05,6,1
2.586868e-05,0.0001064152,6,1
-1.610624e-05,0.0001232699,6,1
-7.526008e-05,0.0001313732,6,1
-0.0001394379,0.000135911,6,1
-0.0001984297,0.0001401247,6,1
-0.0002449425,0.0001474177,6,1
-0.0002737901,0.0001587623,6,1
-0.0002848105,0.0001725378,6,1
-0.0002797865,0.0001845306,6,1
-0.0002582318,0.000192958,6,1
-0.0002193361,0.0002005751,6,1
-0.0001749302,0.0002080301,6,1
-0.0001391138,0.0002184023,6,1
-0.0001183694,0.0002328261,6,1
-0.0001065387,0.0002456293,6,1
-9.924574e-05,0.0002470879,6,1
-9.130454e-05,0.0002331503,6,1
-7.963584e-05,0.0002054371,6,1
-6.48879e-05,0.0001709172,6,1
-5.176061e-05,0.0001372076,6,1
-4.155049e-05,0.0001120874,6,1
-3.166451e-05,9.847395e-05,6,1
-2.064406e-05,9.507057e-05,6,1
-1.140634e-05,9.944634e-05,6,1
-6.868513e-06,0.0001116012,6,1
-4.437533e-06,0.000125863,6,1
7.485573e-07,0.0001346145,6,1
9.175954e-06,0.0001286181,6,1
2.01964e-05,0.0001098185,6,1
3.316162e-05,8.615699e-05,6,1
5.131294e-05,6.071273e-05,6,1
6.881599e-05,3.073064e-05,6,1
8.194328e-05,-7.516774e-06,6,1
8.79397e-05,-5.500191e-05,6,1
8.372601e-05,-0.0001083214,6,1
7.059871e-05,-0.0001606685,6,1
5.163707e-05,-0.0002079916,6,1
2.505836e-05,-0.0002446183,6,1
-9.461558e-06,-0.0002669833,6,1
-4.398147e-05,-0.0002715212,6,1
-6.342931e-05,-0.0002603387,6,1
-6.0188e-05,-0.0002410529,6,1
-3.182657e-05,-0.0002198223,6,1
1.663096e-05,-0.0001943781,6,1
7.416415e-05,-0.0001629374,6,1
0.0001351007,-0.0001267968,6,1
0.0002044647,-9.632857e-05,6,1
0.0002937627,-7.833932e-05,6,1
0.0004122325,-7.120844e-05,6,1
0.0005550121,-6.861539e-05,6,1
0.0006989262,-6.699475e-05,6,1
0.000812372,-6.634648e-05,6,1
0.0008674743,-6.715681e-05,6,1
0.0008575883,-7.315322e-05,6,1
0.0008008654,-8.725291e-05,6,1
0.0007318255,-0.0001084835,6,1
0.0006741302,-0.0001357104,6,1
0.0006248623,-0.0001665028,6,1
0.0005674912,-0.0001929195,6,1
0.0004921307,-0.0002078295,6,1
0.0004075326,-0.0002094502,6,1
0.0003333067,-0.0002031296,6,1
0.000269777,-0.0001953505,6,1
0.0001918236,-0.0001853024,6,1
6.897806e-05,-0.0001653684,6,1
-9.746302e-05,-0.0001374932,6,1
-0.0002640662,-0.00010978,6,1
-0.0003831841,-8.660465e-05,6,1
-0.0004290486,-6.942573e-05,6,1
-0.0004104111,-5.143648e-05,6,1
-0.0003569296,-2.339918e-05,6,1
-0.0002987481,1.54965e-05,6,1
-0.0002483458,5.893001e-05,6,1
-0.0002047502,9.814982e-05,6,1
-0.0001723372,0.0001240803,6,1
-0.0001618029,0.0001352628,6,1
-0.0001770371,0.0001394765,6,1
-0.0002075054,0.0001464453,6,1
-0.0002303566,0.0001548727,6,1
-0.0002295462,0.0001618415,6,1
-0.0002018331,0.0001668655,6,1
-0.0001541859,0.000170431,6,1
-9.454585e-05,0.0001772377,6,1
-2.907146e-05,0.0001921477,6,1
3.672706e-05,0.0002187264,6,1
9.701536e-05,0.0002535705,6,1
0.0001495245,0.0002914938,6,1
0.000187934,0.0003279585,6,1
0.0002038164,0.0003543751,6,1
0.0001999268,0.0003666921,6,1
0.0001983062,0.0003653956,6,1
0.000234933,0.0003568061,6,1
0.0003480546,0.0003456236,6,1
0.0005691118,0.0003320101,6,1
0.0008929186,0.0003115899,6,1
0.001263238,0.0002829043,6,1
0.001597418,0.000244981,6,1
0.001813451,0.0002007372,6,1
0.001867905,0.0001569795,6,1
0.0017718,0.000120839,6,1
0.001580563,0.0001009049,6,1
0.001364853,0.0001047945,6,1
0.001172482,0.0001346145,6,1
0.001010416,0.0001833962,6,1
0.0008582365,0.0002396328,6,1
0.000688392,0.0002926282,6,1
0.0004817585,0.0003342791,6,1
0.0002316917,0.0003626405,6,1
-5.402952e-05,0.0003718782,6,1
-0.0003587123,0.0003574544,6,1
-0.0006539953,0.0003180725,6,1
-0.0009121653,0.0002503292,6,1
-0.001111019,0.0001603829,6,1
-0.001239375,5.94162e-05,6,1
-0.001296098,-3.63644e-05,6,1
-0.001284915,-0.0001135075,6,1
-0.001216038,-0.0001677994,6,1
-0.001105671,-0.0002075054,6,1
-0.0009844464,-0.0002475355,6,1
-0.000886721,-0.0003000446,6,1
-0.0008376152,-0.0003710293,6,1
-0.00083956,-0.0004546549,6,1
-0.0008763488,-0.0005334187,6,1
-0.0009202685,-0.0005911139,6,1
-0.0009471713,-0.0006197995,6,1
-0.0009458748,-0.0006272545,6,1
-0.0009184858,-0.0006274165,6,1
-0.0008711627,-0.0006350336,6,1
-0.0008064987,-0.000655778,6,1
-0.0007306521,-0.0006818705,6,1
-0.0006551297,-0.000693053,6,1
-0.0005937069,-0.0006710121,6,1
-0.0005544871,-0.0006069963,6,1
-0.0005408737,-0.0005108916,6,1
-0.0005488148,-0.0004034423,6,1
-0.0005658317,-0.0003016653,6,1
-0.0005716661,-0.0002128535,6,1
-0.000549301,-0.000142031,6,1
-0.0005005194,-9.29252e-05,6,1
-0.0004460655,-6.504996e-05,6,1
-0.0004011734,-5.176061e-05,6,1
-0.0003674638,-4.43056e-05,6,1
-0.0003407231,-3.668853e-05,6,1
-0.0003154408,-2.177852e-05,6,1
-0.000283514,-7.100305e-07,6,1
-0.0002378116,2.34377e-05,6,1
-0.0001771992,4.693717e-05,6,1
-0.0001112386,6.362991e-05,6,1
-5.240886e-05,6.703327e-05,6,1
-8.327101e-06,5.601284e-05,6,1
2.084466e-05,3.996837e-05,6,1
4.320967e-05,2.797553e-05,6,1
7.238143e-05,2.133085e-05,6,1
0.000115977,2.262738e-05,6,1
0.000173024,3.235129e-05,6,1
0.000232502,5.390598e-05,6,1
0.000284525,9.053275e-05,6,1
0.000324231,0.0001389903,6,1
0.0003470822,0.0001874478,6,1
0.0003482167,0.0002279642,6,1
0.0003255275,0.0002571359,6,1
0.0002882525,0.0002739907,6,1
0.0002537325,0.000284525,6,1
0.0002347709,0.0002911697,6,1
0.0002295848,0.0002937627,6,1
0.0002263435,0.0002968419,6,1
0.0002232643,0.0003026763,6,1
0.00022764,0.0003109416,6,1
0.000244981,0.0003182346,6,1
0.0002730183,0.0003266619,6,1
0.0003017039,0.0003386548,6,1
0.0003221241,0.0003501615,6,1
0.0003281205,0.0003530786,6,1
0.0003198552,0.0003444891,6,1
0.0003013798,0.0003284447,6,1
0.0002752873,0.0003127243,6,1
0.0002347709,0.0003051073,6,1
0.0001738343,0.0003059176,6,1
9.555677e-05,0.0003153174,6,1
1.014835e-05,0.0003286068,6,1
-6.521203e-05,0.0003431926,6,1
-0.0001107524,0.0003509718,6,1
-0.0001146419,0.0003480546,6,1
-8.206682e-05,0.00033671,6,1
-3.555408e-05,0.0003224483,6,1
-3.14101e-06,0.0003077003,6,1
-4.113403e-06,0.0002931144,6,1
-3.847125e-05,0.0002782044,6,1
-9.389759e-05,0.0002611876,6,1
-0.0001527273,0.0002431983,6,1
-0.000201509,0.0002237505,6,1
-0.000223874,0.000200413,6,1
-0.0002104225,0.0001761032,6,1
-0.0001733096,0.000155521,6,1
-0.0001238797,0.0001414213,6,1
-5.402952e-05,0.0001323456,6,1
3.98063e-05,0.0001227837,6,1
0.0001427178,0.0001057669,6,1
0.0002354192,8.242948e-05,6,1
0.000302028,5.99024e-05,6,1
0.0003368721,3.802358e-05,6,1
0.0003456236,1.338965e-05,6,1
0.0003354135,-1.562004e-05,6,1
0.0003122381,-5.2733e-05,6,1
0.0002832284,-9.66527e-05,6,1
0.0002574601,-0.0001457585,6,1
0.0002402811,-0.0002026434,6,1
0.0002261814,-0.0002702246,6,1
0.0002055991,-0.0003442885,6,1
0.0001738343,-0.000412518,6,1
0.0001263492,-0.0004609755,6,1
6.200925e-05,-0.0004817198,6,1
-1.286493e-05,-0.0004784786,6,1
-8.854943e-05,-0.0004635685,6,1
-0.0001515928,-0.0004455793,6,1
-0.000191785,-0.0004382863,6,1
-0.0002128535,-0.0004452552,6,1
-0.0002274394,-0.0004587066,6,1
-0.000246239,-0.0004679443,6,1
-0.0002734659,-0.0004684305,6,1
-0.0003057169,-0.00046211,6,1
-0.0003311612,-0.0004578962,6,1
-0.0003303509,-0.0004643789,6,1
-0.0002896725,-0.0004799371,6,1
-0.0002125294,-0.0004979264,6,1
-0.0001161005,-0.0005108916,6,1
-1.821308e-05,-0.0005115399,6,1
6.978839e-05,-0.0004935506,6,1
0.0001380179,-0.0004531963,6,1
0.0001748067,-0.0003917736,6,1
0.0001756171,-0.0003152788,6,1
0.0001427178,-0.0002323013,6,1
8.453633e-05,-0.0001509446,6,1
9.013889e-06,-7.866345e-05,6,1
-7.461182e-05,-2.161646e-05,6,1
-0.0001622891,1.841368e-05,6,1
-0.0002549905,3.93201e-05,6,1
-0.0003491504,3.850978e-05,6,1
-0.0004345588,1.776542e-05,6,1
-0.0004885266,-1.448558e-05,6,1
-0.0004958195,-4.641245e-05,6,1
-0.0004559515,-6.44017e-05,6,1
-0.0003851289,-5.872941e-05,6,1
-0.0003105789,-2.745081e-05,6,1
-0.000253694,2.457216e-05,6,1
-0.0002311669,8.79397e-05,6,1
-0.0002407288,0.0001539003,6,1
-0.0002496423,0.0002156472,6,1
-0.000209126,0.000267346,6,1
-8.465986e-05,0.0003038107,6,1
0.0001305629,0.0003255275,6,1
0.0004067223,0.0003360618,6,1
0.0006932539,0.0003405996,6,1
0.0009475346,0.0003438409,6,1
0.001153358,0.0003503235,6,1
0.00132142,0.0003628026,6,1
0.001472465,0.0003791712,6,1
0.001627724,0.0003960259,6,1
0.001798217,0.000411098,6,1
0.001974383,0.0004224426,6,1
0.00213418,0.00043087,6,1
0.002253623,0.0004378388,6,1
0.002308887,0.0004422146,6,1
0.002275501,0.0004396215,6,1
0.002137583,0.0004269804,6,1
0.001902426,0.0004062361,6,1
0.001608438,0.0003798194,6,1
0.001300351,0.0003491891,6,1
0.001011875,0.0003177483,6,1
0.0007634282,0.0002900352,6,1
0.0005616568,0.0002662116,6,1
0.0003984569,0.0002388225,6,1
0.0002525981,0.000200413,6,1
0.000103498,0.0001560072,6,1
-6.213279e-05,0.0001128978,6,1
-0.0002457528,7.497447e-05,6,1
-0.0004387725,3.818565e-05,6,1
-0.0006272545,-2.654814e-06,6,1
-0.0007911025,-4.317115e-05,6,1
-0.0009170272,-7.55842e-05,6,1
-0.001007136,-9.389759e-05,6,1
-0.001071313,-0.0001000561,6,1
-0.001120905,-0.0001052422,6,1
-0.001167742,-0.000117235,6,1
-0.001209069,-0.0001387897,6,1
-0.001233541,-0.0001630995,6,1
-0.001229489,-0.0001796301,6,1
-0.001200155,-0.0001844921,6,1
-0.001163691,-0.0001818991,6,1
-0.001135167,-0.0001771992,6,1
-0.001121878,-0.0001702304,6,1
-0.001123823,-0.0001541859,6,1
-0.001135329,-0.0001256624,6,1
-0.001141164,-8.547019e-05,6,1
-0.001122364,-3.944364e-05,6,1
-0.001070665,3.827799e-06,6,1
-0.001001301,3.462021e-05,6,1
-0.0009427955,5.163707e-05,6,1
-0.0009108688,6.233338e-05,6,1
-0.0008951484,7.092284e-05,6,1
-0.0008695421,7.546067e-05,6,1
-0.0008180053,7.221937e-05,6,1
-0.0007434553,5.633696e-05,6,1
-0.0006638812,2.246531e-05,6,1
-0.0005958138,-3.166451e-05,6,1
-0.0005481666,-9.973194e-05,6,1
-0.0005206155,-0.0001707166,6,1
-0.0005089468,-0.000241377,6,1
-0.0005063537,-0.0003099306,6,1
-0.0004967919,-0.0003724878,6,1
-0.0004585445,-0.0004266177,6,1
-0.0003899909,-0.0004711856,6,1
-0.0003128478,-0.0005050572,6,1
-0.0002574215,-0.0005196431,6,1
-0.0002382978,-0.0005055434,6,1
-0.0002507768,-0.0004562756,6,1
-0.0002746004,-0.0003737844,6,1
-0.0002840002,-0.0002699005,6,1
-0.0002673075,-0.0001592099,6,1
-0.0002297083,-5.419158e-05,6,1
-0.0001791439,3.60788e-05,6,1
-0.0001251762,0.0001083599,6,1
-7.461182e-05,0.0001628139,6,1
-3.652646e-05,0.0001999268,6,1
-1.432352e-05,0.0002195368,6,1
-4.923729e-06,0.0002219677,6,1
5.86492e-07,0.0002122438,6,1
1.014835e-05,0.0002000889,6,1
2.489629e-05,0.0001895547,6,1
4.904402e-05,0.0001809652,6,1
8.453633e-05,0.0001644345,6,1
0.0001299146,0.0001326697,6,1
0.0001798307,8.04847e-05,6,1
0.0002256952,1.193106e-05,6,1
0.0002689667,-6.796714e-05,6,1
0.0003227724,-0.0001549962,6,1
0.0004025085,-0.0002402425,6,1
0.0005029891,-0.0003099306,6,1
0.0006033076,-0.0003465574,6,1
0.0006793162,-0.0003365093,6,1
0.0007203188,-0.000276059,6,1
0.000723236,-0.0001755785,6,1
0.0006953608,-5.305713e-05,6,1
0.000661327,7.108491e-05,6,1
0.0006548444,0.0001756171,6,1
0.0007011951,0.0002514636,6,1
0.0007943827,0.0002958695,6,1
0.0008968081,0.0003115899,6,1
0.0009626067,0.0003080245,6,1
0.0009635791,0.0002966799,6,1
0.0008925945,0.0002861456,6,1
0.0007671557,0.0002793389,6,1
0.0006206486,0.0002756114,6,1
0.0004866205,0.0002725321,6,1
0.0003814401,0.0002655633,6,1
0.0002968419,0.0002511395,6,1
0.0002099749,0.0002303951,6,1
0.0001031738,0.000205275,6,1
-2.113026e-05,0.0001770756,6,1
-0.0001515928,0.000145635,6,1
-0.000276221,0.0001103047,6,1
-0.0003841565,7.189524e-05,6,1
-0.0004698891,3.575467e-05,6,1
-0.0005311498,5.772582e-06,6,1
-0.0005643732,-2.080613e-05,6,1
-0.0005721523,-4.171256e-05,6,1
-0.0005645352,-5.629844e-05,6,1
-0.0005543251,-6.796714e-05,6,1
-0.000549301,-8.352541e-05,6,1
-0.0005496252,-0.0001036215,6,1
-0.0005481666,-0.0001225832,6,1
-0.0005423322,-0.000134576,6,1
-0.0005350393,-0.0001400862,6,1
-0.0005345531,-0.0001396,6,1
-0.0005499493,-0.0001336036,6,1
-0.0005812279,-0.0001230693,6,1
-0.0006102377,-0.0001081593,6,1
-0.0005956517,-9.146661e-05,6,1
-0.0004961436,-8.060823e-05,6,1
-0.0002985861,-8.07703e-05,6,1
-2.874733e-05,-9.130454e-05,6,1
0.000257298,-0.0001050801,6,1
0.0005067165,-0.0001138316,6,1
0.0006827196,-0.0001136696,6,1
0.0007814175,-0.0001091317,6,1
0.0008274441,-0.0001070249,6,1
0.0008588848,-0.0001130213,6,1
0.0008969702,-0.0001261486,6,1
0.0009467243,-0.0001353863,6,1
0.0009989094,-0.0001300382,6,1
0.001033105,-0.0001058904,6,1
0.001027433,-6.44017e-05,6,1
0.0009648756,-1.497178e-05,6,1
0.0008430023,3.526847e-05,6,1
0.0006759129,8.291568e-05,6,1
0.000490348,0.0001323456,6,1
0.0003153174,0.0001858272,6,1
0.0001728619,0.0002341226,6,1
7.286763e-05,0.0002710735,6,1
1.857574e-05,0.0002952213,6,1
1.144487e-05,0.000309321,6,1
4.564065e-05,0.0003149933,6,1
0.0001051186,0.0003125623,6,1
0.0001668655,0.0003046211,6,1
0.0002059233,0.0002913317,6,1
0.0002033302,0.0002754493,6,1
0.0001592484,0.0002560015,6,1
8.259155e-05,0.0002321778,6,1
-1.286493e-05,0.0002054371,6,1
-0.0001143178,0.0001761032,6,1
-0.0002084778,0.0001469315,6,1
-0.0002887001,0.0001188942,6,1
-0.0003517435,9.134307e-05,6,1
-0.0003974459,6.314371e-05,6,1
-0.0004292107,3.154097e-05,6,1
-0.000449955,-3.951337e-06,6,1
-0.0004604893,-4.122636e-05,6,1
-0.0004585445,-8.206682e-05,6,1
-0.0004431483,-0.0001233935,6,1
-0.0004188385,-0.0001583996,6,1
-0.000395339,-0.0001815749,6,1
-0.0003893426,-0.0001935677,6,1
-0.0004185144,-0.0001958367,6,1
-0.0004865818,-0.0001862748,6,1
-0.0005791211,-0.0001661787,6,1
-0.0006719845,-0.000134738,6,1
-0.0007460483,-9.584238e-05,6,1
-0.0007936955,-5.354332e-05,6,1
-0.0008129813,-1.383732e-05,6,1
-0.000799854,1.663096e-05,6,1
-0.0007546378,3.672706e-05,6,1
-0.0006808981,4.77475e-05,6,1
-0.0005946793,5.358185e-05,6,1
-0.0005151053,5.844381e-05,6,1
-0.0004562756,6.444023e-05,6,1
-0.0004233763,7.270556e-05,6,1
-0.0004154351,8.210535e-05,6,1
-0.0004222419,9.426025e-05,6,1
-0.0004285624,0.0001094944,6,1
-0.0004155972,0.0001252147,6,1
-0.0003697327,0.000138342,6,1
-0.0002754107,0.0001446626,6,1
-0.0001306864,0.000138342,6,1
4.515445e-05,0.0001169494,6,1
0.0002297469,8.161915e-05,6,1
0.000418391,3.753739e-05,6,1
0.0006234037,-9.137427e-06,6,1
0.0008522401,-5.419158e-05,6,1
0.001103766,-9.276313e-05,6,1
0.001372795,-0.0001216107,6,1
0.00164312,-0.0001460826,6,1
0.001882167,-0.0001695821,6,1
0.002045368,-0.0001940539,6,1
0.002104684,-0.0002185258,6,1
0.002053147,-0.0002425115,6,1
0.001902101,-0.0002666592,6,1
0.001680071,-0.0002887001,6,1
0.001418659,-0.000305879,6,1
0.001148982,-0.0003162512,6,1
0.0008943772,-0.0003151167,6,1
0.0006627856,-0.0003000446,6,1
0.0004512903,-0.000268604,6,1
0.0002561635,-0.0002201465,6,1
8.113296e-05,-0.0001611547,6,1
-5.953974e-05,-0.0001068628,6,1
-0.0001666649,-7.072225e-05,6,1
-0.0002574215,-5.824322e-05,6,1
-0.00035304,-6.132246e-05,6,1
-0.0004637306,-7.299116e-05,6,1
-0.0005851175,-9.179074e-05,6,1
-0.0006945116,-0.0001126972,6,1
-0.0007711684,-0.0001323071,6,1
-0.0008061745,-0.0001477033,6,1
-0.0008081193,-0.0001549962,6,1
-0.0007838095,-0.0001515928,6,1
-0.0007460483,-0.0001361966,6,1
-0.0007165525,-0.0001109144,6,1
-0.0007123387,-8.060823e-05,6,1
-0.000730328,-5.386745e-05,6,1
-0.0007515585,-3.992984e-05,6,1
-0.0007473448,-3.895745e-05,6,1
-0.0007011562,-3.944364e-05,6,1
-0.0006196374,-2.566809e-05,6,1
-0.0005228845,1.031041e-05,6,1
-0.0004347209,6.249545e-05,6,1
-0.0003716775,0.0001206769,6,1
-0.0003413713,0.0001752929,6,1
-0.0003420196,0.0002242366,6,1
-0.0003626019,0.0002650771,6,1
-0.0003933943,0.0002979764,6,1
-0.0004264556,0.0003195311,6,1
-0.0004538446,0.0003252034,6,1
-0.000464703,0.0003128864,6,1
-0.0004540067,0.0002866318,6,1
-0.0004235384,0.0002560015,6,1
-0.0003765395,0.0002323399,6,1
-0.000315765,0.0002190506,6,1
-0.0002470493,0.0002145127,6,1
-0.000176875,0.0002137024,6,1
-0.0001099421,0.0002114335,6,1
-5.516398e-05,0.0002034923,6,1
-2.664048e-05,0.0001947408,6,1
-3.198864e-05,0.0001932822,6,1
-6.278104e-05,0.000200413,6,1
-9.000802e-05,0.0002107852,6,1
-7.882551e-05,0.0002211574,6,1
-6.868513e-06,0.0002281262,6,1
0.0001211631,0.0002297469,6,1
0.0002791768,0.000220023,6,1
0.0004313562,0.0001939304,6,1
0.0005391297,0.0001462832,6,1
0.0005765668,8.275361e-05,6,1
0.0005482053,1.355172e-05,6,1
0.0004811103,-4.625038e-05,6,1
0.0004026706,-8.352541e-05,6,1
0.0003239069,-8.725291e-05,6,1
0.0002397949,-6.229485e-05,6,1
0.0001401247,-2.534396e-05,6,1
2.376183e-05,7.485573e-07,6,1
-9.227693e-05,4.313994e-06,6,1
-0.0001857886,-1.983374e-05,6,1
-0.0002436459,-7.720486e-05,6,1
-0.0002700626,-0.0001605064,6,1
-0.0002814071,-0.0002545043,6,1
-0.0002946965,-0.0003415334,6,1
-0.0003151167,-0.0004096008,6,1
-0.0003374817,-0.0004518998,6,1
-0.0003660052,-0.000467134,6,1
-0.0004117076,-0.0004574101,6,1
-0.0004783165,-0.0004295348,6,1
-0.0005502735,-0.0003935563,6,1
-0.0006003517,-0.000358064,6,1
-0.0006032689,-0.000325813,6,1
-0.0005446012,-0.0002969654,6,1
-0.0004334244,-0.0002695764,6,1
-0.0002901587,-0.0002460769,6,1
-0.0001311726,-0.0002282497,6,1
2.716521e-05,-0.0002144742,6,1
0.000160707,-0.0002021572,6,1
0.0002483844,-0.0001882196,6,1
0.000277232,-0.000166989,6,1
0.0002537325,-0.0001339277,6,1
0.0002034923,-8.692878e-05,6,1
0.0001495245,-2.826114e-05,6,1
0.0001064152,3.445814e-05,6,1
7.043665e-05,8.84259e-05,6,1
3.332369e-05,0.0001213252,6,1
-1.682422e-06,0.0001235941,6,1
-1.886135e-05,9.620504e-05,6,1
-8.813297e-06,5.001642e-05,6,1
2.603075e-05,-1.034161e-06,6,1
7.432621e-05,-4.138842e-05,6,1
0.0001219734,-5.856735e-05,6,1
0.0001637863,-4.641245e-05,6,1
0.0002021958,-1.124428e-05,6,1
0.0002363916,2.992031e-05,6,1
0.0002624841,6.281957e-05,6,1
0.0002782044,8.437427e-05,6,1
0.0002866318,9.977047e-05,6,1
0.0002942489,0.0001141943,6,1
0.0003072141,0.0001339663,6,1
0.0003269861,0.0001586002,6,1
0.0003616681,0.0001863134,6,1
0.0004157979,0.0002174299,6,1
