EMG1,EMG2,class,user
-0.0003741085,-2.923353e-05,6,1
-0.0005110537,-7.18567e-05,6,1
-0.0006389232,-0.000119828,6,1
-0.0007745718,-0.0001707166,6,1
-0.0009103825,-0.0002185258,6,1
-0.001028042,-0.0002569353,6,1
-0.001114909,-0.0002797865,6,1
-0.001160935,-0.0002796244,6,1
-0.001175845,-0.0002545043,6,1
-0.001183949,-0.000209126,6,1
-0.00120761,-0.0001528894,6,1
-0.001253637,-9.66527e-05,6,1
-0.001303715,-4.090223e-05,6,1
-0.00133078,1.906194e-05,6,1
-0.001317004,8.875003e-05,6,1
-0.001258661,0.0001668655,6,1
-0.001164501,0.0002378501,6,1
-0.001047976,0.0002785285,6,1
-0.0009265891,0.0002832284,6,1
-0.0008241638,0.000267184,6,1
-0.0007609584,0.000252436,6,1
-0.0007449139,0.0002545429,6,1
-0.0007603101,0.0002754493,6,1
-0.0007854302,0.0003085106,6,1
-0.0007974231,0.0003472443,6,1
-0.0007841337,0.0003835469,6,1
-0.0007405381,0.0004145014,6,1
-0.0006719845,0.000440756,6,1
-0.0005925725,0.0004600418,6,1
-0.0005139708,0.0004736553,6,1
-0.0004366657,0.0004901859,6,1
-0.0003549848,0.000514982,6,1
-0.0002754107,0.0005413986,6,1
-0.0002100984,0.0005579292,6,1
-0.0001639098,0.0005577672,6,1
-0.0001306864,0.000539778,6,1
-0.0001002181,0.0005072028,6,1
-5.710876e-05,0.0004647417,6,1
2.207145e-06,0.0004170944,6,1
6.055066e-05,0.0003660439,6,1
9.004655e-05,0.0003136967,6,1
6.589881e-05,0.0002582704,6,1
-8.813297e-06,0.0001983062,6,1
-9.616651e-05,0.000130887,6,1
-0.0001501342,5.552663e-05,6,1
-0.0001501342,-2.680255e-05,6,1
-0.0001079973,-0.0001157764,6,1
-5.824322e-05,-0.0002138259,6,1
-3.668853e-05,-0.0003318095,6,1
-5.500191e-05,-0.0004797751,6,1
-0.0001024871,-0.0006593434,6,1
-0.0001543479,-0.0008593319,6,1
-0.0001979435,-0.001052514,6,1
-0.0002355427,-0.001212796,6,1
-0.0002707109,-0.001321866,6,1
-0.0002969654,-0.001366272,6,1
-0.0002911311,-0.00133467,6,1
-0.0002395943,-0.001223979,6,1
-0.0001485136,-0.001045059,6,1
-4.171256e-05,-0.000824812,6,1
5.001642e-05,-0.0006044033,6,1
0.0001119254,-0.0004167317,6,1
0.0001448246,-0.000278652,6,1
0.0001598967,-0.0001903264,6,1
0.0001739964,-0.000142031,6,1
0.000202844,-0.0001180453,6,1
0.0002553532,-0.0001032974,6,1
0.0003237448,-8.919769e-05,6,1
0.0003850055,-6.942573e-05,6,1
0.0004195254,-4.592625e-05,6,1
0.0004154738,-2.291298e-05,6,1
0.0003747954,-5.57199e-06,6,1
0.0003077003,5.610517e-06,6,1
0.0002284504,1.355172e-05,6,1
0.0001526038,1.987227e-05,6,1
9.328786e-05,2.554455e-05,6,1
5.504044e-05,3.251336e-05,6,1
3.445814e-05,4.288554e-05,6,1
1.501031e-05,6.022653e-05,6,1
-1.756482e-05,8.388807e-05,6,1
-7.218083e-05,0.0001065772,6,1
-0.0001571031,0.0001239182,6,1
-0.000276059,0.0001347766,6,1
-0.0004248349,0.0001412592,6,1
-0.0005834968,0.0001470936,6,1
-0.0007172007,0.000155683,6,1
-0.0008009885,0.0001686482,6,1
-0.0008291878,0.0001856651,6,1
-0.0008066607,0.0002041406,6,1
-0.000750424,0.0002213195,6,1
-0.0006862463,0.0002367157,6,1
-0.0006390853,0.0002535705,6,1
-0.000616234,0.0002723701,6,1
-0.0005995413,0.0002903593,6,1
-0.00056648,0.0003036487,6,1
-0.0005013297,0.0003107795,6,1
-0.0004039285,0.0003158036,6,1
-0.0002818933,0.0003229345,6,1
-0.0001332795,0.0003333067,6,1
4.483033e-05,0.0003496752,6,1
0.0002611876,0.0003705817,6,1
0.0005344298,0.000393595,6,1
0.0008665019,0.0004130428,6,1
0.001235039,0.0004235771,6,1
0.001607466,0.0004203358,6,1
0.001956231,0.0004044533,6,1
0.002272098,0.0003835469,6,1
0.002574837,0.0003623164,6,1
0.00287855,0.0003430306,6,1
0.003172376,0.0003264999,6,1
0.003428441,0.0003117519,6,1
0.003612549,0.0002924662,6,1
0.003690828,0.0002679943,6,1
0.003640425,0.0002420638,6,1
0.003459234,0.0002240746,6,1
0.003169621,0.0002159713,6,1
0.002795247,0.0002159713,6,1
0.002355238,0.0002190506,6,1
0.001881033,0.0002232643,6,1
0.001407963,0.0002253711,6,1
0.0009635791,0.0002213195,6,1
0.0005585775,0.0002107852,6,1
0.0001961994,0.0001936063,6,1
-0.0001115627,0.000170431,6,1
-0.0003433161,0.0001414213,6,1
-0.0004762096,0.0001099806,6,1
-0.0005071641,7.708133e-05,6,1
-0.0004684305,3.98063e-05,6,1
-0.0004141386,-4.599598e-06,6,1
-0.0004014975,-4.657452e-05,6,1
-0.0004726442,-7.574627e-05,6,1
-0.0006316302,-8.968389e-05,6,1
-0.0008463667,-9.373552e-05,6,1
-0.001060617,-9.940781e-05,6,1
-0.001233379,-0.0001139937,6,1
-0.00136141,-0.0001386276,6,1
-0.001460918,-0.0001713648,6,1
-0.001541465,-0.0002036158,6,1
-0.001599322,-0.0002306807,6,1
-0.001630763,-0.0002515871,6,1
-0.00163757,-0.0002690902,6,1
-0.00162347,-0.0002838381,6,1
-0.001591219,-0.0002929138,6,1
-0.001540493,-0.0002963172,6,1
-0.001466591,-0.0002895104,6,1
-0.001369676,-0.0002708729,6,1
-0.001259471,-0.0002429977,6,1
-0.00115348,-0.0002126914,6,1
-0.001079579,-0.0001882196,6,1
-0.001065641,-0.0001752544,6,1
-0.001114423,-0.0001734716,6,1
-0.001190107,-0.000176713,6,1
-0.00123662,-0.0001802784,6,1
-0.001206476,-0.0001818991,6,1
-0.001092706,-0.0001797922,6,1
-0.0009226995,-0.0001736337,6,1
-0.0007439415,-0.0001676373,6,1
-0.0005961379,-0.0001656925,6,1
-0.0004987367,-0.0001716889,6,1
-0.0004554653,-0.0001854645,6,1
-0.0004582204,-0.0001997262,6,1
-0.0004898231,-0.0002034537,6,1
-0.0005345531,-0.0001849783,6,1
-0.0005828486,-0.0001452723,6,1
-0.0006319543,-9.422172e-05,6,1
-0.0006797637,-4.284701e-05,6,1
-0.0007225489,-2.006553e-06,6,1
-0.0007468587,2.441009e-05,6,1
-0.0007423208,3.753739e-05,6,1
-0.0007053699,3.834771e-05,6,1
-0.0006395715,2.570662e-05,6,1
-0.0005470322,4.244267e-07,6,1
-0.0004319658,-3.198864e-05,6,1
-0.0003065273,-6.991193e-05,6,1
-0.0001848162,-0.0001165867,6,1
-8.222889e-05,-0.0001737958,6,1
-9.461558e-06,-0.0002327876,6,1
3.429608e-05,-0.0002799486,6,1
5.19612e-05,-0.0003006929,6,1
4.693717e-05,-0.0002856209,6,1
2.700314e-05,-0.0002352185,6,1
2.531276e-06,-0.0001624512,6,1
-1.3027e-05,-8.352541e-05,6,1
-1.027188e-05,-9.785688e-06,6,1
1.12828e-05,5.585077e-05,6,1
4.612685e-05,0.0001120874,6,1
8.648112e-05,0.0001594105,6,1
0.0001274836,0.0001983062,6,1
0.0001671896,0.0002273159,6,1
0.0002020337,0.0002456293,6,1
0.0002337985,0.0002535705,6,1
0.0002636185,0.0002579462,6,1
0.0002869559,0.0002616738,6,1
0.0003012177,0.0002631324,6,1
0.0003104554,0.0002568118,6,1
0.0003164518,0.0002420638,6,1
0.0003138588,0.0002192126,6,1
0.0002960316,0.0001924718,6,1
0.0002564877,0.000163138,6,1
0.0001942546,0.0001326697,6,1
0.0001128978,0.000101067,6,1
2.781346e-05,7.043665e-05,6,1
-4.689865e-05,4.709924e-05,6,1
-9.908367e-05,3.786152e-05,6,1
-0.0001229073,4.693717e-05,6,1
-0.0001182074,7.497447e-05,6,1
-9.422172e-05,0.0001154908,6,1
-6.650855e-05,0.000163138,6,1
-5.030202e-05,0.000210299,6,1
-4.85193e-05,0.0002530843,6,1
-5.419158e-05,0.0002885766,6,1
-6.423963e-05,0.0003086727,6,1
-7.396356e-05,0.0003062417,6,1
-7.574627e-05,0.0002790148,6,1
-6.764301e-05,0.0002303951,6,1
-5.192267e-05,0.0001650828,6,1
-2.42095e-05,9.101894e-05,6,1
2.635488e-05,1.517237e-05,6,1
0.0001065772,-5.078821e-05,6,1
0.000202682,-9.357346e-05,6,1
0.0002939248,-0.0001117248,6,1
0.0003791712,-0.0001152902,6,1
0.000465552,-0.0001219349,6,1
0.0005554983,-0.000149486,6,1
0.0006397723,-0.0002094502,6,1
0.0007122156,-0.0003027998,6,1
0.0007806072,-0.0004168937,6,1
0.0008658536,-0.0005335807,6,1
0.0009825408,-0.0006360059,6,1
0.001127752,-0.0007086112,6,1
0.001278148,-0.0007407002,6,1
0.001400508,-0.0007270867,6,1
0.001460958,-0.0006705259,6,1
0.001439242,-0.0005778245,6,1
0.001339733,-0.0004632444,6,1
0.001188364,-0.0003407231,6,1
0.001015764,-0.0002211189,6,1
0.0008455954,-0.0001157764,6,1
0.0006892023,-3.506788e-05,6,1
0.0005512846,2.035846e-05,6,1
0.0004365423,5.909208e-05,6,1
0.0003467581,9.474644e-05,6,1
0.0002809595,0.0001372076,6,1
0.0002321778,0.0001937684,6,1
0.000190365,0.0002603772,6,1
0.0001472556,0.0003271482,6,1
9.863601e-05,0.0003851676,6,1
5.131294e-05,0.0004311941,6,1
2.035846e-05,0.0004615004,6,1
1.663096e-05,0.0004739794,6,1
3.624086e-05,0.0004674968,6,1
5.844381e-05,0.0004427008,6,1
6.444023e-05,0.0004044533,6,1
4.709924e-05,0.0003581026,6,1
1.711715e-05,0.000309321,6,1
-9.299493e-06,0.0002626462,6,1
-2.194059e-05,0.0002169437,6,1
-1.707863e-05,0.0001717275,6,1
-7.100305e-07,0.0001313732,6,1
1.095867e-05,9.555677e-05,6,1
2.623614e-07,6.265751e-05,6,1
-4.187462e-05,3.413401e-05,6,1
-0.0001086455,1.630683e-05,6,1
-0.0001862748,1.290346e-05,6,1
-0.0002632558,2.084466e-05,6,1
-0.0003348887,2.684107e-05,6,1
-0.0003979321,1.322759e-05,6,1
-0.0004397449,-3.020592e-05,6,1
-0.0004476861,-0.0001031353,6,1
-0.0004193247,-0.0002013469,6,1
-0.0003762153,-0.0003193304,6,1
-0.0003485022,-0.0004471999,6,1
-0.0003567675,-0.0005693972,6,1
-0.0004036044,-0.0006700397,6,1
-0.0004762096,-0.0007371347,6,1
-0.0005528665,-0.0007593377,6,1
-0.000606348,-0.000730328,6,1
-0.0006183409,-0.0006539953,6,1
-0.0005728005,-0.0005411978,6,1
-0.0004587066,-0.0004057112,6,1
-0.0002921034,-0.0002577456,6,1
-0.0001182074,-0.0001084835,6,1
1.695509e-05,2.894792e-05,6,1
8.777764e-05,0.0001433661,6,1
9.118101e-05,0.0002266676,6,1
4.256141e-05,0.0002773941,6,1
-3.279896e-05,0.0003039728,6,1
-0.0001094559,0.0003135347,6,1
-0.0001673132,0.0003115899,6,1
-0.0001896782,0.0003025142,6,1
-0.0001681235,0.0002955454,6,1
-0.0001086455,0.0002942489,6,1
-2.583016e-05,0.0002973281,6,1
5.925414e-05,0.0003039728,6,1
0.0001351007,0.000311914,6,1
0.0001949028,0.0003187208,6,1
0.0002303951,0.0003237448,6,1
0.0002239125,0.0003263378,6,1
0.0001550348,0.0003227724,6,1
1.808955e-05,0.0003128864,6,1
-0.0001734716,0.0003004074,6,1
-0.0003898288,0.0002874421,6,1
-0.0005958138,0.0002778803,6,1
-0.0007591756,0.0002733424,6,1
-0.0008549562,0.0002710735,6,1
-0.0008622491,0.0002650771,6,1
-0.00076501,0.0002516257,6,1
-0.0005629146,0.0002310434,6,1
-0.0002875656,0.0002078681,6,1
1.1769e-05,0.0001876099,6,1
0.0002816078,0.000175455,6,1
0.0004882411,0.000173024,6,1
0.0006187038,0.0001761032,6,1
0.0006778577,0.0001765894,6,1
0.0006802886,0.0001691344,6,1
0.0006282657,0.0001522796,6,1
0.0005277851,0.0001257009,6,1
0.0003903536,9.490851e-05,6,1
0.0002336365,6.638502e-05,6,1
7.740546e-05,4.013043e-05,6,1
-5.386745e-05,1.679302e-05,6,1
-0.0001457585,-9.947754e-06,6,1
-0.0001971332,-5.289507e-05,6,1
-0.000216419,-0.0001175591,6,1
-0.0002068571,-0.0002028055,6,1
-0.0001695821,-0.0002980999,6,1
-0.0001016767,-0.0003805911,6,1
-3.465141e-06,-0.0004322899,6,1
0.0001145184,-0.0004515757,6,1
0.0002268297,-0.0004496309,6,1
0.0003002453,-0.0004365036,6,1
0.000307052,-0.000412518,6,1
0.0002427121,-0.0003760533,6,1
0.0001344524,-0.0003266234,6,1
2.230325e-05,-0.0002664971,6,1
-6.81292e-05,-0.0002006986,6,1
-0.0001282554,-0.000134576,6,1
-0.0001579134,-7.299116e-05,6,1
-0.0001606685,-1.545797e-05,6,1
-0.0001509446,3.60788e-05,6,1
-0.0001491618,8.291568e-05,6,1
-0.0001690959,0.0001226217,6,1
-0.0002126914,0.000155683,6,1
-0.0002728177,0.0001835583,6,1
-0.0003412093,0.0002107852,6,1
-0.0004070078,0.0002355812,6,1
-0.0004561135,0.0002555152,6,1
-0.0004734545,0.0002670219,6,1
-0.0004630823,0.000269777,6,1
-0.0004382863,0.000262322,6,1
-0.0004146248,0.0002470879,6,1
-0.0004070078,0.0002279642,6,1
-0.0004251591,0.0002111094,6,1
-0.0004689167,0.0001996027,6,1
-0.0005139708,0.0001957132,6,1
-0.0005162397,0.0001973338,6,1
-0.0004501171,0.0002017096,6,1
-0.0003167374,0.0002031682,6,1
-0.0001336036,0.0001989545,6,1
7.643307e-05,0.000185341,6,1
0.0002918179,0.0001649207,6,1
0.0004900239,0.0001448246,6,1
0.0006425274,0.0001299146,6,1
0.0007224257,0.0001192183,6,1
0.0007190223,0.0001083599,6,1
0.0006441481,9.571884e-05,6,1
0.0005146578,7.983644e-05,6,1
0.0003569682,6.168512e-05,6,1
0.0001945787,4.418206e-05,6,1
4.272347e-05,3.056858e-05,6,1
-9.033215e-05,2.327564e-05,6,1
-0.0001984297,2.408596e-05,6,1
-0.0002750866,2.927205e-05,6,1
-0.0003099306,3.283749e-05,6,1
-0.0002912931,3.121684e-05,6,1
-0.0002219292,1.906194e-05,6,1
-0.0001240417,-7.030578e-06,6,1
-1.756482e-05,-4.932962e-05,6,1
9.150514e-05,-0.0001042698,6,1
0.0002017096,-0.0001601823,6,1
0.0003151553,-0.0002057227,6,1
0.0004350837,-0.0002366771,6,1
0.0005608465,-0.0002566112,6,1
0.0006665131,-0.0002697385,6,1
0.0007099467,-0.0002804347,6,1
0.0006629477,-0.0002921034,6,1
0.0005287575,-0.0003037722,6,1
0.0003457857,-0.0003144685,6,1
0.0001658931,-0.0003196545,6,1
2.829966e-05,-0.0003156029,6,1
-5.856735e-05,-0.0003029619,6,1
-0.0001060525,-0.0002836761,6,1
-0.0001331174,-0.0002608248,6,1
-0.0001549962,-0.0002394322,6,1
-0.0001885437,-0.0002162569,6,1
-0.0002468872,-0.0001919471,6,1
-0.0003360231,-0.0001716889,6,1
-0.0004403932,-0.0001618029,6,1
-0.0005235327,-0.0001626133,6,1
-0.0005523803,-0.0001720131,6,1
-0.0005099192,-0.0001820611,6,1
-0.0004029561,-0.0001859507,6,1
-0.0002308428,-0.0001794681,6,1
1.889987e-05,-0.0001635857,6,1
0.0003428685,-0.0001407345,6,1
0.0006994124,-0.0001115627,6,1
0.001021437,-7.882551e-05,6,1
0.00124379,-5.013995e-05,6,1
0.001322878,-3.085418e-05,6,1
0.001256107,-2.064406e-05,6,1
0.001080104,-1.99958e-05,6,1
0.0008483506,-2.356124e-05,6,1
0.0006070351,-2.307504e-05,6,1
0.0003807918,-1.529591e-05,6,1
0.0001757791,-4.437533e-06,6,1
-1.010982e-05,6.90704e-06,6,1
-0.0001716889,1.906194e-05,6,1
-0.0002945344,3.510641e-05,6,1
-0.0003619536,5.698522e-05,6,1
-0.0003648708,8.648112e-05,6,1
-0.0003092824,0.0001235941,6,1
-0.0002248464,0.0001668655,6,1
-0.0001535376,0.0002117576,6,1
-0.0001253383,0.0002530843,6,1
-0.0001464067,0.0002817699,6,1
-0.0002037779,0.0002885766,6,1
-0.0002723315,0.0002759355,6,1
-0.0003186821,0.0002527602,6,1
-0.0003180339,0.0002328261,6,1
-0.0002723315,0.0002255332,6,1
-0.0002130156,0.0002303951,6,1
-0.0001763888,0.0002397949,6,1
-0.0001786577,0.0002466017,6,1
-0.0002118811,0.0002477361,6,1
-0.0002577456,0.0002428742,6,1
-0.0003024756,0.0002292607,6,1
-0.0003420196,0.0002083542,6,1
-0.0003779981,0.0001824238,6,1
-0.0004110594,0.0001560072,6,1
-0.0004415277,0.0001287802,6,1
-0.0004702132,0.0001002567,6,1
-0.0004933886,6.849186e-05,6,1
-0.0005065158,3.60788e-05,6,1
-0.0005097571,-3.858999e-07,6,1
-0.0005078124,-4.122636e-05,6,1
-0.0005173742,-8.514606e-05,6,1
-0.000556756,-0.0001310105,6,1
-0.000631144,-0.0001754164,6,1
-0.0007235213,-0.0002112329,6,1
-0.0007956403,-0.0002287359,6,1
-0.0008087676,-0.0002248464,6,1
-0.0007458862,-0.0002039399,6,1
-0.0006076446,-0.0001703924,6,1
-0.0004196489,-0.0001293899,6,1
-0.0002196603,-8.757704e-05,6,1
-4.608832e-05,-5.062615e-05,6,1
8.226741e-05,-2.46957e-05,6,1
0.0001563313,-1.399939e-05,6,1
0.0001788584,-1.869928e-05,6,1
0.0001616794,-3.085418e-05,6,1
0.000120839,-4.236082e-05,6,1
6.946425e-05,-4.706071e-05,6,1
1.711715e-05,-4.155049e-05,6,1
-3.053005e-05,-2.631635e-05,6,1
-7.347736e-05,-8.165035e-06,6,1
-0.0001086455,7.069105e-06,6,1
-0.0001253383,1.22552e-05,6,1
-0.0001071869,5.934648e-06,6,1
-4.770897e-05,-1.173047e-05,6,1
4.110282e-05,-3.749886e-05,6,1
0.0001331559,-7.007399e-05,6,1
0.0002055991,-0.0001107524,6,1
0.0002491947,-0.0001525652,6,1
0.0002605393,-0.0001854645,6,1
0.0002414156,-0.0002032917,6,1
0.0002049509,-0.0002019951,6,1
0.0001686482,-0.0001864369,6,1
0.000153252,-0.0001655305,6,1
0.0001752929,-0.0001457585,6,1
0.0002312055,-0.0001256624,6,1
0.0003004074,-0.0001015147,6,1
0.0003559958,-6.974985e-05,6,1
0.0003799815,-3.63644e-05,6,1
0.0003720403,-8.813297e-06,6,1
0.0003469201,7.555301e-06,6,1
0.0003247172,1.095867e-05,6,1
0.0003138588,4.47606e-06,6,1
0.0003085106,-5.734056e-06,6,1
0.0002989488,-1.367526e-05,6,1
0.0002842008,-1.853722e-05,6,1
0.0002670219,-2.339918e-05,6,1
0.0002530843,-3.296103e-05,6,1
0.0002511395,-4.722278e-05,6,1
0.0002702632,-6.310517e-05,6,1
0.0003166139,-7.201877e-05,6,1
0.0003841952,-6.310517e-05,6,1
0.0004587452,-3.377136e-05,6,1
0.0005157923,1.565857e-05,6,1
0.0005298919,7.513654e-05,6,1
0.0004757621,0.0001318594,6,1
0.0003378445,0.0001743205,6,1
0.0001341283,0.0002033302,6,1
-8.919769e-05,0.0002297469,6,1
-0.0002758969,0.0002681563,6,1
-0.0003935563,0.0003180725,6,1
-0.0004480103,0.0003720403,6,1
-0.0004700511,0.0004239012,6,1
-0.0004826922,0.0004662003,6,1
-0.0004904714,0.0004958582,6,1
-0.0004843129,0.0005130371,6,1
-0.0004593548,0.0005188715,6,1
-0.0004186764,0.0005096338,6,1
-0.0003666535,0.0004869446,6,1
-0.0003201407,0.0004535592,6,1
-0.0003042584,0.0004102877,6,1
-0.0003340784,0.0003568061,6,1
-0.00039777,0.0002898731,6,1
-0.0004619479,0.000210137,6,1
-0.0004951713,0.0001179218,6,1
-0.0004797751,1.290346e-05,6,1
-0.0004047388,-0.0001005423,6,1
-0.0002724935,-0.0002104225,6,1
-9.632857e-05,-0.0002955068,6,1
0.0001098185,-0.00033813,6,1
0.0003311998,-0.0003350507,6,1
0.0005480433,-0.0002989102,6,1
0.0007336082,-0.0002472114,6,1
0.0008632605,-0.0001955125,6,1
0.0009306798,-0.0001553203,6,1
0.000948669,-0.0001287416,6,1
0.0009311661,-0.000112211,6,1
0.0009058838,-9.859748e-05,6,1
0.0009086389,-8.968389e-05,6,1
0.0009596896,-8.141856e-05,6,1
0.001042343,-7.056019e-05,6,1
0.001109438,-5.467778e-05,6,1
0.001112517,-3.555408e-05,6,1
0.001031647,-1.351319e-05,6,1
0.0009003736,1.095867e-05,6,1
0.0007731522,3.624086e-05,6,1
0.000703464,5.585077e-05,6,1
0.0007217774,6.233338e-05,6,1
0.0008209614,5.082674e-05,6,1
0.0009523966,1.825161e-05,6,1
0.001046233,-3.441962e-05,6,1
0.001045908,-0.0001018388,6,1
0.0009303557,-0.0001783336,6,1
0.0007102708,-0.0002558008,6,1
0.0004222805,-0.0003198166,6,1
0.0001179218,-0.000355471,6,1
-0.0001532135,-0.0003567675,6,1
-0.000355471,-0.000328244,6,1
-0.0004852853,-0.0002852967,6,1
-0.0005622663,-0.0002439701,6,1
-0.0006081308,-0.000216581,6,1
-0.0006340612,-0.0002097743,6,1
-0.0006429748,-0.0002308428,6,1
-0.0006355198,-0.0002817312,6,1
-0.0006165582,-0.0003559572,6,1
-0.0005941931,-0.0004301831,6,1
-0.0005747453,-0.0004800992,6,1
-0.0005625904,-0.0004917679,6,1
-0.0005606457,-0.0004659995,6,1
-0.000568911,-0.000410249,6,1
-0.0005809038,-0.0003344025,6,1
-0.0005870623,-0.0002493182,6,1
-0.0005773384,-0.0001645581,6,1
-0.0005522182,-8.82253e-05,6,1
-0.0005246671,-3.004385e-05,6,1
-0.0005057055,4.313994e-06,6,1
-0.0005018159,1.517237e-05,6,1
-0.0005123502,-1.034161e-06,6,1
-0.0005327704,-4.171256e-05,6,1
-0.0005523803,-9.049421e-05,6,1
-0.0005627525,-0.0001313347,6,1
-0.0005606457,-0.0001483515,6,1
-0.000544115,-0.0001293899,6,1
-0.0005164018,-7.104638e-05,6,1
-0.000484637,1.257933e-05,6,1
-0.0004593548,9.717743e-05,6,1
-0.0004484965,0.0001652449,6,1
-0.0004454172,0.0002234263,6,1
-0.0004271038,0.0002918179,6,1
-0.0003726499,0.0003759298,6,1
-0.0002791382,0.0004662003,6,1
-0.0001598582,0.0005486915,6,1
-3.944364e-05,0.0006130316,6,1
4.628891e-05,0.0006494962,6,1
5.974033e-05,0.0006506307,6,1
-2.258885e-05,0.0006138419,6,1
-0.0001870851,0.0005443158,6,1
-0.0003830221,0.0004603659,6,1
-0.0005489769,0.0003835469,6,1
-0.0006345474,0.0003239069,6,1
-0.0006232028,0.0002793389,6,1
-0.0005332566,0.0002438466,6,1
-0.0004049009,0.0002143507,6,1
-0.0002799486,0.0001851789,6,1
-0.0001844921,0.0001561692,6,1
-0.0001212866,0.0001299146,6,1
-7.55842e-05,0.0001114392,6,1
-3.68506e-05,0.0001072255,6,1
-3.465141e-06,0.0001151667,6,1
2.262738e-05,0.0001304008,6,1
3.786152e-05,0.000143204,6,1
4.272347e-05,0.0001537382,6,1
3.883391e-05,0.0001699448,6,1
3.462021e-05,0.0002062474,6,1
3.656499e-05,0.0002657254,6,1
4.742337e-05,0.0003401134,6,1
6.573675e-05,0.0004028327,6,1
8.599492e-05,0.0004302217,6,1
0.000111115,0.0004120704,6,1
0.000145635,0.0003522683,6,1
0.0001858272,0.0002649151,6,1
0.0002190506,0.0001645966,6,1
0.0002344468,6.119892e-05,6,1
0.0002308813,-3.766092e-05,6,1
0.0002179161,-0.0001274451,6,1
0.000207706,-0.0002104225,6,1
0.0002049509,-0.000290969,6,1
0.0002036544,-0.0003676259,6,1
0.0001950649,-0.000437314,6,1
0.0001770756,-0.0004951713,6,1
0.0001564933,-0.0005345531,6,1
0.0001401247,-0.0005468701,6,1
0.000130725,-0.0005308256,6,1
0.0001265113,-0.0004971161,6,1
0.000128456,-0.0004595169,6,1
0.0001422316,-0.0004309934,6,1
0.000173024,-0.0004149489,6,1
0.0002140265,-0.0004034423,6,1
0.0002451431,-0.0003843186,6,1
0.0002469258,-0.000353202,6,1
0.0002140265,-0.0003113892,6,1
0.0001547106,-0.0002580697,6,1
8.307774e-05,-0.0001938919,6,1
1.501031e-05,-0.0001225832,6,1
-3.26369e-05,-5.289507e-05,6,1
-5.678463e-05,9.824215e-06,6,1
-6.683268e-05,6.427817e-05,6,1
-7.947377e-05,0.0001114392,6,1
-0.0001062146,0.0001480659,6,1
-0.0001580754,0.0001714034,6,1
-0.0002344082,0.000178048,6,1
-0.0003237062,0.0001696206,6,1
-0.0004094387,0.000148228,6,1
-0.0004719959,0.000115977,6,1
-0.0004956574,7.756752e-05,6,1
-0.0004833405,3.640293e-05,6,1
-0.0004515757,-2.654814e-06,6,1
-0.0004266177,-3.847125e-05,6,1
-0.0004211074,-7.007399e-05,6,1
-0.0004319658,-9.486997e-05,6,1
-0.0004434724,-0.000104918,6,1
-0.0004353692,-9.324933e-05,6,1
-0.0003974459,-5.937768e-05,6,1
-0.0003297026,-7.840905e-06,6,1
-0.0002342462,5.050261e-05,6,1
-0.0001071869,0.0001069013,6,1
4.612685e-05,0.0001558451,6,1
0.0002114335,0.0001934442,6,1
0.0003692851,0.000222616,6,1
0.000502827,0.0002444948,6,1
0.0006170832,0.0002564877,6,1
0.0007357151,0.0002574601,6,1
0.0008870842,0.000247412,6,1
0.001089504,0.0002289366,6,1
0.001333251,0.0002120818,6,1
0.001579104,0.0002025199,6,1
0.001779742,0.0001991165,6,1
0.001903074,0.0001989545,6,1
0.00194748,0.000200251,6,1
0.001930463,0.0002059233,6,1
0.00187293,0.0002174299,6,1
0.001779418,0.0002333123,6,1
0.001641338,0.000252436,6,1
0.001457393,0.0002738286,6,1
0.001240873,0.0002976523,6,1
0.001025002,0.0003232586,6,1
0.0008501333,0.0003485408,6,1
0.0007412253,0.0003697714,6,1
0.0006904988,0.0003869503,6,1
0.0006575995,0.0004051016,6,1
0.0005999042,0.0004226047,6,1
0.0004859722,0.000423415,6,1
0.0003099692,0.0003872744,6,1
9.199134e-05,0.0003055935,6,1
-0.0001306864,0.0001913374,6,1
-0.0003292164,6.719535e-05,6,1
-0.0004890127,-4.252288e-05,6,1
-0.0006097514,-0.0001217728,6,1
-0.0006998597,-0.0001660166,6,1
-0.0007679272,-0.0001828714,6,1
-0.0008214086,-0.0001833576,6,1
-0.0008721352,-0.0001783336,6,1
-0.0009320992,-0.0001747682,6,1
-0.001004867,-0.0001799543,6,1
-0.001084441,-0.0002006986,6,1
-0.001160773,-0.0002335979,6,1
-0.001224627,-0.000273628,6,1
-0.001272761,-0.0003201407,6,1
-0.001299663,-0.0003723258,6,1
-0.001301608,-0.0004246728,6,1
-0.001268223,-0.0004747511,6,1
-0.001185083,-0.0005172121,6,1
-0.001042466,-0.000549139,6,1
-0.000851877,-0.0005676145,6,1
-0.000648485,-0.0005718282,6,1
-0.0004815578,-0.0005577285,6,1
-0.0003755671,-0.0005261258,6,1
-0.0003284061,-0.000482044,6,1
-0.0003168994,-0.0004308313,6,1
-0.0003164132,-0.0003783222,6,1
-0.000310903,-0.000330675,6,1
-0.0003024756,-0.0002922655,6,1
-0.0002964792,-0.0002624455,6,1
-0.0002924276,-0.0002417012,6,1
-0.0002856209,-0.0002271153,6,1
-0.0002809209,-0.0002126914,6,1
-0.0002922655,-0.0001950263,6,1
-0.0003309991,-0.0001700683,6,1
-0.0003890185,-0.0001392759,6,1
-0.0004437966,-0.0001084835,6,1
-0.000474589,-8.40116e-05,6,1
-0.0004710235,-7.18567e-05,6,1
-0.0004381243,-6.683268e-05,6,1
-0.0003895047,-6.310517e-05,6,1
-0.0003420196,-5.662256e-05,6,1
-0.000305879,-4.365734e-05,6,1
-0.0002831898,-2.388537e-05,6,1
-0.0002689281,7.485573e-07,6,1
-0.0002522354,2.619281e-05,6,1
-0.0002293842,5.082674e-05,6,1
-0.0002029675,7.367795e-05,6,1
-0.0001752544,9.426025e-05,6,1
-0.0001467309,0.0001127357,6,1
-0.0001208004,0.0001305629,6,1
-0.0001002181,0.0001509831,6,1
-8.773911e-05,0.000173024,6,1
-8.579432e-05,0.0001960373,6,1
-9.811128e-05,0.0002171058,6,1
-0.0001243659,0.0002337985,6,1
-0.0001535376,0.0002456293,6,1
-0.0001741199,0.0002556773,6,1
-0.0001759026,0.0002694529,6,1
-0.0001441378,0.0002854973,6,1
-7.023606e-05,0.0002963557,6,1
5.1475e-05,0.0002968419,6,1
0.0002128921,0.0002897111,6,1
0.0003905157,0.0002793389,6,1
0.0005503122,0.0002676702,6,1
0.000659058,0.000259891,6,1
0.0006981159,0.0002594049,6,1
0.0006679717,0.0002641047,6,1
0.0005819149,0.0002707494,6,1
0.0004624728,0.0002739907,6,1
0.0003321722,0.0002725321,6,1
0.0002033302,0.0002658874,6,1
7.935024e-05,0.0002542187,6,1
-3.814712e-05,0.0002389846,6,1
-0.0001489998,0.000217754,6,1
-0.0002481838,0.0001895547,6,1
-0.0003272716,0.0001553589,6,1
-0.0003781601,0.0001203528,6,1
-0.0003912874,8.891209e-05,6,1
-0.0003700569,6.298164e-05,6,1
-0.0003241924,4.013043e-05,6,1
-0.0002713591,1.873781e-05,6,1
-0.0002331117,-7.100305e-07,6,1
-0.0002300324,-1.821308e-05,6,1
-0.0002742763,-3.312309e-05,6,1
-0.0003588744,-4.462973e-05,6,1
-0.0004509274,-4.949169e-05,6,1
-0.0005136467,-5.062615e-05,6,1
-0.0005230465,-5.386745e-05,6,1
-0.0004776682,-6.229485e-05,6,1
-0.0003930701,-7.493595e-05,6,1
-0.0002927517,-9.049421e-05,6,1
-0.0001896782,-0.0001065387,6,1
-8.336335e-05,-0.0001225832,6,1
3.18651e-05,-0.0001368449,6,1
0.0001574657,-0.0001511067,6,1
0.00027707,-0.0001614788,6,1
0.0003619922,-0.0001656925,6,1
0.0004046154,-0.0001634236,6,1
0.0004328148,-0.0001564548,6,1
0.0005018546,-0.000149486,6,1
0.0006575995,-0.0001462447,6,1
0.0009104217,-0.0001486757,6,1
0.001224018,-0.0001533756,6,1
0.001529188,-0.0001572651,6,1
0.001752677,-0.0001590478,6,1
0.001856885,-0.0001601823,6,1
0.001843434,-0.0001601823,6,1
0.001744411,-0.0001601823,6,1
0.001612166,-0.0001572651,6,1
0.001495802,-0.0001477033,6,1
0.001422225,-0.0001313347,6,1
0.001394512,-0.0001109144,6,1
0.001393701,-8.790117e-05,6,1
0.001395484,-6.261898e-05,6,1
0.001374091,-3.701266e-05,6,1
0.001301162,-1.594417e-05,6,1
0.001157247,2.623614e-07,6,1
0.0009429968,1.54965e-05,6,1
0.0006862851,3.380988e-05,6,1
0.0004195254,5.406805e-05,6,1
0.0001749688,7.465034e-05,6,1
-1.367526e-05,9.296373e-05,6,1
-0.0001211246,0.0001086841,6,1
-0.0001376552,0.0001198666,6,1
-7.720486e-05,0.0001299146,6,1
2.505836e-05,0.0001430419,6,1
0.0001291043,0.0001577899,6,1
0.0002059233,0.0001725378,6,1
0.0002410915,0.0001856651,6,1
0.0002242366,0.0001989545,6,1
0.000150659,0.0002132162,6,1
2.797553e-05,0.0002269918,6,1
-0.0001212866,0.0002394708,6,1
-0.0002699005,0.0002496809,6,1
-0.0003916115,0.0002577842,6,1
-0.0004692408,0.0002615117,6,1
-0.0005102433,0.0002634565,6,1
-0.0005407116,0.0002634565,6,1
-0.0005833348,0.0002608634,6,1
-0.0006565883,0.0002553532,6,1
-0.0007706822,0.0002448189,6,1
-0.0009171893,0.0002269918,6,1
-0.001065479,0.0002021958,6,1
-0.001175521,0.000168,6,1
-0.00121701,0.0001221355,6,1
-0.001192862,6.346784e-05,6,1
-0.001126091,-6.220252e-06,6,1
-0.00104749,-8.271508e-05,6,1
-0.000978774,-0.0001582375,6,1
-0.0009256167,-0.0002225774,6,1
-0.0008901244,-0.0002682799,6,1
-0.0008735937,-0.0002893484,6,1
-0.0008800763,-0.0002838381,6,1
-0.0009045482,-0.0002567732,6,1
-0.0009358267,-0.0002138259,6,1
-0.0009590021,-0.0001621271,6,1
-0.0009564091,-0.0001110765,6,1
-0.0009136238,-6.748094e-05,6,1
-0.0008338877,-3.782299e-05,6,1
-0.0007423208,-2.501983e-05,6,1
-0.0006810602,-3.036798e-05,6,1
-0.0006865704,-5.2733e-05,6,1
-0.0007680892,-8.628052e-05,6,1
-0.0008945001,-0.0001214487,6,1
-0.00101378,-0.0001506204,6,1
-0.001079417,-0.000174282,6,1
-0.001064831,-0.0001982676,6,1
-0.0009698605,-0.0002237119,6,1
-0.000817357,-0.0002465631,6,1
-0.0006436231,-0.0002629317,6,1
-0.0004710235,-0.0002755728,6,1
-0.0002921034,-0.0002857829,6,1
-8.336335e-05,-0.0002904828,6,1
0.0001616794,-0.0002867553,6,1
0.0004151496,-0.0002702246,6,1
0.0006409068,-0.0002402425,6,1
0.0008115617,-0.0001987538,6,1
0.0009089631,-0.0001546721,6,1
0.0009227386,-0.0001190177,6,1
0.0008710398,-9.308726e-05,6,1
0.0007930862,-7.65566e-05,6,1
0.0007219395,-6.796714e-05,6,1
0.0006720233,-6.44017e-05,6,1
0.0006345862,-5.59743e-05,6,1
0.0005864528,-3.782299e-05,6,1
0.0005093097,-4.761664e-06,6,1
0.0004034809,4.256141e-05,6,1
0.0002910076,9.766362e-05,6,1
0.0002109473,0.000150659,6,1
0.0001900409,0.000195389,6,1
0.0002295848,0.0002269918,6,1
0.0002991108,0.0002467637,6,1
0.0003587509,0.0002574601,6,1
0.0003854917,0.0002707494,6,1
0.0003848434,0.0002958695,6,1
0.0003658818,0.0003370341,6,1
0.0003279585,0.0003893813,6,1
0.0002631324,0.0004362182,6,1
0.000165569,0.0004568005,6,1
3.737532e-05,0.0004465904,6,1
-0.0001037836,0.0004107739,6,1
-0.0002324634,0.0003574544,6,1
-0.0003238683,0.0002905214,6,1
-0.0003715154,0.0002107852,6,1
-0.0003945287,0.0001140322,6,1
-0.0004164075,-3.303076e-06,6,1
-0.0004457413,-0.000147055,6,1
-0.0004766958,-0.0003130099,6,1
-0.0004943609,-0.0004825302,6,1
-0.0004869059,-0.0006282268,6,1
-0.000449793,-0.0007274108,6,1
-0.0003958252,-0.0007701961,6,1
-0.0003399127,-0.0007629031,6,1
-0.0002854588,-0.0007220627,6,1
-0.0002290601,-0.0006646916,6,1
-0.0001723372,-0.0006006758,6,1
-0.0001235555,-0.0005285567,6,1
-8.482193e-05,-0.0004394208,6,1
-4.835724e-05,-0.0003233821,6,1
-1.270286e-05,-0.0001796301,6,1
1.987227e-05,-2.404744e-05,6,1
6.103686e-05,0.0001237561,6,1
0.0001398006,0.000247412,6,1
0.0002887387,0.000339141,6,1
0.0005284334,0.0004039671,6,1
0.0008554814,0.000458097,6,1
0.00124379,0.0005131993,6,1
0.001638582,0.0005715428,6,1
0.001963038,0.0006324793,6,1
0.002159462,0.0006968193,6,1
0.002214889,0.0007639144,6,1
0.002153952,0.0008220959,6,1
0.002014251,0.0008572642,6,1
0.001825768,0.0008564538,6,1
0.001598876,0.0008146409,6,1
0.001335195,0.0007370116,6,1
0.001037643,0.0006417171,6,1
0.0007222636,0.0005465847,6,1
0.0004119083,0.0004637693,6,1
0.0001274836,0.0003931088,6,1
-0.0001217728,0.0003201794,6,1
-0.0003277578,0.0002222919,6,1
-0.0004805854,8.502253e-05,6,1
-0.0005732867,-9.098041e-05,6,1
-0.0006139652,-0.0002921034,6,1
-0.0006215822,-0.0004933886,6,1
-0.0006150996,-0.0006710121,6,1
-0.0006029447,-0.0008063366,6,1
-0.000591276,-0.0008907726,6,1
-0.0005854416,-0.0009223754,6,1
-0.0005922483,-0.0009045482,6,1
-0.0006152617,-0.0008432875,6,1
-0.0006514022,-0.0007507482,6,1
-0.0006938633,-0.0006379507,6,1
-0.0007321107,-0.0005126743,6,1
-0.000757555,-0.0003833462,6,1
-0.0007671168,-0.0002647144,6,1
-0.0007536653,-0.0001723372,6,1
-0.00071558,-0.0001180453,6,1
-0.0006611261,-0.0001018388,6,1
-0.0006141272,-0.0001089697,6,1
-0.0005984068,-0.0001081593,6,1
-0.0006220684,-7.60704e-05,6,1
-0.0006727948,-9.947754e-06,6,1
-0.0007295177,7.254349e-05,6,1
-0.0007718167,0.0001479039,6,1
-0.000787375,0.0002017096,6,1
-0.0007744097,0.0002294227,6,1
-0.0007426449,0.0002334744,6,1
-0.0007026148,0.0002179161,6,1
-0.0006598296,0.0001906891,6,1
-0.0006034309,0.0001645966,6,1
-0.0005152673,0.0001501728,6,1
-0.000395339,0.0001470936,6,1
-0.0002643903,0.0001487142,6,1
-0.0001478653,0.0001480659,6,1
-6.893953e-05,0.0001401247,6,1
-2.728874e-05,0.0001188942,6,1
-1.520357e-06,8.323981e-05,6,1
2.975825e-05,3.18651e-05,6,1
7.497447e-05,-3.766092e-05,6,1
0.0001331559,-0.0001193418,6,1
0.0001974959,-0.0001977815,6,1
0.0002626462,-0.0002585559,6,1
0.0003255275,-0.0002911311,6,1
0.0003856538,-0.0002865932,6,1
0.0004512903,-0.0002400805,6,1
0.0005255162,-0.0001546721,6,1
0.0006015248,-4.155049e-05,6,1
0.0006660269,8.04847e-05,6,1
0.0007097846,0.000195389,6,1
0.0007251808,0.0002906835,6,1
0.000710919,0.0003679886,6,1
0.0006760749,0.0004316803,6,1
0.0006350724,0.0004849998,6,1
0.000599418,0.0005274609,6,1
0.0005676532,0.0005550121,6,1
0.0005285954,0.0005658705,6,1
0.0004657141,0.0005563086,6,1
0.0003762539,0.0005232473,6,1
0.0002624841,0.0004747897,6,1
0.000135749,0.000425846,6,1
1.517237e-05,0.0003864641,6,1
-8.773911e-05,0.0003611819,6,1
-0.0001728234,0.0003425444,6,1
-0.0002442942,0.0003162898,6,1
-0.0002932379,0.0002684805,6,1
-0.0003081479,0.0001940925,6,1
-0.0002870794,0.0001023635,6,1
-0.0002476975,8.041497e-06,6,1
-0.0002256567,-7.995997e-05,6,1
-0.0002475355,-0.0001556445,6,1
-0.0003115513,-0.0002186879,6,1
-0.0003937184,-0.0002728177,6,1
-0.0004663236,-0.000318196,6,1
-0.0005097571,-0.0003514194,6,1
-0.0005230465,-0.0003671397,6,1
-0.0005128364,-0.0003564434,6,1
-0.0004813957,-0.0003138202,6,1
-0.0004277521,-0.0002452666,6,1
-0.0003514194,-0.000164396,6,1
-0.0002551526,-8.984595e-05,6,1
-0.0001434896,-2.939559e-05,6,1
-2.437157e-05,1.889987e-05,6,1
0.0001009049,6.314371e-05,6,1
0.0002384984,0.0001077117,6,1
0.0003864641,0.0001522796,6,1
0.0005329712,0.0001887444,6,1
0.0006658648,0.0002106232,6,1
0.0007720177,0.0002167816,6,1
0.0008438127,0.0002080301,6,1
0.0008771982,0.0001872858,6,1
0.0008765499,0.0001539003,6,1
0.0008524022,0.0001031738,6,1
0.0008196649,3.753739e-05,6,1
0.0007942207,-3.344723e-05,6,1
0.0007810934,-0.0001021629,6,1
0.0007645627,-0.0001645581,6,1
0.0007185361,-0.0002188499,6,1
0.0006204865,-0.0002648765,6,1
0.0004741415,-0.000305879,6,1
0.0003049452,-0.0003467195,6,1
0.0001433661,-0.0003861013,6,1
1.630683e-05,-0.0004180282,6,1
-6.148453e-05,-0.0004358554,6,1
-8.790117e-05,-0.0004329382,6,1
-7.461182e-05,-0.0004092767,6,1
-4.365734e-05,-0.0003695707,6,1
-2.09682e-05,-0.0003233821,6,1
-2.615429e-05,-0.0002846485,6,1
-7.18567e-05,-0.0002588801,6,1
-0.0001535376,-0.000241377,6,1
-0.0002549905,-0.000226467,6,1
-0.0003494746,-0.0002143121,6,1
-0.0004172179,-0.0002045882,6,1
-0.0004535205,-0.0001977815,6,1
-0.0004679443,-0.0001901644,6,1
-0.0004706994,-0.0001794681,6,1
-0.0004702132,-0.0001632615,6,1
-0.0004711856,-0.0001438137,6,1
-0.0004755614,-0.0001238797,6,1
-0.0004891749,-0.0001018388,6,1
-0.0005211017,-7.65566e-05,6,1
-0.0005734488,-4.414354e-05,6,1
-0.0006377887,-2.654814e-06,6,1
-0.0006943495,4.742337e-05,6,1
-0.0007283832,9.977047e-05,6,1
-0.0007317866,0.0001445005,6,1
-0.0007074767,0.0001775618,6,1
-0.0006650157,0.0002005751,6,1
-0.0006094273,0.0002205092,6,1
-0.0005407116,0.0002372019,6,1
-0.0004540067,0.0002482223,6,1
-0.0003476919,0.0002534084,6,1
-0.0002253326,0.0002555152,6,1
-9.892161e-05,0.0002610255,6,1
1.144487e-05,0.0002710735,6,1
9.377406e-05,0.0002838767,6,1
0.0001571416,0.0002968419,6,1
0.0002255332,0.0003049452,6,1
0.000314345,0.0003057555,6,1
0.0004180668,0.0003023522,6,1
0.000509958,0.0002971661,6,1
0.0005576051,0.0002923041,6,1
0.0005456123,0.0002858215,6,1
0.0004796517,0.0002710735,6,1
0.0003807918,0.000247412,6,1
0.0002730183,0.0002206712,6,1
0.0001714034,0.0001986303,6,1
8.242948e-05,0.0001856651,6,1
7.717366e-06,0.0001796687,6,1
-5.402952e-05,0.0001749688,6,1
-0.0001021629,0.0001668655,6,1
-0.0001417068,0.0001542244,6,1
-0.0001801163,0.0001376938,6,1
-0.0002266291,0.0001211631,6,1
-0.0002895104,0.0001065772,6,1
-0.0003668155,9.344993e-05,6,1
-0.0004441207,7.983644e-05,6,1
-0.0004997091,6.427817e-05,6,1
-0.0005211017,4.77475e-05,6,1
-0.0005152673,3.040651e-05,6,1
-0.0004929024,1.112074e-05,6,1
-0.000449955,-8.489166e-06,6,1
-0.0003810773,-2.323711e-05,6,1
-0.0002969654,-3.328516e-05,6,1
-0.0002102605,-3.798505e-05,6,1
-0.000132145,-3.960571e-05,6,1
-6.926366e-05,-3.976777e-05,6,1
-2.064406e-05,-4.43056e-05,6,1
2.068259e-05,-5.532604e-05,6,1
6.233338e-05,-7.250496e-05,6,1
0.0001018773,-9.227693e-05,6,1
0.0001351007,-0.000107349,6,1
0.0001545486,-0.000117235,6,1
0.0001543865,-0.000129714,6,1
0.0001344524,-0.0001535376,6,1
0.0001031738,-0.0001901644,6,1
7.286763e-05,-0.0002358668,6,1
5.325772e-05,-0.0002867553,6,1
5.1475e-05,-0.000340561,6,1
7.027458e-05,-0.0003950149,6,1
0.0001103047,-0.0004439586,6,1
0.0001756171,-0.0004776682,6,1
0.0002676702,-0.000484475,6,1
0.0003806297,-0.0004611376,6,1
0.0004960203,-0.00041268,6,1
0.0005846701,-0.0003566054,6,1
0.0006229175,-0.0003126857,6,1
0.0006015248,-0.0002932379,6,1
0.0005383193,-0.0002987481,6,1
0.0004721967,-0.0003212752,6,1
0.0004277907,-0.0003486642,6,1
0.0003971604,-0.000370543,6,1
0.0003576164,-0.0003861013,6,1
0.0002905214,-0.0003958252,6,1
0.0001914995,-0.0003948528,6,1
6.978839e-05,-0.0003773498,6,1
-5.305713e-05,-0.0003379679,6,1
-0.0001483515,-0.0002733039,6,1
-0.0001961608,-0.0001906506,6,1
-0.0001888679,-0.0001018388,6,1
-0.0001305243,-2.242678e-05,6,1
-3.701266e-05,4.02925e-05,6,1
7.043665e-05,8.405014e-05,6,1
0.0001767515,0.0001103047,6,1
0.0002665357,0.0001247285,6,1
0.0003196932,0.0001331559,6,1
0.0003164518,0.0001406109,6,1
0.0002530843,0.0001540623,6,1
0.000145635,0.0001762653,6,1
1.808955e-05,0.000202844,6,1
-9.989401e-05,0.0002323399,6,1
-0.0001838438,0.0002605393,6,1
-0.0002175534,0.0002838767,6,1
-0.0001922712,0.0003021901,6,1
-0.0001162626,0.0003151553,6,1
-7.354709e-06,0.0003245551,6,1
0.000105929,0.0003307136,6,1
0.0001942546,0.0003384927,6,1
0.0002397949,0.0003493511,6,1
0.0002386605,0.0003621543,6,1
0.0002036544,0.000373823,6,1
0.0001613553,0.0003756057,6,1
0.0001461212,0.0003684748,6,1
0.0001889064,0.0003568061,6,1
0.0002908455,0.0003474063,6,1
0.0004128807,0.000341734,6,1
0.0004934272,0.0003346032,6,1
0.0004856481,0.0003222862,6,1
0.0003816021,0.0003049452,6,1
0.0002090025,0.0002897111,6,1
1.22552e-05,0.0002778803,6,1
-0.0001679614,0.0002642668,6,1
-0.0003070135,0.0002454672,6,1
-0.0004047388,0.0002209954,6,1
-0.0004719959,0.0001914995,6,1
-0.0005091089,0.0001571416,6,1
-0.0005047331,0.000121001,6,1
-0.0004517378,8.875003e-05,6,1
-0.000360495,6.281957e-05,6,1
-0.0002528836,4.061663e-05,6,1
-0.0001454344,2.262738e-05,6,1
-5.176061e-05,9.013889e-06,6,1
1.987227e-05,-1.358292e-06,6,1
6.217132e-05,-9.461558e-06,6,1
8.032264e-05,-1.902341e-05,6,1
8.583286e-05,-3.296103e-05,6,1
8.972242e-05,-5.192267e-05,6,1
8.226741e-05,-7.33153e-05,6,1
4.693717e-05,-9.357346e-05,6,1
-2.161646e-05,-0.0001091317,6,1
-0.0001088076,-0.0001201522,6,1
-0.0001951884,-0.0001290658,6,1
-0.0002778417,-0.0001384655,6,1
-0.0003587123,-0.0001512687,6,1
-0.0004395829,-0.0001656925,6,1
-0.0005105674,-0.0001794681,6,1
-0.0005577285,-0.0001904885,6,1
-0.000568911,-0.0001955125,6,1
-0.0005481666,-0.0001919471,6,1
-0.0005139708,-0.0001835197,6,1
-0.0004885266,-0.0001770371,6,1
-0.0004852853,-0.0001752544,6,1
-0.0005031124,-0.0001726613,6,1
-0.0005258016,-0.0001666649,6,1
-0.0005384427,-0.0001566169,6,1
-0.000529205,-0.0001423551,6,1
-0.0004993849,-0.0001276072,6,1
-0.000457248,-0.0001167488,6,1
-0.0004173799,-0.0001133454,6,1
-0.0003854531,-0.0001157764,6,1
-0.0003514194,-0.0001212866,6,1
-0.0003039342,-0.0001269589,6,1
-0.0002428356,-0.0001259865,6,1
-0.0001736337,-0.0001136696,6,1
-0.0001010285,-9.000802e-05,6,1
-2.939559e-05,-5.840528e-05,6,1
4.580272e-05,-2.485776e-05,6,1
0.0001360731,3.989864e-06,6,1
0.0002605393,2.975825e-05,6,1
0.0004237391,5.277153e-05,6,1
0.0006091419,7.140904e-05,6,1
0.0007914656,8.826383e-05,6,1
0.0009438071,0.0001013911,6,1
0.001044126,0.0001065772,6,1
0.001088856,0.0001017153,6,1
0.00109388,8.437427e-05,6,1
0.001075566,5.730935e-05,6,1
0.001036184,2.797553e-05,6,1
0.0009695755,1.419998e-05,6,1
0.0008856256,2.878586e-05,6,1
0.0008135065,6.946425e-05,6,1
0.0007814175,0.0001232699,6,1
0.0007879001,0.0001783722,6,1
0.0008005413,0.0002318537,6,1
0.0007810934,0.0002835526,6,1
0.0007097846,0.0003255275,6,1
0.0005883976,0.0003529166,6,1
0.0004339493,0.0003652335,6,1
0.0002632944,0.0003660439,6,1
9.507057e-05,0.0003559958,6,1
-4.965376e-05,0.0003344411,6,1
-0.0001480274,0.0003008936,6,1
-0.000181737,0.0002529222,6,1
-0.0001603444,0.0001939304,6,1
-0.0001114006,0.0001300767,6,1
-6.342931e-05,7.57848e-05,6,1
-2.42095e-05,4.418206e-05,6,1
6.582909e-06,3.672706e-05,6,1
1.565857e-05,4.547859e-05,6,1
-2.0482e-05,5.811968e-05,6,1
-0.0001235555,6.362991e-05,6,1
-0.0002955068,5.406805e-05,6,1
-0.0005089468,2.81376e-05,6,1
-0.0007069906,-1.318906e-05,6,1
-0.0008368049,-6.261898e-05,6,1
-0.0008831556,-0.0001154523,6,1
-0.0008638698,-0.0001686097,6,1
-0.000812333,-0.0002160948,6,1
-0.0007512344,-0.0002451045,6,1
-0.000690622,-0.0002410529,6,1
-0.0006350336,-0.0002023193,6,1
-0.0005870623,-0.0001413827,6,1
-0.0005400634,-8.02841e-05,6,1
-0.0004758855,-4.090223e-05,6,1
-0.0003716775,-2.907146e-05,6,1
-0.0002173914,-3.587821e-05,6,1
-2.647842e-05,-5.159854e-05,6,1
0.0001644345,-6.91016e-05,6,1
0.0003122381,-8.206682e-05,6,1
0.0003853296,-8.482193e-05,6,1
0.0003733368,-7.720486e-05,6,1
0.0002876042,-6.764301e-05,6,1
0.0001560072,-6.958779e-05,6,1
1.193106e-05,-9.66527e-05,6,1
-0.0001212866,-0.0001601823,6,1
-0.0002355427,-0.0002656868,6,1
-0.0003303509,-0.0004066836,6,1
-0.0004045768,-0.0005672903,6,1
-0.0004578962,-0.0007188214,6,1
-0.0004927403,-0.0008340498,6,1
-0.0005154294,-0.0008925553,6,1
-0.0005277464,-0.0008886658,6,1
-0.0005202913,-0.0008304843,6,1
-0.0004805854,-0.0007374589,6,1
-0.0004084663,-0.0006262821,6,1
-0.0003193304,-0.000512026,6,1
-0.0002279256,-0.0004147869,6,1
-0.0001324691,-0.0003496366,6,1
-1.562004e-05,-0.0003199787,6,1
0.000135749,-0.0003126857,6,1
0.0003025142,-0.0003084721,6,1
0.0004448076,-0.0002830278,6,1
0.0005307022,-0.0002180396,6,1
0.0005499881,-0.0001092938,6,1
0.0005260024,3.769945e-05,6,1
0.0004861343,0.000202844,6,1
0.000433301,0.0003606957,6,1
0.0003517821,0.0004887274,6,1
0.0002329882,0.0005736496,6,1
8.907416e-05,0.0006153004,6,1
-5.078821e-05,0.0006235657,6,1
-0.0001571031,0.0006071971,6,1
-0.0002071812,0.0005734875,6,1
-0.000201509,0.0005279472,6,1
-0.0001661787,0.0004746277,6,1
-0.0001287416,0.0004177427,6,1
-0.0001005423,0.0003631267,6,1
-7.509801e-05,0.0003124002,6,1
-3.749886e-05,0.0002663737,6,1
2.084466e-05,0.0002195368,6,1
9.53947e-05,0.0001611932,6,1
0.0001665414,9.847395e-05,6,1
0.0002091646,5.633696e-05,6,1
0.000210137,5.260946e-05,6,1
0.0001717275,8.79397e-05,6,1
0.0001088461,0.0001451488,6,1
4.02925e-05,0.0001958752,6,1
-1.853722e-05,0.0002222919,6,1
-6.148453e-05,0.0002266676,6,1
-8.903562e-05,0.0002216436,6,1
-0.0001076731,0.0002248849,6,1
-0.0001188556,0.0002412535,6,1
-0.0001238797,0.0002699391,6,1
-0.000117235,0.000299597,6,1
-9.2439e-05,0.0003237448,6,1
-4.446767e-05,0.0003383307,6,1
1.306552e-05,0.0003464339,6,1
4.936815e-05,0.0003571303,6,1
4.061663e-05,0.000368799,6,1
-9.947754e-06,0.0003718782,6,1
-8.190475e-05,0.0003556717,6,1
-0.0001485136,0.0003154794,6,1
-0.0001945401,0.0002563256,6,1
-0.0002081536,0.0001885823,6,1
-0.000179306,0.0001253768,6,1
-9.616651e-05,7.432621e-05,6,1
3.802358e-05,4.304761e-05,6,1
0.0001919856,3.688912e-05,6,1
0.0003260137,5.504044e-05,6,1
0.0004031568,8.972242e-05,6,1
0.0003982949,0.0001287802,6,1
0.0003106175,0.0001608691,6,1
0.0001668655,0.0001803169,6,1
1.338965e-05,0.0001885823,6,1
-0.000104918,0.0001871237,6,1
-0.0001663408,0.0001736723,6,1
-0.0001737958,0.0001454729,6,1
-0.0001455964,9.652917e-05,6,1
-0.0001018388,2.01964e-05,6,1
-6.116039e-05,-8.384954e-05,6,1
-3.928157e-05,-0.000206695,6,1
-4.47918e-05,-0.0003264613,6,1
-8.093236e-05,-0.0004165696,6,1
-0.0001387897,-0.0004554653,6,1
-0.0002052365,-0.000439907,6,1
-0.0002634179,-0.0003835083,6,1
-0.0003060411,-0.0003052308,6,1
-0.0003371576,-0.0002220912,6,1
-0.0003630881,-0.0001413827,6,1
-0.000377836,-7.104638e-05,6,1
-0.0003616295,-1.691656e-05,6,1
-0.0002993964,1.063454e-05,6,1
-0.0001994021,4.80019e-06,6,1
-9.260107e-05,-3.522994e-05,6,1
-1.520357e-06,-0.0001039456,6,1
6.444023e-05,-0.0001921092,6,1
0.0001127357,-0.0002929138,6,1
0.0001561692,-0.00039777,6,1
0.0001989545,-0.0004964678,6,1
0.0002444948,-0.0005869002,6,1
0.0002918179,-0.0006627468,6,1
0.000336548,-0.0007193076,6,1
0.0003692851,-0.0007462104,6,1
0.0003864641,-0.0007321107,6,1
0.0003914881,-0.0006679329,6,1
0.0004052637,-0.0005617801,6,1
0.0004615004,-0.0004345588,6,1
0.0005804563,-0.0003086341,6,1
0.000750463,-0.000194216,6,1
0.0009305178,-9.405965e-05,6,1
0.001073784,-3.951337e-06,6,1
0.00114801,7.546067e-05,6,1
0.001137962,0.0001404489,6,1
0.001047853,0.0001919856,6,1
0.0008982667,0.0002320158,6,1
0.0007233981,0.000259891,6,1
0.0005640878,0.0002778803,6,1
0.0004423766,0.0002882525,6,1
0.0003593992,0.0002963557,6,1
0.0002981384,0.0003055935,6,1
0.0002380122,0.0003135347,6,1
0.000168,0.0003136967,6,1
0.000101067,0.0003033245,6,1
5.585077e-05,0.0002874421,6,1
4.02925e-05,0.0002762596,6,1
5.115087e-05,0.0002778803,6,1
9.085688e-05,0.0002906835,6,1
0.0001717275,0.0003072141,6,1
0.0002939248,0.0003211517,6,1
0.0004276287,0.0003320101,6,1
0.0005174129,0.0003410858,6,1
0.0005255162,0.0003504856,6,1
0.0004493454,0.0003611819,6,1
0.0003156415,0.0003720403,6,1
0.0001563313,0.0003816021,6,1
-6.058186e-06,0.0003867882,6,1
-0.0001634236,0.0003825745,6,1
-0.0003078238,0.0003697714,6,1
-0.0004271038,0.0003501615,6,1
-0.0005058676,0.0003250413,6,1
-0.0005415219,0.0002978143,6,1
-0.00055157,0.0002670219,6,1
-0.0005587008,0.0002299089,6,1
-0.0005608077,0.000185503,6,1
-0.0005206155,0.0001401247,6,1
-0.0003984183,9.896015e-05,6,1
-0.000191785,6.103686e-05,6,1
4.871989e-05,2.295151e-05,6,1
0.0002433604,-1.464765e-05,6,1
0.0003326584,-4.819517e-05,6,1
0.0002948972,-7.526008e-05,6,1
0.0001517934,-9.551824e-05,6,1
-4.365734e-05,-0.0001094559,6,1
-0.0002391081,-0.0001165867,6,1
-0.0004115456,-0.0001185315,6,1
-0.0005549733,-0.0001195039,6,1
-0.0006609641,-0.0001258245,6,1
-0.0007219006,-0.000144462,6,1
-0.0007466965,-0.0001755785,6,1
-0.0007556102,-0.0002144742,6,1
-0.0007624169,-0.0002559629,6,1
-0.0007658203,-0.0002942103,6,1
-0.0007591756,-0.0003209511,6,1
-0.0007395657,-0.0003353749,6,1
-0.0007118525,-0.0003418575,6,1
-0.000688029,-0.0003410472,6,1
-0.0006750637,-0.0003334301,6,1
-0.0006695535,-0.0003211132,6,1
-0.0006616123,-0.0003037722,6,1
-0.0006428128,-0.0002836761,6,1
-0.0006142893,-0.0002650386,6,1
-0.0005809038,-0.0002486699,6,1
-0.0005478425,-0.0002358668,6,1
-0.0005201293,-0.0002258187,6,1
-0.0005050572,-0.0002199844,6,1
-0.0005061917,-0.0002194982,6,1
-0.0005246671,-0.0002204706,6,1
-0.0005548113,-0.0002204706,6,1
-0.0005844692,-0.000219012,6,1
-0.0005933828,-0.0002175534,6,1
-0.000571342,-0.000216419,6,1
-0.000524343,-0.0002144742,6,1
-0.0004736166,-0.0002076674,6,1
-0.0004397449,-0.0001932436,6,1
-0.0004277521,-0.0001721751,6,1
-0.0004219178,-0.0001478653,6,1
-0.0003969597,-0.0001253383,6,1
-0.0003321336,-0.0001045939,6,1
-0.000224036,-8.239095e-05,6,1
-9.130454e-05,-5.775702e-05,6,1
3.883391e-05,-3.134038e-05,6,1
0.0001493625,-3.951337e-06,6,1
0.000234933,2.538249e-05,6,1
0.0002960316,5.374392e-05,6,1
0.0003371962,8.129502e-05,6,1
0.0003647473,0.0001064152,6,1
0.0003853296,0.0001318594,6,1
0.0004052637,0.0001621656,6,1
0.0004251977,0.0001986303,6,1
0.0004414042,0.0002372019,6,1
0.0004480489,0.0002699391,6,1
0.0004430249,0.0002940868,6,1
0.0004315182,0.0003124002,6,1
0.0004211461,0.0003328204,6,1
0.000413529,0.0003556717,6,1
0.0004062361,0.0003772264,6,1
0.0003944053,0.000388733,6,1
0.0003775505,0.0003893813,6,1
0.0003632887,0.0003828986,6,1
0.0003576164,0.0003756057,6,1
0.0003602095,0.0003699334,6,1
0.0003657197,0.0003623164,6,1
0.0003584268,0.0003480546,6,1
0.0003203414,0.0003229345,6,1
0.0002438466,0.0002853353,6,1
0.0001360731,0.0002357433,6,1
1.9224e-05,0.0001770756,6,1
-7.785312e-05,0.0001156529,6,1
-0.0001290658,5.406805e-05,6,1
-0.0001204763,-5.89612e-06,6,1
-5.743289e-05,-6.132246e-05,6,1
2.862379e-05,-0.0001104282,6,1
8.696731e-05,-0.0001533756,6,1
8.340187e-05,-0.0001908126,6,1
2.359977e-05,-0.0002211189,6,1
-4.965376e-05,-0.0002407288,6,1
-8.676672e-05,-0.0002498044,6,1
-6.586029e-05,-0.0002476975,6,1
-1.196227e-06,-0.0002326255,6,1
6.800567e-05,-0.0002062088,6,1
0.0001047945,-0.0001713648,6,1
9.588091e-05,-0.0001379794,6,1
4.936815e-05,-0.0001091317,6,1
-1.62683e-05,-8.482193e-05,6,1
-8.190475e-05,-6.731888e-05,6,1
-0.0001433275,-5.548811e-05,6,1
-0.0002029675,-4.722278e-05,6,1
-0.0002582318,-4.333321e-05,6,1
-0.0002887001,-4.462973e-05,6,1
-0.0002737901,-5.046408e-05,6,1
-0.0002099363,-5.937768e-05,6,1
-0.0001185315,-7.088431e-05,6,1
-2.291298e-05,-8.384954e-05,6,1
8.178122e-05,-9.503204e-05,6,1
0.0002299089,-0.0001011905,6,1
0.0004561522,-9.811128e-05,6,1
0.0007541905,-8.676672e-05,6,1
0.001071839,-7.218083e-05,6,1
0.001334709,-6.537409e-05,6,1
0.001477489,-7.315322e-05,6,1
0.001467441,-9.551824e-05,6,1
0.001318989,-0.000127121,6,1
0.001075566,-0.0001592099,6,1
0.0007898449,-0.0001838438,6,1
0.0005122268,-0.0001998883,6,1
0.0002793389,-0.0002070192,6,1
0.0001114392,-0.0002026434,6,1
1.64689e-05,-0.0001849783,6,1
-7.516774e-06,-0.0001553203,6,1
3.121684e-05,-0.0001161005,6,1
0.0001171115,-7.315322e-05,6,1
0.0002281262,-3.247483e-05,6,1
0.0003375204,-1.196227e-06,6,1
0.0004193634,1.501031e-05,6,1
0.0004546936,1.419998e-05,6,1
0.0004412422,-2.978945e-06,6,1
0.0003934329,-2.907146e-05,6,1
0.0003281205,-5.013995e-05,6,1
0.000254867,-5.402952e-05,6,1
0.0001825859,-3.409549e-05,6,1
0.0001143563,3.017472e-06,6,1
4.628891e-05,4.207521e-05,6,1
-2.437157e-05,7.691926e-05,6,1
-9.324933e-05,0.0001088461,6,1
-0.0001522411,0.0001474177,6,1
-0.0002053985,0.0001947408,6,1
-0.000263742,0.0002542187,6,1
-0.0003329439,0.0003281205,6,1
-0.0004157593,0.0004143393,6,1
-0.0005047331,0.0005008822,6,1
-0.0005831727,0.0005676532,6,1
-0.0006337371,0.0005986077,6,1
-0.0006512401,0.0005880735,6,1
-0.0006431369,0.0005407503,6,1
-0.0006180168,0.0004632831,6,1
-0.0005883588,0.0003616681,6,1
-0.0005706937,0.0002444948,6,1
-0.0005732867,0.0001227837,6,1
-0.0005916001,8.689758e-06,6,1
-0.0006065101,-8.903562e-05,6,1
-0.000583983,-0.0001653684,6,1
-0.0004992229,-0.0002194982,6,1
-0.0003585502,-0.0002496423,6,1
-0.0001940539,-0.0002535319,6,1
-5.046408e-05,-0.0002277635,6,1
3.056858e-05,-0.0001778474,6,1
3.429608e-05,-0.0001211246,6,1
-9.947754e-06,-7.574627e-05,6,1
-4.203669e-05,-5.111234e-05,6,1
-1.464765e-05,-4.398147e-05,6,1
8.356394e-05,-4.187462e-05,6,1
0.0002347709,-3.085418e-05,6,1
0.0004136911,-3.303076e-06,6,1
0.0006034696,4.256141e-05,6,1
0.0007856312,9.652917e-05,6,1
0.0009266282,0.0001435281,6,1
0.0009865924,0.0001720516,6,1
0.0009382969,0.0001714034,6,1
0.0007807693,0.0001370455,6,1
0.000537347,7.935024e-05,6,1
0.0002487085,2.035846e-05,6,1
-3.814712e-05,-1.691656e-05,6,1
-0.0002778417,-1.772689e-05,6,1
-0.0004480103,1.306552e-05,6,1
-0.000546546,5.698522e-05,6,1
-0.0005685869,9.474644e-05,6,1
-0.0005097571,0.000118408,6,1
-0.0003938804,0.0001388282,6,1
-0.0002697385,0.0001707551,6,1
-0.0001878955,0.0002211574,6,1
-0.0001733096,0.0002798251,6,1
-0.0002169052,0.0003200173,6,1
-0.0002895104,0.0003125623,6,1
-0.0003647087,0.0002414156,6,1
-0.0004258073,0.0001146805,6,1
-0.0004664857,-4.05781e-05,6,1
-0.0004869059,-0.0001976194,6,1
-0.0004899852,-0.0003342404,6,1
-0.0004762096,-0.0004381243,6,1
-0.0004541688,-0.0005108916,6,1
-0.0004243487,-0.0005572423,6,1
-0.0003862634,-0.000578959,6,1
-0.0003339163,-0.0005770142,6,1
-0.0002569353,-0.0005510838,6,1
-0.0001431655,-0.0005014918,6,1
1.209313e-05,-0.0004360174,6,1
0.0001984683,-0.0003671397,6,1
0.000396188,-0.000310741,6,1
0.0005914768,-0.0002733039,6,1
0.000767804,-0.0002548284,6,1
0.000903939,-0.0002476975,6,1
0.0009776788,-0.0002410529,6,1
0.0009609861,-0.0002220912,6,1
0.0008412196,-0.0001827094,6,1
0.0006324793,-0.000129714,6,1
0.0003696093,-8.271508e-05,6,1
0.0001028497,-5.856735e-05,6,1
-0.0001175591,-5.338126e-05,6,1
-0.000271197,-4.608832e-05,6,1
-0.0003651949,-2.129233e-05,6,1
-0.0004306693,1.808955e-05,6,1
-0.0004935506,5.066468e-05,6,1
-0.000559025,5.730935e-05,6,1
-0.0006103997,3.494434e-05,6,1
-0.0006296854,-3.465141e-06,6,1
-0.0006125065,-3.847125e-05,6,1
-0.0005661559,-5.483985e-05,6,1
-0.0004995471,-4.689865e-05,6,1
-0.0004146248,-2.080613e-05,6,1
-0.0003156029,1.257933e-05,6,1
-0.0002180396,4.385793e-05,6,1
-0.0001408965,6.816773e-05,6,1
-9.875954e-05,8.84259e-05,6,1
-9.875954e-05,0.0001107909,6,1
-0.0001399241,0.0001402868,6,1
-0.0002122053,0.0001769136,6,1
-0.0002945344,0.0002115956,6,1
-0.0003572537,0.0002362295,6,1
-0.0003698948,0.0002488706,6,1
-0.0003199787,0.0002519498,6,1
-0.0002250084,0.0002553532,6,1
-0.0001308485,0.000267346,6,1
-8.417367e-05,0.0002900352,6,1
-0.0001092938,0.0003180725,6,1
-0.0001887058,0.0003410858,6,1
-0.0002780038,0.0003559958,6,1
-0.0003311612,0.0003658818,6,1
-0.0003350507,0.0003749574,6,1
-0.0003118754,0.0003841952,6,1
-0.0002945344,0.0003913261,6,1
-0.0002974516,0.0003944053,6,1
-0.0003089583,0.0003905157,6,1
-0.0003118754,0.0003790091,6,1
-0.0002946965,0.0003581026,6,1
-0.0002491561,0.0003219621,6,1
-0.0001737958,0.0002689667,6,1
-7.60704e-05,0.0002010613,6,1
3.332369e-05,0.000128294,6,1
0.0001508211,6.184718e-05,6,1
0.0002743149,6.096713e-06,6,1
0.0003981328,-4.041603e-05,6,1
0.0005114165,-8.384954e-05,6,1
0.0005965008,-0.0001295519,6,1
0.0006446343,-0.0001794681,6,1
0.0006725095,-0.0002280877,6,1
0.0007146465,-0.000268766,6,1
0.0007921138,-0.0002989102,6,1
0.0008925945,-0.0003193304,6,1
0.0009852959,-0.0003287302,6,1
0.001033591,-0.0003225718,6,1
0.001011713,-0.000300855,6,1
0.000908801,-0.0002677937,6,1
0.0007318255,-0.0002293842,6,1
0.0005057442,-0.0001984297,6,1
0.0002688046,-0.0001875713,6,1
5.779555e-05,-0.0002005366,6,1
-0.000104756,-0.000231329,6,1
-0.0002201465,-0.0002681178,6,1
-0.0003005308,-0.0002979378,6,1
-0.0003577399,-0.000318358,6,1
-0.0003989045,-0.0003326198,6,1
-0.0004261314,-0.0003434782,6,1
-0.0004441207,-0.0003499608,6,1
-0.0004565997,-0.0003462333,6,1
-0.0004648651,-0.0003259751,6,1
-0.0004608134,-0.0002836761,6,1
-0.0004390967,-0.000221605,6,1
-0.0004045768,-0.0001496481,6,1
-0.0003673017,-8.174268e-05,6,1
-0.0003403989,-2.696461e-05,6,1
-0.0003243544,1.322759e-05,6,1
-0.0003131719,4.547859e-05,6,1
-0.0003003688,7.610894e-05,6,1
-0.0002776796,0.000105929,6,1
-0.0002400805,0.000133318,6,1
-0.0001823853,0.0001543865,6,1
-0.000107349,0.000168162,6,1
-2.015787e-05,0.0001801549,6,1
7.546067e-05,0.0001966855,6,1
0.0001647587,0.0002206712,6,1
0.0002281262,0.0002477361,6,1
0.0002547049,0.0002731804,6,1
0.0002538946,0.0002939248,6,1
0.000252274,0.0003091589,6,1
0.000272208,0.0003200173,6,1
0.000309483,0.0003282826,6,1
0.0003352514,0.0003323342,6,1
0.0003227724,0.0003331446,6,1
0.0002641047,0.0003320101,6,1
0.0001694586,0.0003313618,6,1
5.19612e-05,0.0003339549,6,1
-7.65566e-05,0.0003402755,6,1
-0.0002019951,0.000349027,6,1
-0.0003100927,0.0003535648,6,1
-0.0003810773,0.0003470822,6,1
-0.0004014975,0.000324231,6,1
-0.0003710293,0.0002905214,6,1
-0.0003013411,0.0002517878,6,1
-0.0002018331,0.0002140265,6,1
-7.33153e-05,0.0001845306,6,1
8.161915e-05,0.0001649207,6,1
0.0002427121,0.0001504969,6,1
0.0003773884,0.0001375317,6,1
0.0004566384,0.0001239182,6,1
0.0004692795,0.0001069013,6,1
0.0004310321,8.275361e-05,6,1
0.0003700955,5.1475e-05,6,1
0.0003226103,1.889987e-05,6,1
0.0003161277,-1.108221e-05,6,1
0.0003668542,-3.733679e-05,6,1
0.0004691174,-5.905355e-05,6,1
0.000596825,-7.250496e-05,6,1
0.0007071915,-7.785312e-05,6,1
0.0007562974,-7.493595e-05,6,1
0.0007204809,-6.634648e-05,6,1
0.0006081695,-5.548811e-05,6,1
0.000450804,-4.884343e-05,6,1
0.0002960316,-5.192267e-05,6,1
0.0001884202,-6.877746e-05,6,1
0.0001448246,-9.568031e-05,6,1
0.0001469315,-0.0001224211,6,1
0.0001689724,-0.0001415448,6,1
0.0002034923,-0.0001493239,6,1
0.0002504913,-0.0001504584,6,1
0.0002950592,-0.0001480274,6,1
0.0003101313,-0.0001483515,6,1
0.0002827423,-0.0001496481,6,1
0.0002086784,-0.0001528894,6,1
8.810177e-05,-0.0001567789,6,1
-6.748094e-05,-0.0001605064,6,1
-0.0002345703,-0.0001629374,6,1
-0.0003810773,-0.0001642339,6,1
-0.0004760476,-0.0001663408,6,1
-0.0004988988,-0.0001739578,6,1
-0.0004481723,-0.0001888679,6,1
-0.0003468815,-0.0002071812,6,1
-0.0002423494,-0.0002279256,6,1
-0.0001861127,-0.0002451045,6,1
-0.0002088019,-0.0002514251,6,1
-0.0003044204,-0.0002481838,6,1
-0.0004397449,-0.0002400805,6,1
-0.0005697213,-0.000231491,6,1
-0.0006603158,-0.0002235498,6,1
-0.0007032631,-0.0002149604,6,1
-0.0007099077,-0.000206695,6,1
-0.0006985632,-0.0001972953,6,1
-0.000685598,-0.0001888679,6,1
-0.0006711741,-0.000179306,6,1
-0.0006488092,-0.0001686097,6,1
-0.0006188271,-0.0001579134,6,1
-0.0005846313,-0.000149486,6,1
-0.0005450874,-0.0001421931,6,1
-0.0005000332,-0.0001340898,6,1
-0.0004460655,-0.0001248521,6,1
-0.0003791325,-0.0001146419,6,1
-0.0003039342,-0.0001013526,6,1
-0.0002352185,-8.158062e-05,6,1
-0.0001844921,-5.435365e-05,6,1
-0.0001485136,-2.161646e-05,6,1
-0.0001195039,1.322759e-05,6,1
-8.725291e-05,4.596478e-05,6,1
-5.240886e-05,7.059871e-05,6,1
-1.950961e-05,8.648112e-05,6,1
1.97102e-05,9.490851e-05,6,1
8.939829e-05,9.896015e-05,6,1
0.0002218057,0.0001051186,6,1
0.0004313562,0.0001167873,6,1
0.0006802886,0.0001320215,6,1
0.0008981046,0.0001475797,6,1
0.001017061,0.0001616794,6,1
0.001005716,0.0001709172,6,1
0.0008797912,0.0001728619,6,1
0.0006825576,0.0001726999,6,1
0.0004623107,0.0001767515,6,1
0.0002584324,0.000187934,6,1
0.0001012291,0.0002091646,6,1
1.014835e-05,0.0002363916,6,1
-7.678839e-06,0.0002655633,6,1
4.337174e-05,0.0002864697,6,1
0.0001399627,0.0002874421,6,1
0.0002478982,0.0002636185,6,1
0.000341572,0.0002172679,6,1
0.0004096394,0.0001584381,6,1
0.0004535592,9.863601e-05,6,1
0.0004785172,4.337174e-05,6,1
0.0005008822,-4.761664e-06,6,1
0.0005352402,-4.284701e-05,6,1
0.0005874252,-6.748094e-05,6,1
0.0006524134,-7.882551e-05,6,1
0.0007138362,-8.384954e-05,6,1
0.000740577,-8.336335e-05,6,1
0.0006989262,-7.428769e-05,6,1
0.0005747841,-5.791909e-05,6,1
0.0003880847,-3.620233e-05,6,1
0.0001842065,-1.3027e-05,6,1
6.420843e-06,1.160693e-05,6,1
-0.0001267968,4.110282e-05,6,1
-0.0002232257,7.254349e-05,6,1
-0.000303448,0.0001012291,6,1
-0.0003882082,0.0001244044,6,1
-0.0004893369,0.0001370455,6,1
-0.0006050515,0.0001389903,6,1
-0.0007249799,0.0001342904,6,1
-0.0008364808,0.0001247285,6,1
-0.0009144342,0.0001103047,6,1
-0.0009374474,9.16672e-05,6,1
-0.0008972552,7.286763e-05,6,1
-0.0007987196,5.504044e-05,6,1
-0.0006651777,3.429608e-05,6,1
-0.0005238568,6.90704e-06,6,1
-0.000405063,-2.745081e-05,6,1
-0.000333106,-6.81292e-05,6,1
-0.0003224097,-0.0001112386,6,1
-0.0003715154,-0.0001571031,6,1
-0.0004608134,-0.0002094502,6,1
-0.0005572423,-0.000266173,6,1
-0.0006230408,-0.0003177098,6,1
-0.0006283889,-0.0003515814,6,1
-0.0005648594,-0.0003609812,6,1
-0.0004486585,-0.0003441264,6,1
-0.000313334,-0.0003002067,6,1
-0.0001924333,-0.0002303566,6,1
-0.0001041077,-0.0001399241,6,1
-5.32192e-05,-4.317115e-05,6,1
-3.312309e-05,4.256141e-05,6,1
-1.853722e-05,0.0001051186,6,1
2.570662e-05,0.0001474177,6,1
0.0001130598,0.0001835583,6,1
0.0002172679,0.0002239125,6,1
0.0002953834,0.0002701012,6,1
0.0003156415,0.0003136967,6,1
0.0002764217,0.0003470822,6,1
0.0002081922,0.0003676645,6,1
0.0001527658,0.0003702575,6,1
0.0001354248,0.0003472443,6,1
0.000158114,0.0002948972,6,1
0.0002005751,0.0002128921,6,1
0.0002334744,0.0001057669,6,1
0.0002368777,-1.869928e-05,6,1
0.0002059233,-0.0001577513,6,1
0.0001462832,-0.0003089583,6,1
7.221937e-05,-0.0004648651,6,1
6.096713e-06,-0.0006125065,6,1
-2.89094e-05,-0.0007392416,6,1
-3.117831e-05,-0.0008381014,6,1
-1.335113e-05,-0.0009045482,6,1
1.695509e-05,-0.0009327476,6,1
6.930219e-05,-0.0009147583,6,1
0.0001522796,-0.0008432875,6,1
0.0002589186,-0.0007210903,6,1
0.0003692851,-0.0005575664,6,1
0.0004687933,-0.0003723258,6,1
0.0005561466,-0.0001882196,6,1
0.0006308587,-2.84232e-05,6,1
0.0006906608,9.328786e-05,6,1
0.000728098,0.0001803169,6,1
0.0007336082,0.0002441707,6,1
0.0006989262,0.0002948972,6,1
0.0006234037,0.0003381686,6,1
0.0005120648,0.0003702575,6,1
0.0003757678,0.000383871,6,1
0.0002237505,0.0003793332,6,1
6.41161e-05,0.0003650715,6,1
-9.308726e-05,0.0003499994,6,1
-0.0002353806,0.0003412479,6,1
-0.0003517435,0.0003378445,6,1
-0.0004311555,0.0003331446,6,1
-0.0004640547,0.0003203414,6,1
-0.0004489826,0.0002971661,6,1
-0.0003971218,0.0002634565,6,1
-0.0003309991,0.0002222919,6,1
-0.0002733039,0.0001814514,6,1
-0.0002452666,0.0001508211,6,1
-0.0002566112,0.0001396385,6,1
-0.0003062031,0.0001509831,6,1
-0.0003838324,0.0001796687,6,1
-0.0004676201,0.00021273,6,1
-0.0005339049,0.0002365536,6,1
-0.0005574043,0.0002419018,6,1
-0.0005204534,0.0002308813,6,1
-0.0004152731,0.0002111094,6,1
-0.0002540181,0.0001900409,6,1
-6.991193e-05,0.0001699448,6,1
0.0001012291,0.0001480659,6,1
0.0002347709,0.0001235941,6,1
0.0003141829,9.63671e-05,6,1
0.0003373583,7.335383e-05,6,1
0.0003125623,5.925414e-05,6,1
0.0002579462,5.552663e-05,6,1
0.000192796,6.087479e-05,6,1
0.0001271595,7.870197e-05,6,1
5.260946e-05,0.0001005808,6,1
-3.701266e-05,0.0001156529,6,1
-0.0001376552,0.0001158149,6,1
-0.000228898,0.0001067393,6,1
-0.0002862691,9.960841e-05,6,1
-0.000293562,0.0001030118,6,1
-0.0002551526,0.0001177597,6,1
-0.0001895161,0.000140773,6,1
-0.0001175591,0.0001654069,6,1
-6.553616e-05,0.0001798307,6,1
-5.516398e-05,0.0001765894,6,1
-8.336335e-05,0.0001495245,6,1
-0.0001199901,9.896015e-05,6,1
-0.0001217728,3.478228e-05,6,1
-5.872941e-05,-3.085418e-05,6,1
7.367795e-05,-8.417367e-05,6,1
0.0002658874,-0.0001180453,6,1
0.0004918066,-0.0001292278,6,1
0.0007138362,-0.0001143178,6,1
0.0008840049,-7.671866e-05,6,1
0.0009643894,-2.728874e-05,6,1
0.0009488311,2.230325e-05,6,1
0.000859371,6.184718e-05,6,1
0.0007345806,8.680524e-05,6,1
0.0006140039,0.0001026876,6,1
0.0005227611,0.0001185701,6,1
0.000465552,0.0001352628,6,1
0.0004276287,0.000145635,6,1
0.0003832228,0.0001367214,6,1
0.0003062417,0.0001044704,6,1
0.0001845306,5.747142e-05,6,1
2.586868e-05,7.717366e-06,6,1
-0.0001353863,-3.296103e-05,6,1
-0.0002483458,-5.629844e-05,6,1
-0.0002817312,-6.342931e-05,6,1
-0.0002295462,-6.407757e-05,6,1
-0.0001151281,-6.699475e-05,6,1
1.322759e-05,-7.461182e-05,6,1
9.847395e-05,-8.287715e-05,6,1
0.0001069013,-8.935975e-05,6,1
4.790957e-05,-8.935975e-05,6,1
-4.187462e-05,-8.190475e-05,6,1
-0.0001251762,-6.197072e-05,6,1
-0.000184168,-2.696461e-05,6,1
-0.0002250084,1.727922e-05,6,1
-0.0002642282,6.071273e-05,6,1
-0.0003165753,9.101894e-05,6,1
-0.0003848048,0.0001028497,6,1
-0.0004587066,0.000101067,6,1
-0.0005253154,9.118101e-05,6,1
-0.0005724764,7.918817e-05,6,1
-0.0005896553,7.140904e-05,6,1
-0.0005768522,7.221937e-05,6,1
-0.0005395772,8.259155e-05,6,1
-0.0004903093,9.831188e-05,6,1
-0.0004413656,0.0001080358,6,1
-0.0003998769,0.0001031738,6,1
-0.0003685983,8.080883e-05,6,1
-0.0003472056,4.709924e-05,6,1
-0.0003316474,1.403791e-05,6,1
-0.0003156029,-1.108221e-05,6,1
-0.0003002067,-2.874733e-05,6,1
-0.0002927517,-4.268495e-05,6,1
-0.0002998826,-5.970181e-05,6,1
-0.0003201407,-8.530812e-05,6,1
-0.0003476919,-0.0001214487,6,1
-0.0003668155,-0.0001608306,6,1
-0.0003601709,-0.0001979435,6,1
-0.0003172236,-0.000228898,6,1
-0.0002400805,-0.0002535319,6,1
-0.0001478653,-0.0002721694,6,1
-7.088431e-05,-0.0002840002,6,1
-3.053005e-05,-0.0002890242,6,1
-3.085418e-05,-0.0002825416,6,1
-6.699475e-05,-0.0002640662,6,1
-0.000134738,-0.0002358668,6,1
-0.0002287359,-0.000199078,6,1
-0.0003326198,-0.0001665028,6,1
-0.0004220798,-0.0001491618,6,1
-0.0004789647,-0.0001535376,6,1
-0.0004966299,-0.0001733096,6,1
-0.0004752372,-0.000201509,6,1
-0.0004198109,-0.0002305186,6,1
-0.0003403989,-0.0002532078,6,1
-0.0002468872,-0.0002647144,6,1
-0.0001426792,-0.000263742,6,1
-2.372331e-05,-0.0002501286,6,1
0.0001083599,-0.0002266291,6,1
0.0002431983,-0.000204102,6,1
0.0003608578,-0.0001864369,6,1
0.0004328148,-0.0001726613,6,1
0.0004397836,-0.0001603444,6,1
0.0003754436,-0.000144462,6,1
0.0002611876,-0.0001229073,6,1
0.0001479039,-9.746302e-05,6,1
9.053275e-05,-7.752899e-05,6,1
0.0001205148,-6.861539e-05,6,1
0.0002310434,-6.683268e-05,6,1
0.0003825745,-6.48879e-05,6,1
0.0005164405,-5.905355e-05,6,1
0.0005830494,-4.884343e-05,6,1
0.000567167,-3.296103e-05,6,1
0.0004874308,-1.351319e-05,6,1
0.0003846814,6.90704e-06,6,1
0.000304297,2.651694e-05,6,1
0.0002803113,4.709924e-05,6,1
0.0003213138,7.108491e-05,6,1
0.0004028327,9.63671e-05,6,1
0.0004963444,0.0001205148,6,1
0.0005903424,0.0001373696,6,1
0.0006789921,0.0001459591,6,1
0.0007464114,0.0001493625,6,1
0.0007634282,0.0001514693,6,1
0.0007112432,0.00015309,6,1
0.0005960147,0.0001590864,6,1
0.0004394595,0.0001731861,6,1
0.0002662116,0.0001947408,6,1
9.831188e-05,0.0002192126,6,1
-4.544006e-05,0.0002368777,6,1
-0.0001485136,0.000242388,6,1
-0.0001934057,0.0002323399,6,1
-0.0001747682,0.0002090025,6,1
-9.713889e-05,0.000175455,6,1
3.267542e-05,0.000130725,6,1
0.0002094887,7.610894e-05,6,1
0.0004140152,2.01964e-05,6,1
0.0006219451,-2.242678e-05,6,1
0.0008068618,-3.506788e-05,6,1
0.0009476967,-1.480971e-05,6,1
0.001028243,2.910999e-05,6,1
0.001031971,7.90261e-05,6,1
0.0009525587,0.0001232699,6,1
0.0008005413,0.0001513072,6,1
0.0006076833,0.0001616794,6,1
0.0004146635,0.0001597346,6,1
0.000252436,0.0001548727,6,1
0.0001294284,0.0001561692,6,1
2.667901e-05,0.0001658931,6,1
-9.19528e-05,0.0001798307,6,1
-0.0002525595,0.0001893926,6,1
-0.000449793,0.0001918236,6,1
-0.0006437852,0.0001822617,6,1
-0.000787375,0.0001613553,6,1
-0.0008531735,0.0001342904,6,1
-0.0008507425,0.0001093323,6,1
-0.0008183295,9.426025e-05,6,1
-0.0007969369,9.296373e-05,6,1
-0.0008029332,0.0001046324,6,1
-0.0008338877,0.0001216493,6,1
-0.0008719731,0.0001354248,6,1
-0.0008932036,0.0001417454,6,1
-0.0008844521,0.0001362352,6,1
-0.000849608,0.0001187321,6,1
-0.0008095779,8.891209e-05,6,1
-0.0007860785,4.969229e-05,6,1
-0.0007911025,9.013889e-06,6,1
-0.0008214086,-2.583016e-05,6,1
-0.0008552803,-5.013995e-05,6,1
-0.0008735937,-6.504996e-05,6,1
-0.0008641939,-7.380149e-05,6,1
-0.0008287016,-8.384954e-05,6,1
-0.0007778131,-9.568031e-05,6,1
-0.0007149318,-0.0001029732,6,1
-0.0006279027,-9.389759e-05,6,1
-0.0004967919,-6.634648e-05,6,1
-0.0003047445,-2.615429e-05,6,1
-4.544006e-05,1.954813e-05,6,1
0.0002691288,6.525056e-05,6,1
0.0005979594,0.000105929,6,1
0.0008903255,0.0001347766,6,1
0.001095338,0.0001435281,6,1
0.001182854,0.0001297526,6,1
0.001157734,9.863601e-05,6,1
0.00104996,6.184718e-05,6,1
0.0008981046,2.748934e-05,6,1
0.0007318255,-4.113403e-06,6,1
0.000564574,-3.911951e-05,6,1
0.0004016982,-8.40116e-05,6,1
0.0002530843,-0.0001408965,6,1
0.0001291043,-0.0002026434,6,1
3.769945e-05,-0.0002580697,6,1
-1.886135e-05,-0.0003002067,6,1
-4.511593e-05,-0.0003308371,6,1
-5.305713e-05,-0.000355633,6,1
-6.310517e-05,-0.0003854531,6,1
-9.081835e-05,-0.0004287245,6,1
-0.0001357104,-0.0004851232,6,1
-0.0001810887,-0.0005484907,6,1
-0.0001981056,-0.000608617,6,1
-0.0001650443,-0.0006530228,6,1
-7.574627e-05,-0.0006768464,6,1
7.092284e-05,-0.0006818705,6,1
0.0002733424,-0.0006687432,6,1
0.0005221128,-0.0006351956,6,1
0.0007977861,-0.0005794452,6,1
0.001065518,-0.0005057055,6,1
0.001278959,-0.0004159214,6,1
0.001393053,-0.0003144685,6,1
0.001378143,-0.0002036158,6,1
0.001238118,-8.692878e-05,6,1
0.001022085,2.586868e-05,6,1
0.000807348,0.0001263492,6,1
0.0006569512,0.0002107852,6,1
0.000589532,0.0002762596,6,1
0.0005811046,0.0003253654,6,1
0.0005885597,0.0003582647,6,1
0.0005699221,0.0003780367,6,1
0.0005021787,0.0003903536,6,1
0.0003927847,0.0003984569,6,1
0.0002730183,0.0004007258,6,1
0.0001744826,0.0003987811,6,1
0.000105929,0.0004008879,6,1
4.061663e-05,0.0004136911,6,1
-5.791909e-05,0.0004401077,6,1
-0.0002078295,0.000475438,6,1
-0.0004019837,0.00051012,6,1
-0.0006058619,0.0005368608,6,1
-0.0007779752,0.0005499881,6,1
-0.0008946622,0.0005462606,6,1
-0.0009531678,0.0005276231,6,1
-0.0009742362,0.0004984512,6,1
-0.0009789361,0.0004653899,6,1
-0.000976019,0.0004328148,6,1
-0.0009643502,0.0004026706,6,1
-0.0009403646,0.0003709058,6,1
-0.0009084377,0.0003248792,6,1
-0.0008737558,0.0002608634,6,1
-0.0008436117,0.000185341,6,1
-0.0008191398,0.0001128978,6,1
-0.0007996919,6.168512e-05,6,1
-0.0007864026,4.191315e-05,6,1
-0.0007768407,5.260946e-05,6,1
-0.0007674409,8.453633e-05,6,1
-0.0007518827,0.0001263492,6,1
-0.0007194696,0.0001665414,6,1
-0.0006635571,0.0001992786,6,1
-0.0005927345,0.0002211574,6,1
-0.0005259637,0.0002303951,6,1
-0.0004760476,0.0002222919,6,1
-0.0004471999,0.0001947408,6,1
-0.0004329382,0.0001527658,6,1
-0.0004254832,0.0001020394,6,1
-0.0004206212,4.709924e-05,6,1
-0.0004147869,-1.124428e-05,6,1
-0.0004031182,-7.461182e-05,6,1
-0.0003848048,-0.0001438137,6,1
-0.000365357,-0.0002180396,6,1
-0.0003583881,-0.0002927517,6,1
-0.0003687603,-0.0003632501,6,1
-0.0003861013,-0.0004251591,6,1
-0.0003882082,-0.0004779923,6,1
-0.0003598467,-0.0005211017,6,1
-0.0003044204,-0.0005527044,6,1
-0.0002405667,-0.0005724764,6,1
-0.0001833576,-0.000578797,6,1
-0.0001349001,-0.000571504,6,1
-9.2439e-05,-0.0005520562,6,1
-6.375344e-05,-0.0005235327,6,1
-6.359137e-05,-0.0004935506,6,1
-8.919769e-05,-0.0004703753,6,1
-0.0001224211,-0.0004567618,6,1
-0.0001399241,-0.0004528722,6,1
-0.0001227452,-0.0004528722,6,1
-6.035007e-05,-0.0004512515,6,1
3.332369e-05,-0.000444931,6,1
0.0001266733,-0.0004313175,6,1
0.0001918236,-0.0004049009,6,1
0.0002203471,-0.0003590364,6,1
0.00022764,-0.0002917793,6,1
0.000234933,-0.0002060468,6,1
0.0002655633,-0.0001136696,6,1
0.0003307136,-2.84232e-05,6,1
0.0004315182,3.753739e-05,6,1
0.0005587396,8.04847e-05,6,1
0.0006872575,0.000108522,6,1
0.0007783383,0.0001274836,6,1
0.0008005413,0.0001451488,6,1
0.0007441425,0.000170593,6,1
0.0006353966,0.0002111094,6,1
0.0005219508,0.0002670219,6,1
0.0004459421,0.0003326584,6,1
0.0004232529,0.0004021844,6,1
0.0004410801,0.0004676588,6,1
0.0004840274,0.0005224369,6,1
0.000537347,0.0005652222,6,1
0.0005908285,0.0005976353,6,1
0.0006329655,0.0006209727,6,1
0.0006525755,0.0006349103,6,1
0.000643986,0.0006407447,6,1
0.0006073592,0.0006402585,6,1
0.0005488536,0.0006355586,6,1
0.0004799758,0.000624214,6,1
0.0004179048,0.0006078454,6,1
0.0003814401,0.0005864528,6,1
0.0003759298,0.0005579292,6,1
0.0003952156,0.0005159543,6,1
0.0004334631,0.0004493454,6,1
0.0004799758,0.0003597233,6,1
0.0005297299,0.0002631324,6,1
0.0005867769,0.0001830721,6,1
0.0006460929,0.0001299146,6,1
0.0006895264,9.977047e-05,6,1
0.0006916333,8.648112e-05,6,1
0.0006321552,8.486046e-05,6,1
0.0005005581,9.134307e-05,6,1
0.0002992729,9.620504e-05,6,1
5.56887e-05,8.907416e-05,6,1
-0.0001820611,6.03886e-05,6,1
-0.0003609812,1.12828e-05,6,1
-0.0004541688,-5.354332e-05,6,1
-0.0004659995,-0.0001287416,6,1
-0.0004243487,-0.0002100984,6,1
-0.0003617915,-0.0002942103,6,1
-0.0003131719,-0.0003762153,6,1
-0.0003006929,-0.0004562756,6,1
-0.0003219235,-0.0005296912,6,1
-0.0003627639,-0.0005857658,6,1
-0.0004096008,-0.0006107238,6,1
-0.0004491447,-0.0005997034,6,1
-0.0004736166,-0.000556594,6,1
-0.0004812336,-0.0005013297,6,1
-0.000464703,-0.0004565997,6,1
-0.0004181903,-0.000432452,6,1
-0.0003449367,-0.0004232143,6,1
-0.0002632558,-0.0004178661,6,1
-0.0002070192,-0.0004036044,6,1
-0.0002039399,-0.0003713534,6,1
-0.000261311,-0.0003177098,6,1
-0.0003559572,-0.0002493182,6,1
-0.0004509274,-0.0001788198,6,1
-0.000514295,-0.0001203142,6,1
-0.0005301774,-8.093236e-05,6,1
-0.0004940368,-6.002594e-05,6,1
-0.0004105732,-5.305713e-05,6,1
-0.0002937241,-5.727083e-05,6,1
-0.000159534,-7.720486e-05,6,1
-2.874733e-05,-0.0001143178,6,1
7.546067e-05,-0.0001660166,6,1
0.0001373696,-0.0002198223,6,1
0.0001542244,-0.0002621213,6,1
0.0001365593,-0.000278652,6,1
0.0001086841,-0.0002621213,6,1
0.0001009049,-0.0002146363,6,1
0.0001355869,-0.0001475412,6,1
0.0002107852,-7.55842e-05,6,1
0.000297004,-9.461558e-06,6,1
0.0003587509,4.175109e-05,6,1
0.0003736609,6.606088e-05,6,1
0.0003452995,5.828175e-05,6,1
0.0003010556,2.684107e-05,6,1
0.0002812837,-1.140634e-05,6,1
0.0003177483,-3.928157e-05,6,1
0.0004136911,-4.203669e-05,6,1
0.0005504743,-1.20546e-05,6,1
0.0007003848,4.483033e-05,6,1
0.0008379783,0.0001187321,6,1
0.0009442933,0.0001958752,6,1
0.001007661,0.0002619979,6,1
0.001024678,0.0003073762,6,1
0.0009984232,0.0003320101,6,1
0.0009429968,0.0003412479,6,1
0.0008771982,0.0003420582,6,1
0.0008055653,0.0003370341,6,1
0.0007104329,0.0003247172,6,1
0.0005734875,0.0003080245,6,1
0.000411098,0.0002874421,6,1
0.0002705873,0.000259729,6,1
0.0001961994,0.0002248849,6,1
0.0002051129,0.0001863134,6,1
0.0002863077,0.0001488763,6,1
0.000406074,0.0001211631,6,1
0.0005251921,0.0001114392,6,1
0.0006107626,0.0001226217,6,1
0.0006462549,0.0001516314,6,1
0.000634262,0.0001898788,6,1
0.0005885597,0.0002271538,6,1
0.0005046097,0.0002551911,6,1
0.000356482,0.0002705873,6,1
0.000121001,0.0002726942,6,1
-0.0001981056,0.0002589186,6,1
-0.0005616181,0.0002292607,6,1
-0.0009094102,0.0001869616,6,1
-0.001182004,0.0001342904,6,1
-0.001341638,8.145709e-05,6,1
-0.001385558,3.786152e-05,6,1
-0.001338073,8.203562e-06,6,1
-0.001240996,-5.57199e-06,6,1
-0.001131764,-5.247859e-06,6,1
-0.00103339,3.503668e-06,6,1
-0.0009559229,1.387585e-05,6,1
-0.0009011448,2.068259e-05,6,1
-0.0008674352,2.197911e-05,6,1
-0.0008586837,1.565857e-05,6,1
-0.0008795901,7.485573e-07,6,1
-0.0009210788,-2.226472e-05,6,1
-0.0009688881,-4.965376e-05,6,1
-0.001005677,-7.736692e-05,6,1
-0.00102237,-0.0001010285,6,1
-0.001016211,-0.0001164247,6,1
-0.0009854188,-0.00012469,6,1
-0.0009270753,-0.0001284175,6,1
-0.0008351842,-0.0001267968,6,1
-0.0007032631,-0.0001178833,6,1
-0.0005235327,-0.0001037836,6,1
-0.0002854588,-9.162867e-05,6,1
-5.57199e-06,-8.628052e-05,6,1
0.0002611876,-8.952183e-05,6,1
0.0004467524,-0.0001002181,6,1
0.000507689,-0.0001112386,6,1
0.0004443214,-0.0001173971,6,1
0.000307052,-0.0001156143,6,1
0.000160707,-0.000107349,6,1
5.341979e-05,-9.66527e-05,6,1
2.693341e-06,-8.82253e-05,6,1
-5.89612e-06,-8.44978e-05,6,1
-3.14101e-06,-8.465986e-05,6,1
-1.043395e-05,-9.211487e-05,6,1
-3.701266e-05,-0.0001036215,6,1
-8.595638e-05,-0.0001138316,6,1
-0.000152079,-0.0001165867,6,1
-0.0002193361,-0.0001086455,6,1
-0.0002708729,-9.146661e-05,6,1
-0.000295993,-7.072225e-05,6,1
-0.0002925897,-5.565017e-05,6,1
-0.0002664971,-5.062615e-05,6,1
-0.0002212809,-5.127441e-05,6,1
-0.0001653684,-5.127441e-05,6,1
-0.0001135075,-3.960571e-05,6,1
-7.785312e-05,-1.173047e-05,6,1
-6.132246e-05,2.603075e-05,6,1
-5.986387e-05,6.622294e-05,6,1
-6.715681e-05,0.0001070634,6,1
-7.412562e-05,0.0001477418,6,1
-7.007399e-05,0.000187934,6,1
-5.532604e-05,0.0002232643,6,1
-3.490581e-05,0.0002511395,6,1
-1.416145e-05,0.0002665357,6,1
1.079661e-05,0.0002676702,6,1
4.288554e-05,0.0002534084,6,1
7.935024e-05,0.0002245608,6,1
0.0001054428,0.0001825859,6,1
0.0001046324,0.0001305629,6,1
6.78436e-05,7.416415e-05,6,1
-4.437533e-06,1.614476e-05,6,1
-9.584238e-05,-4.300908e-05,6,1
-0.0001789819,-0.0001042698,6,1
-0.0002188499,-0.0001656925,6,1
-0.0001976194,-0.0002198223,6,1
-0.0001092938,-0.0002596904,6,1
4.645098e-05,-0.000281083,6,1
0.0002636185,-0.0002723315,6,1
0.0005114165,-0.0002284118,6,1
0.0007413874,-0.0001574272,6,1
0.0008955116,-7.347736e-05,6,1
0.0009324626,5.610517e-06,6,1
0.0008486747,6.881599e-05,6,1
0.0006747784,0.0001104668,6,1
0.0004662003,0.0001341283,6,1
0.0002744769,0.000145797,6,1
0.0001305629,0.0001516314,6,1
3.624086e-05,0.0001548727,6,1
-2.745081e-05,0.0001566554,6,1
-9.227693e-05,0.0001603829,6,1
-0.0001786577,0.0001696206,6,1
-0.0002911311,0.0001859892,6,1
-0.00041268,0.0002031682,6,1
-0.0005141329,0.0002122438,6,1
-0.0005757177,0.0002117576,6,1
-0.0005896553,0.0002044647,6,1
-0.0005653456,0.0001931201,6,1
-0.0005275843,0.0001743205,6,1
-0.0004985746,0.0001425557,6,1
-0.0004826922,0.0001007429,6,1
-0.0004703753,5.390598e-05,6,1
-0.000437314,7.069105e-06,6,1
-0.000358064,-4.300908e-05,6,1
-0.0002305186,-0.0001011905,6,1
-7.623246e-05,-0.0001681235,6,1
8.210535e-05,-0.0002379736,6,1
0.0002446569,-0.0003015032,6,1
0.0004269804,-0.0003499608,6,1
0.0006491721,-0.0003796187,6,1
0.0009139871,-0.0003929081,6,1
0.001191767,-0.0003967976,6,1
0.00142968,-0.000390315,6,1
0.001584939,-0.0003728119,6,1
0.001639879,-0.000350609,6,1
0.001605683,-0.0003313232,6,1
0.001518492,-0.0003136581,6,1
0.001418497,-0.0002882139,6,1
0.001325634,-0.0002496423,6,1
0.001241522,-0.0001997262,6,1
0.001166485,-0.0001417068,6,1
0.00109939,-8.320128e-05,6,1
0.001030188,-3.117831e-05,6,1
0.0009400796,6.90704e-06,6,1
0.0008138306,2.943412e-05,6,1
0.0006525755,4.531652e-05,6,1
0.0004759242,6.119892e-05,6,1
0.0003117519,8.275361e-05,6,1
0.0001788584,0.000108522,6,1
8.016057e-05,0.0001336421,6,1
8.365628e-06,0.0001498487,6,1
-4.819517e-05,0.0001551968,6,1
-0.0001024871,0.0001548727,6,1
-0.0001588858,0.0001550348,6,1
-0.0002138259,0.0001587623,6,1
-0.0002634179,0.0001649207,6,1
-0.0003042584,0.0001725378,6,1
-0.000338292,0.0001772377,6,1
-0.0003645466,0.0001720516,6,1
-0.0003822118,0.0001526038,6,1
-0.0003872358,0.0001226217,6,1
-0.0003763774,9.199134e-05,6,1
-0.000350609,7.108491e-05,6,1
-0.0003173856,6.589881e-05,6,1
-0.0002874036,7.238143e-05,6,1
-0.0002700626,8.04847e-05,6,1
-0.0002664971,8.097089e-05,6,1
-0.0002721694,7.076078e-05,6,1
-0.0002708729,4.953022e-05,6,1
-0.0002556388,2.165498e-05,6,1
-0.0002360289,-2.006553e-06,6,1
-0.000231329,-1.043395e-05,6,1
-0.0002564491,3.017472e-06,6,1
-0.0003190063,3.60788e-05,6,1
-0.0004214316,8.696731e-05,6,1
-0.0005593491,0.0001488763,6,1
-0.000717849,0.0002124059,6,1
-0.0008753765,0.0002730183,6,1
-0.0009988702,0.000331848,6,1
-0.001052676,0.0003924605,6,1
-0.001019128,0.0004585832,6,1
-0.0009154066,0.0005237334,6,1
-0.0007773269,0.0005723531,6,1
-0.0006384369,0.0005882355,6,1
-0.0005209396,0.0005636016,6,1
-0.0004402311,0.0005063924,6,1
-0.0004084663,0.0004345975,6,1
-0.000427428,0.0003613439,6,1
-0.0004762096,0.0002882525,6,1
-0.0005305015,0.0002135403,6,1
-0.0005629146,0.0001393144,6,1
-0.0005582146,6.78436e-05,6,1
-0.0005201293,5.86492e-07,6,1
-0.000459841,-6.553616e-05,6,1
-0.0003831841,-0.0001331174,6,1
-0.0002911311,-0.0002024813,6,1
-0.0001750923,-0.0002668213,6,1
-3.117831e-05,-0.000325651,6,1
0.000123432,-0.0003851289,6,1
0.0002618358,-0.000454817,6,1
0.0003587509,-0.0005340669,6,1
0.0003953777,-0.0006102377,6,1
0.0003668542,-0.0006674466,6,1
0.0002914938,-0.0006966184,6,1
0.0002055991,-0.0006948357,6,1
0.0001462832,-0.0006677708,6,1
0.0001274836,-0.0006214201,6,1
0.0001414213,-0.0005634008,6,1
0.0001697827,-0.000501978,6,1
0.0001892305,-0.0004476861,6,1
0.0001827479,-0.0004094387,6,1
0.0001493625,-0.0003914495,6,1
9.474644e-05,-0.0003869116,6,1
2.959619e-05,-0.0003814014,6,1
-3.231277e-05,-0.0003642225,6,1
-8.158062e-05,-0.0003293785,6,1
-0.0001152902,-0.0002818933,6,1
-0.0001344139,-0.0002301945,6,1
-0.0001365208,-0.0001818991,6,1
-0.0001282554,-0.0001417068,6,1
-0.0001209625,-0.0001105903,6,1
-0.0001245279,-8.725291e-05,6,1
-0.0001478653,-6.48879e-05,6,1
-0.0001896782,-3.701266e-05,6,1
-0.0002436459,-2.168618e-06,6,1
-0.0002951827,3.218923e-05,6,1
-0.000328244,5.909208e-05,6,1
-0.0003305129,7.562274e-05,6,1
-0.0002893484,8.680524e-05,6,1
-0.000184168,0.0001018773,6,1
-3.789272e-06,0.0001244044,6,1
0.000235095,0.0001517934,6,1
0.0004909963,0.0001761032,6,1
0.0007089743,0.0001945787,6,1
0.0008533746,0.0002065715,6,1
0.0009173905,0.0002125679,6,1
0.0009096113,0.0002124059,6,1
0.0008454334,0.0002081922,6,1
0.0007572698,0.0002080301,6,1
0.0006827196,0.0002107852,6,1
0.0006402585,0.0002145127,6,1
0.0006251864,0.0002185644,6,1
0.000624214,0.0002310434,6,1
0.000624052,0.0002600531,6,1
0.0006128695,0.0003041349,6,1
0.0005864528,0.0003493511,6,1
0.000544802,0.0003811159,6,1
0.0004783552,0.0003968363,6,1
0.000373823,0.0003974845,6,1
0.0002297469,0.0003845193,6,1
6.346784e-05,0.0003644232,6,1
-8.644259e-05,0.0003470822,6,1
-0.0001806025,0.0003354135,6,1
-0.0002028055,0.0003229345,6,1
-0.0001726613,0.0003046211,6,1
-0.0001358725,0.0002791768,6,1
-0.0001250141,0.0002483844,6,1
-0.0001467309,0.0002133783,6,1
-0.0001885437,0.0001757791,6,1
-0.0002334358,0.0001360731,6,1
-0.0002773555,0.0001009049,6,1
-0.0003248407,7.643307e-05,6,1
-0.0003750809,6.492643e-05,6,1
-0.0004099249,6.492643e-05,6,1
-0.0004121938,7.157111e-05,6,1
-0.0003836704,7.740546e-05,6,1
-0.0003507711,7.286763e-05,6,1
-0.0003450988,5.423012e-05,6,1
-0.000377836,2.894792e-05,6,1
-0.0004243487,4.313994e-06,6,1
-0.0004465517,-1.853722e-05,6,1
-0.0004117076,-3.960571e-05,6,1
-0.0002966413,-5.710876e-05,6,1
-9.989401e-05,-6.407757e-05,6,1
0.0001487142,-5.743289e-05,6,1
0.0004033189,-4.219875e-05,6,1
0.0006256726,-2.777494e-05,6,1
0.0007917897,-2.485776e-05,6,1
0.0008882187,-3.976777e-05,6,1
0.0009122044,-6.764301e-05,6,1
0.0008658536,-9.794922e-05,6,1
0.0007661834,-0.0001188556,6,1
0.0006400964,-0.0001279313,6,1
0.000497803,-0.0001300382,6,1
0.000329255,-0.0001336036,6,1
0.0001363972,-0.0001475412,6,1
-5.759496e-05,-0.0001661787,6,1
-0.0002188499,-0.000174282,6,1
-0.0003211132,-0.000161965,6,1
-0.0003579019,-0.0001274451,6,1
-0.0003496366,-8.044617e-05,6,1
-0.0003251648,-3.231277e-05,6,1
-0.000301017,1.160693e-05,6,1
-0.0002817312,4.985435e-05,6,1
-0.0002669833,8.42122e-05,6,1
-0.000248832,0.0001143563,6,1
-0.0002217671,0.0001406109,6,1
-0.0001900023,0.0001582761,6,1
-0.0001707166,0.0001574657,6,1
-0.0001814128,0.0001299146,6,1
-0.0002287359,7.254349e-05,6,1
-0.0003000446,-1.318906e-05,6,1
-0.0003747568,-0.0001233935,6,1
-0.0004303451,-0.0002449425,6,1
-0.0004538446,-0.0003645466,6,1
-0.0004434724,-0.0004715097,6,1
-0.0004084663,-0.0005635628,6,1
-0.0003668155,-0.0006407059,6,1
-0.0003319715,-0.0007008321,6,1
-0.0003026377,-0.0007347037,6,1
-0.000273628,-0.000730328,6,1
-0.0002421874,-0.0006760361,6,1
-0.0002099363,-0.0005653456,6,1
-0.0001806025,-0.0004040906,6,1
-0.0001579134,-0.0002172293,6,1
-0.0001430034,-3.312309e-05,6,1
-0.0001352242,0.0001244044,6,1
-0.000127121,0.0002441707,6,1
-0.0001144799,0.000324393,6,1
-9.924574e-05,0.0003709058,6,1
-8.676672e-05,0.0003947294,6,1
-7.850138e-05,0.0004068843,6,1
-6.942573e-05,0.0004107739,6,1
-5.338126e-05,0.0004041292,6,1
-2.955766e-05,0.0003814401,6,1
-6.176923e-08,0.0003427064,6,1
3.040651e-05,0.0002939248,6,1
5.876794e-05,0.0002461155,6,1
8.080883e-05,0.0002070577,6,1
9.004655e-05,0.0001769136,6,1
8.729144e-05,0.0001522796,6,1
7.497447e-05,0.0001300767,6,1
6.006447e-05,0.0001094944,6,1
4.742337e-05,8.729144e-05,6,1
4.126489e-05,5.94162e-05,6,1
4.628891e-05,2.603075e-05,6,1
6.573675e-05,-1.092015e-05,6,1
9.960841e-05,-4.398147e-05,6,1
0.0001388282,-6.764301e-05,6,1
0.0001671896,-8.093236e-05,6,1
0.0001775618,-8.465986e-05,6,1
0.0001833962,-8.125649e-05,6,1
0.0001994406,-6.683268e-05,6,1
0.0002265056,-4.268495e-05,6,1
0.0002436845,-1.221667e-05,6,1
0.00022764,1.906194e-05,6,1
0.0001665414,4.790957e-05,6,1
5.99024e-05,7.546067e-05,6,1
-7.720486e-05,0.0001051186,6,1
-0.0002136638,0.0001334801,6,1
-0.0003112272,0.0001548727,6,1
-0.0003395886,0.0001683241,6,1
-0.0003023136,0.0001728619,6,1
-0.0002332737,0.0001715654,6,1
-0.0001775233,0.0001678379,6,1
-0.0001655305,0.0001662173,6,1
-0.0002019951,0.0001689724,6,1
-0.0002765452,0.0001788584,6,1
-0.0003674638,0.0001902029,6,1
-0.0004525481,0.0001931201,6,1
-0.0005115399,0.0001803169,6,1
-0.0005324463,0.0001519555,6,1
-0.0005100812,0.0001140322,6,1
-0.0004525481,7.011252e-05,6,1
-0.0003750809,1.906194e-05,6,1
-0.0002904828,-3.749886e-05,6,1
-0.0002044261,-8.935975e-05,6,1
-0.0001133454,-0.0001261486,6,1
-1.610624e-05,-0.0001434896,6,1
7.999851e-05,-0.0001460826,6,1
0.0001688103,-0.0001400862,6,1
0.000247412,-0.0001314967,6,1
0.0003255275,-0.0001235555,6,1
0.0004145014,-0.0001177212,6,1
0.0005128751,-0.0001135075,6,1
0.0006054144,-0.0001060525,6,1
0.0006754267,-9.373552e-05,6,1
0.0007235601,-8.02841e-05,6,1
0.0007746107,-7.120844e-05,6,1
0.0008541849,-7.153257e-05,6,1
0.000960824,-8.271508e-05,6,1
0.00106568,-0.0001016767,6,1
0.001119324,-0.0001191798,6,1
0.001077673,-0.0001279313,6,1
0.0009183628,-0.0001282554,6,1
0.0006592202,-0.0001230693,6,1
0.0003652335,-0.0001107524,6,1
0.0001211631,-8.952183e-05,6,1
-2.194059e-05,-6.245691e-05,6,1
-7.18567e-05,-3.328516e-05,6,1
-7.590833e-05,-1.358292e-06,6,1
-7.299116e-05,3.121684e-05,6,1
-7.137051e-05,6.444023e-05,6,1
-5.678463e-05,9.620504e-05,6,1
-2.388537e-05,0.0001265113,6,1
1.144487e-05,0.0001537382,6,1
1.744129e-05,0.0001808031,6,1
-2.777494e-05,0.0002104611,6,1
-0.0001284175,0.0002393087,6,1
-0.0002605007,0.0002581083,6,1
-0.000387884,0.0002631324,6,1
-0.0004807475,0.0002542187,6,1
-0.0005215878,0.0002342847,6,1
-0.0005079744,0.0002065715,6,1
-0.0004609755,0.000173024,6,1
-0.0004183523,0.0001336421,6,1
-0.0004139766,8.46984e-05,6,1
-0.0004493068,2.603075e-05,6,1
-0.0004794509,-3.847125e-05,6,1
-0.0004387725,-0.000102325,6,1
-0.0002749245,-0.0001621271,6,1
9.986281e-06,-0.0002105846,6,1
0.0003673404,-0.0002378116,6,1
0.0007225877,-0.000236353,6,1
0.001007985,-0.0002070192,6,1
0.001188202,-0.0001548341,6,1
0.00125708,-9.098041e-05,6,1
0.001223532,-2.680255e-05,6,1
0.001104738,2.424803e-05,6,1
0.0009222524,5.471631e-05,6,1
0.0007005468,6.346784e-05,6,1
0.0004632831,4.969229e-05,6,1
0.0002315296,1.047248e-05,6,1
2.149292e-05,-5.532604e-05,6,1
-0.0001579134,-0.0001366828,6,1
-0.0002932379,-0.0002138259,6,1
-0.0003750809,-0.0002679557,6,1
-0.0003938804,-0.0002908069,6,1
-0.0003389403,-0.0002887001,6,1
-0.0002118811,-0.0002702246,6,1
-4.025397e-05,-0.0002441321,6,1
0.0001187321,-0.0002156086,6,1
0.0002068957,-0.0001882196,6,1
0.0001996027,-0.0001606685,6,1
0.0001120874,-0.0001327933,6,1
-9.461558e-06,-0.0001063766,6,1
-0.0001084835,-8.352541e-05,6,1
-0.0001340898,-6.602235e-05,6,1
-6.359137e-05,-5.678463e-05,6,1
7.886404e-05,-4.981582e-05,6,1
0.0002376881,-4.171256e-05,6,1
0.0003478926,-3.328516e-05,6,1
0.000371392,-2.356124e-05,6,1
0.000299435,-1.383732e-05,6,1
0.0001495245,-4.275467e-06,6,1
-4.560212e-05,3.503668e-06,6,1
-0.0002515871,8.365628e-06,6,1
-0.0004444448,1.371378e-05,6,1
-0.0006142893,2.522042e-05,6,1
-0.0007585274,4.677511e-05,6,1
-0.0008786177,8.016057e-05,6,1
-0.0009750465,0.0001182459,6,1
-0.001045383,0.0001535762,6,1
-0.001095137,0.0001827479,6,1
-0.001122202,0.0002072198,6,1
-0.001111506,0.0002316917,6,1
-0.001050407,0.0002590807,6,1
-0.0009369612,0.000287118,6,1
-0.0007896438,0.0003057555,6,1
-0.0006411921,0.0003041349,6,1
-0.0005269361,0.0002795009,6,1
-0.0004666478,0.0002346088,6,1
-0.0004489826,0.0001808031,6,1
-0.000442338,0.0001239182,6,1
-0.0004181903,6.41161e-05,6,1
-0.0003663294,9.106227e-07,6,1
-0.0003003688,-6.586029e-05,6,1
-0.0002371633,-0.0001337657,6,1
-0.0001836818,-0.0001953505,6,1
-0.0001394379,-0.0002455907,6,1
-9.535618e-05,-0.0002809209,6,1
-4.446767e-05,-0.0003039342,6,1
1.079661e-05,-0.0003185201,6,1
6.087479e-05,-0.0003254889,6,1
9.344993e-05,-0.0003225718,6,1
0.0001090082,-0.0003087962,6,1
0.0001188942,-0.0002822175,6,1
0.0001344524,-0.0002405667,6,1
0.0001545486,-0.0001840059,6,1
0.0001702689,-0.0001154523,6,1
0.0001798307,-4.47918e-05,6,1
0.0001897167,1.403791e-05,6,1
0.0002085163,5.277153e-05,6,1
0.0002410915,7.043665e-05,6,1
0.0002926282,6.962632e-05,6,1
0.0003569682,5.341979e-05,6,1
0.0004190393,2.943412e-05,6,1
0.0004616624,5.286387e-06,6,1
0.0004684692,-7.840905e-06,6,1
0.0004334631,-6.176923e-08,6,1
0.0003613439,3.364782e-05,6,1
0.000264753,8.891209e-05,6,1
0.0001678379,0.0001569795,6,1
9.361199e-05,0.0002278021,6,1
5.082674e-05,0.0002932765,6,1
2.829966e-05,0.0003461098,6,1
1.371378e-05,0.000381278,6,1
3.341602e-06,0.0003995914,6,1
-4.761664e-06,0.0004089912,6,1
-1.399939e-05,0.0004151496,6,1
-2.858527e-05,0.0004193634,6,1
-5.2733e-05,0.0004213082,6,1
-8.271508e-05,0.0004170944,6,1
-0.0001011905,0.0004008879,6,1
-9.357346e-05,0.000368961,6,1
-6.748094e-05,0.0003166139,6,1
-4.90055e-05,0.0002431983,6,1
-7.088431e-05,0.0001490383,6,1
-0.0001462447,4.094075e-05,6,1
-0.000256287,-7.104638e-05,6,1
-0.0003575778,-0.000171851,6,1
-0.0004138145,-0.0002452666,6,1
-0.0004123559,-0.0002856209,6,1
-0.000365519,-0.0002979378,6,1
-0.0002934,-0.0002864312,6,1
-0.0002123673,-0.0002553146,6,1
-0.0001327933,-0.0002088019,6,1
-6.537409e-05,-0.0001564548,6,1
-1.562004e-05,-0.0001054042,6,1
2.214118e-05,-5.743289e-05,6,1
6.022653e-05,-1.805102e-05,6,1
0.0001056048,6.90704e-06,6,1
0.0001553589,2.035846e-05,6,1
0.0001966855,2.781346e-05,6,1
0.0002158093,3.737532e-05,6,1
0.0002054371,4.969229e-05,6,1
0.0001710792,6.022653e-05,6,1
0.0001240803,6.41161e-05,6,1
7.351589e-05,5.730935e-05,6,1
2.457216e-05,3.93201e-05,6,1
-1.140634e-05,9.500085e-06,6,1
-2.599222e-05,-2.647842e-05,6,1
-1.529591e-05,-6.148453e-05,6,1
1.468618e-05,-8.773911e-05,6,1
6.136099e-05,-0.0001075111,6,1
0.0001213252,-0.0001230693,6,1
0.0001916615,-0.0001376552,6,1
0.0002636185,-0.0001514308,6,1
0.0003299033,-0.000159534,6,1
0.0003890571,-0.0001596961,6,1
0.000440756,-0.0001524032,6,1
0.0004718725,-0.0001391138,6,1
0.0004666864,-0.0001208004,6,1
0.000418391,-9.422172e-05,6,1
0.0003396272,-5.775702e-05,6,1
0.0002504913,-1.740276e-05,6,1
0.0001717275,1.12828e-05,6,1
0.0001190562,1.306552e-05,6,1
0.0001043083,-1.270286e-05,6,1
0.0001344524,-5.159854e-05,6,1
0.0002031682,-8.141856e-05,6,1
0.0002799871,-8.530812e-05,6,1
0.000324393,-6.06742e-05,6,1
0.0003036487,-2.226472e-05,6,1
0.0002146748,1.436204e-05,6,1
8.729144e-05,4.126489e-05,6,1
-3.101625e-05,5.585077e-05,6,1
-0.0001005423,6.233338e-05,6,1
-0.0001054042,6.622294e-05,6,1
-6.116039e-05,7.092284e-05,6,1
-1.682422e-06,7.594687e-05,6,1
4.888196e-05,7.173317e-05,6,1
7.918817e-05,5.876794e-05,6,1
8.777764e-05,4.385793e-05,6,1
8.486046e-05,3.478228e-05,6,1
7.6271e-05,3.656499e-05,6,1
6.541262e-05,5.552663e-05,6,1
5.082674e-05,9.247754e-05,6,1
3.478228e-05,0.0001417454,6,1
1.776542e-05,0.0001827479,6,1
3.179537e-06,0.0001976579,6,1
-9.623623e-06,0.0001820997,6,1
-1.691656e-05,0.0001467694,6,1
-1.902341e-05,0.0001078737,6,1
-1.659243e-05,7.886404e-05,6,1
-1.092015e-05,6.233338e-05,6,1
-3.465141e-06,5.325772e-05,6,1
5.286387e-06,4.596478e-05,6,1
1.12828e-05,3.445814e-05,6,1
9.986281e-06,1.906194e-05,6,1
-1.358292e-06,6.582909e-06,6,1
-1.270286e-05,9.013889e-06,6,1
-1.335113e-05,3.218923e-05,6,1
1.112074e-05,7.351589e-05,6,1
6.670914e-05,0.0001214872,6,1
0.0001469315,0.0001642725,6,1
0.0002380122,0.0001971717,6,1
0.0003224483,0.0002182402,6,1
0.0003856538,0.0002287745,6,1
0.0004248736,0.0002316917,6,1
0.0004491834,0.0002253711,6,1
0.0004702519,0.0002060853,6,1
0.0005005581,0.0001777239,6,1
0.0005456123,0.0001511452,6,1
0.0005883976,0.0001351007,6,1
0.0005995801,0.0001315353,6,1
0.0005563086,0.0001378558,6,1
0.0004533971,0.0001485521,6,1
0.0003036487,0.0001545486,6,1
0.0001355869,0.0001500107,6,1
-1.967167e-05,0.0001304008,6,1
-0.0001396,9.604298e-05,6,1
-0.0002172293,4.77475e-05,6,1
-0.0002553146,-1.221667e-05,6,1
-0.0002606628,-8.433573e-05,6,1
-0.000241377,-0.000166989,6,1
-0.0002117191,-0.0002580697,6,1
-0.0001948643,-0.0003476919,6,1
-0.0002125294,-0.0004284004,6,1
-0.0002739521,-0.0004958195,6,1
-0.0003640605,-0.0005471942,6,1
-0.000459841,-0.0005784728,6,1
-0.0005426564,-0.0005877105,6,1
-0.0005979206,-0.0005773384,6,1
-0.0006181788,-0.0005512458,6,1
-0.0006071584,-0.0005117019,6,1
-0.0005826865,-0.0004603272,6,1
-0.0005629146,-0.0003993907,6,1
-0.0005552975,-0.0003342404,6,1
-0.0005504355,-0.0002747625,6,1
-0.000529205,-0.0002303566,6,1
-0.0004839888,-0.0002028055,6,1
-0.0004285624,-0.000191785,6,1
-0.0003904771,-0.0001921092,6,1
-0.0003861013,-0.000201509,6,1
-0.0004157593,-0.0002225774,6,1
-0.0004710235,-0.0002558008,6,1
-0.0005437909,-0.0002946965,6,1
-0.0006168823,-0.0003290543,6,1
-0.0006580469,-0.0003501228,6,1
-0.0006337371,-0.0003517435,6,1
-0.0005420081,-0.0003295405,6,1
-0.000422566,-0.0002822175,6,1
-0.0003130099,-0.0002156086,6,1
-0.0002194982,-0.0001394379,6,1
-0.0001237176,-6.553616e-05,6,1
-1.043395e-05,-2.81688e-06,6,1
0.0001231079,4.612685e-05,6,1
0.00027707,8.453633e-05,6,1
0.0004634451,0.0001211631,6,1
0.0006869333,0.0001597346,6,1
0.0009203076,0.000200413,6,1
0.001117704,0.0002394708,6,1
0.00123196,0.0002718839,6,1
0.001239739,0.0002983005,6,1
0.001146227,0.0003198552,6,1
0.0009903199,0.0003373583,6,1
0.0008314957,0.0003509718,6,1
0.0007279359,0.0003582647,6,1
0.0006994124,0.0003613439,6,1
0.000723236,0.0003634508,6,1
0.0007485182,0.0003660439,6,1
0.000723236,0.0003681507,6,1
0.0006250244,0.0003679886,6,1
0.0004762483,0.0003676645,6,1
0.0003227724,0.0003662059,6,1
0.0002012234,0.0003658818,6,1
0.0001214872,0.0003645853,6,1
7.221937e-05,0.0003592371,6,1
3.867184e-05,0.000346596,6,1
1.257933e-05,0.0003287688,6,1
-1.578211e-05,0.0003122381,6,1
-6.504996e-05,0.0002999212,6,1
-0.0001506204,0.0002901973,6,1
-0.0002713591,0.0002783665,6,1
-0.0004068457,0.0002660495,6,1
-0.0005360117,0.0002532463,6,1
-0.0006492953,0.0002402811,6,1
-0.0007450759,0.0002255332,6,1
-0.0008262706,0.0002093267,6,1
-0.0008943381,0.0001949028,6,1
-0.0009530057,0.0001785342,6,1
-0.001006973,0.0001574657,6,1
-0.001056079,0.0001304008,6,1
-0.001098702,9.669123e-05,6,1
-0.001133709,6.055066e-05,6,1
-0.001155749,2.522042e-05,6,1
-0.001147484,-5.89612e-06,6,1
-0.001076175,-2.809907e-05,6,1
-0.0009024413,-4.122636e-05,6,1
-0.0006055377,-4.576419e-05,6,1
-0.0001869231,-4.317115e-05,6,1
0.0003188828,-3.020592e-05,6,1
0.0008465679,-1.027188e-05,6,1
0.001317855,9.175954e-06,6,1
0.001645875,2.278944e-05,6,1
0.001764994,2.522042e-05,6,1
0.001665971,1.663096e-05,6,1
0.001404073,7.485573e-07,6,1
0.001070866,-1.99958e-05,6,1
0.0007496527,-4.446767e-05,6,1
0.0004916445,-6.81292e-05,6,1
0.0003052694,-8.498399e-05,6,1
0.0001636242,-9.535618e-05,6,1
3.429608e-05,-0.0001054042,6,1
-9.989401e-05,-0.0001232314,6,1
-0.0002358668,-0.0001525652,6,1
-0.0003596847,-0.0001865989,6,1
-0.0004587066,-0.0002185258,6,1
-0.0005301774,-0.0002459149,6,1
-0.0005799314,-0.0002679557,6,1
-0.0006167202,-0.0002848105,6,1
-0.0006423265,-0.0002977757,6,1
-0.0006569124,-0.00030831,6,1
-0.0006582089,-0.0003152788,6,1
-0.0006442713,-0.0003175477,6,1
-0.000618503,-0.0003180339,6,1
-0.0005822003,-0.0003167374,6,1
-0.0005408737,-0.0003130099,6,1
-0.0004997091,-0.0003037722,6,1
-0.0004559515,-0.0002887001,6,1
-0.0004037664,-0.0002650386,6,1
-0.0003434782,-0.0002295462,6,1
-0.000283514,-0.0001815749,6,1
-0.0002344082,-0.0001276072,6,1
-0.0002076674,-7.785312e-05,6,1
-0.0002131776,-4.106429e-05,6,1
-0.0002486699,-2.291298e-05,6,1
-0.0002971275,-2.437157e-05,6,1
-0.0003379679,-3.830919e-05,6,1
-0.0003540124,-5.305713e-05,6,1
-0.0003392644,-5.208474e-05,6,1
-0.0002974516,-1.821308e-05,6,1
-0.000233922,5.001642e-05,6,1
-0.0001527273,0.0001370455,6,1
-6.278104e-05,0.0002214815,6,1
2.651694e-05,0.0002880904,6,1
9.490851e-05,0.0003287688,6,1
0.0001299146,0.000339141,6,1
0.0001347766,0.0003211517,6,1
0.0001313732,0.0002835526,6,1
0.0001367214,0.0002388225,6,1
0.0001492004,0.0002021958,6,1
0.0001560072,0.0001830721,6,1
0.0001485521,0.0001793446,6,1
0.0001278078,0.0001850168,6,1
9.831188e-05,0.0001872858,6,1
7.059871e-05,0.0001770756,6,1
5.131294e-05,0.0001564933,6,1
3.818565e-05,0.0001351007,6,1
2.862379e-05,0.0001206769,6,1
2.748934e-05,0.0001167873,6,1
3.526847e-05,0.0001116012,6,1
4.82337e-05,9.555677e-05,6,1
6.395404e-05,6.703327e-05,6,1
8.323981e-05,3.364782e-05,6,1
0.0001138702,3.179537e-06,6,1
0.0001686482,-1.318906e-05,6,1
0.0002577842,-1.108221e-05,6,1
0.0003741471,5.448452e-06,6,1
0.0004824068,2.376183e-05,6,1
0.0005362125,3.024445e-05,6,1
0.00051012,1.160693e-05,6,1
0.0004169324,-3.976777e-05,6,1
0.0002957075,-0.0001193418,6,1
0.0001902029,-0.00021415,6,1
0.0001257009,-0.0003097686,6,1
9.944634e-05,-0.0003945287,6,1
0.0001005808,-0.0004559515,6,1
0.0001216493,-0.0004794509,6,1
0.0001490383,-0.0004582204,6,1
0.0001647587,-0.0003992286,6,1
0.0001574657,-0.00032322,6,1
0.0001363972,-0.0002541802,6,1
0.0001226217,-0.000206533,6,1
0.0001334801,-0.0001794681,6,1
0.000170593,-0.0001635857,6,1
0.0002148369,-0.0001452723,6,1
0.0002401191,-0.0001183694,6,1
0.0002328261,-8.40116e-05,6,1
0.0001958752,-4.706071e-05,6,1
0.0001410971,-1.124428e-05,6,1
7.643307e-05,1.808955e-05,6,1
3.665733e-06,3.364782e-05,6,1
-7.509801e-05,3.170304e-05,6,1
-0.0001473791,1.517237e-05,6,1
-0.0001927574,-8.327101e-06,6,1
-0.0002002124,-2.955766e-05,6,1
-0.0001731475,-3.944364e-05,6,1
-0.0001277692,-3.522994e-05,6,1
-8.044617e-05,-2.015787e-05,6,1
-4.317115e-05,3.827799e-06,6,1
-2.339918e-05,3.624086e-05,6,1
-1.950961e-05,7.497447e-05,6,1
-2.145439e-05,0.0001125736,6,1
-1.902341e-05,0.0001453108,6,1
-9.137427e-06,0.0001692965,6,1
-7.100305e-07,0.0001799928,6,1
-8.327101e-06,0.0001770756,6,1
-3.798505e-05,0.0001662173,6,1
-8.255302e-05,0.0001548727,6,1
-0.0001250141,0.0001490383,6,1
-0.0001548341,0.0001490383,6,1
-0.000166989,0.0001493625,6,1
-0.0001533756,0.0001363972,6,1
-0.0001008664,0.0001002567,6,1
-4.275467e-06,3.753739e-05,6,1
0.0001276457,-4.495386e-05,6,1
0.000267184,-0.0001314967,6,1
0.000388895,-0.0001987538,6,1
0.000480462,-0.0002324634,6,1
0.0005452881,-0.0002246843,6,1
0.0005854804,-0.0001754164,6,1
0.0006033076,-9.470791e-05,6,1
0.0005974732,-4.275467e-06,6,1
0.0005631154,7.805372e-05,6,1
0.0005008822,0.0001448246,6,1
0.00041596,0.0001986303,6,1
0.0003247172,0.0002454672,6,1
0.0002448189,0.0002835526,6,1
0.0001840444,0.0003099692,6,1
0.0001445005,0.0003247172,6,1
0.0001219734,0.0003321722,6,1
0.0001114392,0.0003328204,6,1
0.0001039842,0.0003274723,6,1
8.777764e-05,0.0003190449,6,1
5.682316e-05,0.0003081865,6,1
1.355172e-05,0.0002932765,6,1
-3.036798e-05,0.0002777182,6,1
-6.602235e-05,0.0002718839,6,1
-8.741498e-05,0.0002795009,6,1
-8.854943e-05,0.0002931144,6,1
-6.39155e-05,0.0002965178,6,1
-1.092015e-05,0.0002812837,6,1
7.092284e-05,0.000249843,6,1
0.0001726999,0.0002070577,6,1
0.0002637806,0.0001590864,6,1
0.000304297,0.0001099806,6,1
0.0002713977,6.379197e-05,6,1
0.0001735102,2.052053e-05,6,1
4.612685e-05,-2.09682e-05,6,1
-6.81292e-05,-5.970181e-05,6,1
-0.0001289037,-9.584238e-05,6,1
-0.0001136696,-0.0001290658,6,1
-1.67545e-05,-0.0001600202,6,1
0.0001564933,-0.0001870851,6,1
0.0003880847,-0.0002044261,6,1
0.0006593822,-0.0002005366,6,1
0.0009344073,-0.0001660166,6,1
0.001155627,-0.0001010285,6,1
0.001263887,-1.659243e-05,6,1
0.001212836,6.83298e-05,6,1
0.0009883752,0.000135749,6,1
0.0006276174,0.0001712413,6,1
0.0002080301,0.0001658931,6,1
-0.0001874093,0.0001200286,6,1
-0.0004950092,4.223728e-05,6,1
-0.0006812222,-5.143648e-05,6,1
-0.0007410243,-0.0001391138,6,1
-0.000700508,-0.0002075054,6,1
-0.0006000275,-0.0002455907,6,1
-0.0004826922,-0.000253856,6,1
-0.0003869116,-0.0002439701,6,1
-0.0003352128,-0.000226467,6,1
-0.0003313232,-0.0002081536,6,1
-0.0003617915,-0.0001904885,6,1
-0.0004040906,-0.0001739578,6,1
-0.000435045,-0.0001572651,6,1
-0.0004332623,-0.0001373311,6,1
-0.0003890185,-0.0001128592,6,1
-0.0003078238,-8.741498e-05,6,1
-0.0002175534,-6.521203e-05,6,1
-0.0001571031,-4.592625e-05,6,1
-0.0001577513,-2.664048e-05,6,1
-0.0002222533,-8.165035e-06,6,1
-0.0003373197,6.90704e-06,6,1
-0.000482206,1.274139e-05,6,1
-0.0006364922,1.047248e-05,6,1
-0.00077522,2.855407e-06,6,1
-0.0008760247,-6.220252e-06,6,1
-0.0009293442,-2.161646e-05,6,1
-0.0009304786,-5.338126e-05,6,1
-0.0008854245,-0.0001091317,6,1
-0.0008055263,-0.0001898403,6,1
-0.0006959701,-0.0002865932,6,1
-0.0005621043,-0.0003867496,6,1
-0.0004211074,-0.0004812336,6,1
-0.000310741,-0.0005637249,6,1
-0.0002582318,-0.0006264441,6,1
-0.0002697385,-0.000658371,6,1
-0.0003348887,-0.0006454058,6,1
-0.0004285624,-0.0005786349,6,1
-0.0005134846,-0.0004658375,6,1
-0.000559187,-0.0003293785,6,1
-0.0005528665,-0.0001924333,6,1
-0.0005006815,-6.569822e-05,6,1
-0.0004143007,5.277153e-05,6,1
-0.0003042584,0.0001576278,6,1
-0.0001835197,0.0002407673,6,1
-7.120844e-05,0.0002939248,6,1
1.484824e-05,0.0003205035,6,1
6.751948e-05,0.0003274723,6,1
9.798775e-05,0.0003222862,6,1
0.0001224596,0.0003175863,6,1
0.0001498487,0.0003205035,6,1
0.0001822617,0.0003342791,6,1
0.0002133783,0.000356482,6,1
0.0002334744,0.0003806297,6,1
0.000237526,0.0003994293,6,1
0.0002256952,0.0004070464,6,1
0.0002034923,0.0003974845,6,1
0.0001882582,0.0003723644,6,1
0.0002031682,0.0003412479,6,1
0.0002621599,0.0003107795,6,1
0.0003579406,0.0002866318,6,1
0.0004663623,0.0002681563,6,1
0.0005589016,0.0002529222,6,1
0.0006170832,0.0002397949,6,1
0.0006399344,0.0002303951,6,1
0.0006457687,0.0002265056,6,1
0.0006532237,0.000225209,6,1
0.0006653786,0.0002232643,6,1
0.0006593822,0.0002137024,6,1
0.0006099523,0.0001965235,6,1
0.0005050959,0.0001777239,6,1
0.000346596,0.0001644345,6,1
0.0001487142,0.0001551968,6,1
-6.035007e-05,0.0001427178,6,1
-0.000236353,0.0001237561,6,1
-0.0003412093,0.0001005808,6,1
-0.0003634122,7.789165e-05,6,1
-0.0003313232,5.844381e-05,6,1
-0.0002946965,4.35338e-05,6,1
-0.0002911311,2.959619e-05,6,1
-0.0003295405,1.501031e-05,6,1
-0.0003898288,-3.627206e-06,6,1
-0.0004384484,-2.955766e-05,6,1
-0.0004470379,-6.48879e-05,6,1
-0.0004011734,-0.0001081593,6,1
-0.0003023136,-0.0001558065,6,1
-0.0001705545,-0.0002071812,6,1
-3.571614e-05,-0.0002605007,6,1
6.897806e-05,-0.000313334,6,1
0.0001222976,-0.0003574158,6,1
0.0001260251,-0.0003885323,6,1
9.458438e-05,-0.000400201,6,1
4.758544e-05,-0.0003891806,6,1
2.623614e-07,-0.0003627639,6,1
-4.171256e-05,-0.0003319715,6,1
-8.498399e-05,-0.0003013411,6,1
-0.0001415448,-0.0002715212,6,1
-0.0002177155,-0.0002420253,6,1
-0.0003002067,-0.0002152845,6,1
-0.0003684362,-0.0001959987,6,1
-0.00039777,-0.0001864369,6,1
-0.0003640605,-0.0001857886,6,1
-0.0002580697,-0.0001882196,6,1
-9.584238e-05,-0.0001869231,6,1
8.518459e-05,-0.0001741199,6,1
0.0002438466,-0.0001496481,6,1
0.0003506476,-0.0001159385,6,1
0.0003957018,-7.947377e-05,6,1
0.00038614,-4.414354e-05,6,1
0.0003352514,-1.351319e-05,6,1
0.0002521119,6.258778e-06,6,1
0.0001474177,1.711715e-05,6,1
3.235129e-05,2.165498e-05,6,1
-8.093236e-05,2.295151e-05,6,1
-0.0001789819,2.586868e-05,6,1
-0.0002509389,3.397195e-05,6,1
-0.0002809209,5.163707e-05,6,1
-0.0002564491,7.594687e-05,6,1
-0.0001802784,0.0001015532,6,1
-7.526008e-05,0.0001232699,6,1
3.445814e-05,0.0001380179,6,1
0.0001331559,0.0001474177,6,1
0.0002232643,0.0001542244,6,1
0.0003185587,0.0001620036,6,1
0.0004360561,0.0001741585,6,1
0.0005755944,0.0001892305,6,1
0.0007122156,0.0002043026,6,1
0.0008126961,0.0002184023,6,1
0.0008564538,0.0002337985,6,1
0.0008455954,0.000249843,6,1
0.0007958413,0.0002644289,6,1
0.0007170775,0.000274639,6,1
0.0006138419,0.000279663,6,1
0.0004900239,0.0002773941,6,1
0.000353889,0.0002649151,6,1
0.0002179161,0.000244981,6,1
9.377406e-05,0.0002235884,6,1
-6.220252e-06,0.0002073819,6,1
-6.926366e-05,0.0001949028,6,1
-9.081835e-05,0.0001811273,6,1
-8.303922e-05,0.0001647587,6,1
-6.035007e-05,0.0001461212,6,1
-3.895745e-05,0.0001286181,6,1
-3.976777e-05,0.0001143563,6,1
-7.493595e-05,9.960841e-05,6,1
-0.0001425172,8.161915e-05,6,1
-0.0002266291,6.492643e-05,6,1
-0.0003003688,5.293359e-05,6,1
-0.0003363473,5.017848e-05,6,1
-0.0003199787,5.358185e-05,6,1
-0.0002593663,5.374392e-05,6,1
-0.0001731475,4.434413e-05,6,1
-8.012204e-05,2.505836e-05,6,1
3.503668e-06,-2.006553e-06,6,1
6.703327e-05,-3.377136e-05,6,1
0.0001185701,-6.634648e-05,6,1
0.000177886,-9.29252e-05,6,1
0.0002560015,-0.0001070249,6,1
0.0003435168,-0.0001070249,6,1
0.0004162841,-9.681477e-05,6,1
0.0004545315,-8.368748e-05,6,1
0.0004592314,-7.526008e-05,6,1
0.0004530729,-7.428769e-05,6,1
0.0004569625,-7.671866e-05,6,1
0.000480462,-7.363943e-05,6,1
0.0005247059,-6.521203e-05,6,1
0.0005838597,-5.516398e-05,6,1
0.0006407447,-5.127441e-05,6,1
0.0006802886,-5.386745e-05,6,1
0.0006951987,-6.294311e-05,6,1
0.0006749405,-7.444975e-05,6,1
0.0006149763,-8.303922e-05,6,1
0.0005130371,-8.368748e-05,6,1
0.0003773884,-7.509801e-05,6,1
0.0002255332,-5.791909e-05,6,1
8.129502e-05,-3.668853e-05,6,1
-3.960571e-05,-1.805102e-05,6,1
-0.0001365208,-6.220252e-06,6,1
-0.000221443,-2.492749e-06,6,1
-0.0003027998,-5.085794e-06,6,1
-0.0003906392,-1.286493e-05,6,1
-0.0004880404,-2.826114e-05,6,1
-0.0005843072,-5.824322e-05,6,1
-0.0006578848,-0.0001039456,6,1
-0.000688029,-0.0001624512,6,1
-0.0006698776,-0.0002285739,6,1
-0.0006118583,-0.0002993964,6,1
-0.0005293671,-0.0003731361,6,1
-0.000444931,-0.0004501171,6,1
-0.0003783222,-0.0005248293,6,1
-0.0003378059,-0.0005877105,6,1
-0.0003233821,-0.0006330888,6,1
-0.0003300267,-0.000658371,6,1
-0.0003507711,-0.0006619364,6,1
-0.0003731361,-0.0006420024,6,1
-0.0003919357,-0.0005907898,6,1
-0.000407656,-0.0005074882,6,1
-0.0004243487,-0.0003987424,6,1
-0.0004381243,-0.0002749245,6,1
-0.0004426621,-0.0001478653,6,1
-0.0004326141,-2.923353e-05,6,1
-0.0004045768,7.384002e-05,6,1
-0.0003638984,0.0001561692,6,1
-0.0003211132,0.0002107852,6,1
-0.0002874036,0.0002394708,6,1
-0.0002733039,0.000249843,6,1
-0.0002893484,0.0002521119,6,1
-0.000333106,0.0002538946,6,1
-0.0003901529,0.0002582704,6,1
-0.0004437966,0.0002607014,6,1
-0.0004917679,0.0002585945,6,1
-0.0005279084,0.0002493568,6,1
-0.00053666,0.000232502,6,1
-0.0005154294,0.0002114335,6,1
-0.00047232,0.0001914995,6,1
-0.0004207833,0.0001752929,6,1
-0.0003621157,0.0001668655,6,1
-0.0002963172,0.000175455,6,1
-0.0002292221,0.0002198609,6,1
-0.0001723372,0.0003065659,6,1
-0.0001389517,0.0004148255,6,1
-0.0001355484,0.0005166026,6,1
-0.000156941,0.0005901803,6,1
-0.000184168,0.0006269692,6,1
-0.000201509,0.000626645,6,1
-0.0002053985,0.0005965008,6,1
-0.0001989159,0.0005477191,6,1
-0.0001840059,0.0004948858,6,1
-0.0001616409,0.0004474007,6,1
-0.0001410586,0.0004021844,6,1
-0.0001319829,0.0003480546,6,1
-0.0001360346,0.0002798251,6,1
-0.0001530514,0.0001961994,6,1
-0.0001835197,0.0001088461,6,1
-0.000223874,3.105477e-05,6,1
-0.0002639041,-2.89094e-05,6,1
-0.0002919414,-7.380149e-05,6,1
-0.0003005308,-0.0001081593,6,1
-0.0002788141,-0.0001353863,6,1
-0.0002154466,-0.0001564548,6,1
-0.0001089697,-0.0001737958,6,1
3.121684e-05,-0.000191623,6,1
0.0001932822,-0.000216419,6,1
0.0003718782,-0.0002506147,6,1
0.0005681394,-0.0002930758,6,1
0.0007793107,-0.0003392644,6,1
0.0009791374,-0.0003846427,6,1
0.001123376,-0.0004256453,6,1
0.001171671,-0.0004608134,6,1
0.001102307,-0.0004927403,6,1
0.0009173905,-0.0005266119,6,1
0.0006400964,-0.0005556216,6,1
0.0003136967,-0.0005622663,6,1
-9.137427e-06,-0.0005317981,6,1
-0.0002781658,-0.000464703,6,1
-0.0004520619,-0.0003765395,6,1
-0.0005055434,-0.0002875656,6,1
-0.0004390967,-0.0002130156,6,1
-0.0002838381,-0.0001556445,6,1
-7.979791e-05,-0.0001162626,6,1
0.0001443384,-9.519411e-05,6,1
0.0003759298,-9.308726e-05,6,1
0.0006057385,-0.0001010285,6,1
0.0008191788,-0.0001029732,6,1
0.0009880509,-8.838737e-05,6,1
0.00108059,-5.435365e-05,6,1
0.001076701,-3.789272e-06,6,1
0.0009804339,5.730935e-05,6,1
0.0008177201,0.0001171115,6,1
0.0006339379,0.0001676758,6,1
0.0004718725,0.0002017096,6,1
0.0003548613,0.0002159713,6,1
0.0002911697,0.00021273,6,1
0.0002730183,0.0001994406,6,1
0.0002861456,0.0001814514,6,1
0.0003133726,0.0001634622,6,1
0.0003331446,0.0001526038,6,1
0.0003337929,0.0001492004,6,1
0.0003115899,0.0001483901,6,1
0.0002749631,0.0001501728,6,1
0.0002417397,0.0001592484,6,1
0.0002227781,0.0001773998,6,1
0.00021273,0.0002010613,6,1
0.0001981441,0.0002209954,6,1
0.0001702689,0.0002352571,6,1
0.0001318594,0.0002485465,6,1
9.16672e-05,0.0002657254,6,1
5.325772e-05,0.0002936006,6,1
2.01964e-05,0.0003358997,6,1
-7.840905e-06,0.000388733,6,1
-2.939559e-05,0.0004402698,6,1
-4.706071e-05,0.0004819206,6,1
-6.521203e-05,0.0005107683,6,1
-8.741498e-05,0.0005295678,6,1
-0.0001105903,0.0005412365,6,1
-0.0001269589,0.0005457744,6,1
-0.0001302002,0.0005402642,6,1
-0.0001128592,0.0005174129,6,1
-7.509801e-05,0.000473007,6,1
-3.198864e-05,0.0004049396,6,1
-1.034161e-06,0.0003166139,6,1
1.014835e-05,0.0002106232,6,1
-1.844488e-06,9.344993e-05,6,1
-3.604027e-05,-3.490581e-05,6,1
-8.384954e-05,-0.00016942,6,1
-0.0001342519,-0.0003000446,6,1
-0.0001723372,-0.0004092767,6,1
-0.0001874093,-0.0004737787,6,1
-0.000184168,-0.000482206,6,1
-0.0001875713,-0.0004382863,6,1
-0.0002235498,-0.000360495,6,1
-0.0002993964,-0.0002757348,6,1
-0.000407656,-0.0002032917,6,1
-0.0005364979,-0.0001517549,6,1
-0.0006808981,-0.0001233935,6,1
-0.000834536,-0.0001185315,6,1
-0.0009756948,-0.0001344139,6,1
-0.001056079,-0.0001679614,6,1
-0.001030149,-0.000208964,6,1
-0.0008862348,-0.0002493182,6,1
-0.00065594,-0.0002865932,6,1
-0.0004144627,-0.0003191683,6,1
-0.0002475355,-0.0003403989,6,1
-0.0001984297,-0.0003459091,6,1
-0.0002540181,-0.0003366714,6,1
-0.0003682741,-0.0003160891,6,1
-0.0004967919,-0.0002906449,6,1
-0.0006021344,-0.0002579077,6,1
-0.0006698776,-0.0002154466,6,1
-0.0007045596,-0.000166989,6,1
-0.0007134732,-0.0001170729,6,1
-0.0006924047,-7.039812e-05,6,1
-0.0006277406,-2.939559e-05,6,1
-0.0005167259,3.341602e-06,6,1
-0.0003781601,2.522042e-05,6,1
-0.0002423494,3.510641e-05,6,1
-0.0001318209,3.753739e-05,6,1
-4.997789e-05,3.753739e-05,6,1
1.889987e-05,3.850978e-05,6,1
9.928428e-05,4.239934e-05,6,1
0.0002119197,4.742337e-05,6,1
0.0003592371,4.709924e-05,6,1
0.0005290816,3.899597e-05,6,1
0.0006992503,2.376183e-05,6,1
0.0008535367,3.341602e-06,6,1
0.000983189,-1.983374e-05,6,1
0.001080915,-4.38194e-05,6,1
0.001145903,-6.407757e-05,6,1
0.001184799,-7.801519e-05,6,1
0.001204895,-8.611845e-05,6,1
0.001207488,-8.741498e-05,6,1
0.001183826,-8.206682e-05,6,1
0.001124186,-6.748094e-05,6,1
0.001033105,-4.268495e-05,6,1
0.0009366762,-1.3027e-05,6,1
0.0008554814,1.630683e-05,6,1
0.0007921138,4.35338e-05,6,1
0.0007293945,6.638502e-05,6,1
0.0006454446,8.631905e-05,6,1
0.0005276231,0.0001047945,6,1
0.000381278,0.0001240803,6,1
0.0002218057,0.0001474177,6,1
6.687121e-05,0.0001743205,6,1
-7.153257e-05,0.0002017096,6,1
-0.0001836818,0.0002256952,6,1
-0.0002622834,0.0002436845,6,1
-0.0003141443,0.0002550291,6,1
-0.0003459091,0.0002628082,6,1
-0.0003583881,0.0002712356,6,1
-0.0003501228,0.0002832284,6,1
-0.0003261372,0.0002971661,6,1
-0.0003016653,0.0003106175,6,1
-0.0002919414,0.0003221241,6,1
-0.0003096065,0.000326824,6,1
-0.0003595226,0.0003214759,6,1
-0.0004313175,0.0003072141,6,1
-0.0005011677,0.0002890628,6,1
-0.0005457356,0.0002675081,6,1
-0.0005505976,0.0002441707,6,1
-0.0005154294,0.0002211574,6,1
-0.000452386,0.0002030061,6,1
-0.0003731361,0.0001921477,6,1
-0.000288538,0.0001863134,6,1
-0.000213988,0.0001812893,6,1
-0.0001630995,0.0001736723,6,1
-0.0001428413,0.000162976,6,1
-0.0001566169,0.0001501728,6,1
-0.0001924333,0.0001344524,6,1
-0.0002326255,0.0001096565,6,1
-0.0002679557,7.432621e-05,6,1
-0.0003042584,3.073064e-05,6,1
-0.0003543365,-1.837515e-05,6,1
-0.0004228902,-7.072225e-05,6,1
-0.0005071641,-0.0001204763,6,1
-0.0005875485,-0.0001640719,6,1
-0.0006377887,-0.0002000504,6,1
-0.0006382749,-0.0002250084,6,1
-0.0005810658,-0.0002355427,6,1
-0.0004747511,-0.000231491,6,1
-0.0003392644,-0.0002209568,6,1
-0.0002032917,-0.0002100984,6,1
-9.357346e-05,-0.0002003745,6,1
-2.712668e-05,-0.0001925954,6,1
-1.156841e-05,-0.0001869231,6,1
-4.47918e-05,-0.0001859507,6,1
-0.0001062146,-0.0001937298,6,1
-0.0001666649,-0.0002075054,6,1
-0.0002050744,-0.0002220912,6,1
-0.0002160948,-0.0002303566,6,1
-0.0002068571,-0.0002361909,6,1
-0.0001953505,-0.000238946,6,1
-0.0001932436,-0.0002392702,6,1
-0.0002044261,-0.0002379736,6,1
-0.0002269532,-0.0002352185,6,1
-0.0002570974,-0.0002306807,6,1
-0.0002919414,-0.0002229016,6,1
-0.0003215994,-0.0002105846,6,1
-0.0003285682,-0.0001930815,6,1
-0.0003029619,-0.0001712027,6,1
-0.0002507768,-0.0001502963,6,1
-0.0001838438,-0.000137007,6,1
-0.0001219349,-0.000134738,6,1
-8.741498e-05,-0.0001389517,6,1
-8.498399e-05,-0.0001454344,6,1
-0.0001032974,-0.0001528894,6,1
-0.0001235555,-0.0001606685,6,1
-0.0001314967,-0.0001642339,6,1
-0.0001225832,-0.0001622891,6,1
-9.730096e-05,-0.0001514308,6,1
-5.451572e-05,-0.0001384655,6,1
5.610517e-06,-0.0001298761,6,1
8.291568e-05,-0.0001267968,6,1
0.0001811273,-0.0001290658,6,1
0.0003034866,-0.0001327933,6,1
0.0004428628,-0.0001329553,6,1
0.0005871011,-0.0001298761,6,1
0.0007290703,-0.0001266348,6,1
0.0008747673,-0.0001227452,6,1
0.001037643,-0.0001131834,6,1
0.001222722,-9.422172e-05,6,1
0.001421414,-6.164659e-05,6,1
0.001614435,-2.145439e-05,6,1
0.001773907,1.679302e-05,6,1
0.00187844,4.82337e-05,6,1
0.001908908,7.52986e-05,6,1
0.001852509,0.0001023635,6,1
0.001689471,0.0001336421,6,1
0.00140067,0.0001678379,6,1
0.00100442,0.0002023578,6,1
0.0005710566,0.0002336365,6,1
0.0001983062,0.0002571359,6,1
-4.268495e-05,0.000267184,6,1
-0.0001472171,0.000262322,6,1
-0.0001707166,0.000247412,6,1
-0.0001786577,0.0002320158,6,1
-0.0002146363,0.0002269918,6,1
-0.0002865932,0.0002420638,6,1
-0.0003715154,0.0002773941,6,1
-0.0004437966,0.0003229345,6,1
-0.0004893369,0.0003626405,6,1
-0.0005014918,0.000383709,6,1
-0.000482044,0.0003817642,6,1
-0.0004425001,0.0003584268,6,1
-0.0004104111,0.0003161277,6,1
-0.0004170558,0.0002590807,6,1
-0.0004716718,0.0001942546,6,1
-0.0005621043,0.000130725,6,1
-0.0006619364,7.643307e-05,6,1
-0.0007379451,3.445814e-05,6,1
-0.0007646859,1.396819e-06,6,1
-0.000735352,-2.566809e-05,6,1
-0.0006578848,-4.997789e-05,6,1
-0.0005593491,-6.958779e-05,6,1
-0.0004719959,-8.158062e-05,6,1
-0.0004118697,-8.871149e-05,6,1
-0.0003765395,-9.973194e-05,6,1
-0.0003522297,-0.0001230693,6,1
-0.0003241924,-0.0001574272,6,1
-0.0002870794,-0.0001921092,6,1
-0.0002446183,-0.0002117191,6,1
-0.0002003745,-0.0002076674,6,1
-0.0001579134,-0.0001806025,6,1
-0.0001177212,-0.0001415448,6,1
-7.914964e-05,-0.0001055663,6,1
-3.652646e-05,-8.239095e-05,6,1
9.338019e-06,-7.688073e-05,6,1
5.390598e-05,-8.968389e-05,6,1
8.696731e-05,-0.0001144799,6,1
0.0001030118,-0.0001408965,6,1
0.0001028497,-0.000164396,6,1
8.242948e-05,-0.0001854645,6,1
3.299956e-05,-0.000206533,6,1
-4.38194e-05,-0.000226467,6,1
-0.000132145,-0.0002423494,6,1
-0.0002149604,-0.0002530457,6,1
-0.0002814071,-0.0002596904,6,1
-0.0003311612,-0.0002609869,6,1
-0.0003700569,-0.0002582318,6,1
-0.0004104111,-0.0002501286,6,1
-0.0004629203,-0.0002370013,6,1
-0.0005232086,-0.0002172293,6,1
-0.000574097,-0.0001877334,6,1
-0.0005941931,-0.0001442999,6,1
-0.0005706937,-8.887356e-05,6,1
-0.0005024642,-2.437157e-05,6,1
-0.0003937184,4.693717e-05,6,1
-0.0002606628,0.0001197045,6,1
-0.0001308485,0.0001830721,6,1
-3.393342e-05,0.0002305572,6,1
1.97102e-05,0.0002626462,6,1
5.1475e-05,0.0002811216,6,1
9.847395e-05,0.0002885766,6,1
0.0001890685,0.0002897111,6,1
0.0003303894,0.0002861456,6,1
0.000512551,0.0002744769,6,1
0.0007115673,0.0002521119,6,1
0.0008908117,0.0002263435,6,1
0.001008147,0.0002036544,6,1
0.001036509,0.0001869616,6,1
0.0009796236,0.0001731861,6,1
0.0008697432,0.0001568175,6,1
0.0007520836,0.000138342,6,1
0.0006593822,0.0001193804,6,1
0.0006023352,9.977047e-05,6,1
0.0005759185,8.599492e-05,6,1
0.0005725152,8.016057e-05,6,1
0.0005742979,8.356394e-05,6,1
0.0005545259,9.620504e-05,6,1
0.0004961824,0.0001093323,6,1
0.0003950536,0.0001116012,6,1
0.0002660495,9.555677e-05,6,1
0.000138342,6.492643e-05,6,1
5.244739e-05,2.684107e-05,6,1
3.753739e-05,-1.075808e-05,6,1
9.490851e-05,-4.544006e-05,6,1
0.0001981441,-7.363943e-05,6,1
0.0003034866,-8.887356e-05,6,1
0.0003736609,-8.628052e-05,6,1
0.0003895433,-6.748094e-05,6,1
0.0003524304,-3.782299e-05,6,1
0.0002754493,-4.275467e-06,6,1
0.0001769136,2.797553e-05,6,1
7.108491e-05,5.763349e-05,6,1
-3.344723e-05,8.307774e-05,6,1
-0.0001360346,0.0001054428,6,1
-0.0002405667,0.0001232699,6,1
-0.0003467195,0.0001363972,6,1
-0.0004559515,0.0001445005,6,1
-0.0005661559,0.0001487142,6,1
-0.000675874,0.0001504969,6,1
-0.0007792717,0.0001519555,6,1
-0.0008633836,0.0001542244,6,1
-0.0009132997,0.0001608691,6,1
-0.0009160548,0.000170431,6,1
-0.0008692179,0.0001785342,6,1
-0.0007842957,0.0001801549,6,1
-0.0006844635,0.0001733481,6,1
-0.0005951655,0.0001602208,6,1
-0.0005389289,0.0001396385,6,1
-0.0005296912,0.000108522,6,1
-0.0005642111,7.238143e-05,6,1
-0.0006248235,3.786152e-05,6,1
-0.0006873807,1.387585e-05,6,1
-0.0007266005,-1.358292e-06,6,1
-0.0007219006,-1.497178e-05,6,1
-0.0006653398,-3.717473e-05,6,1
-0.00055157,-6.942573e-05,6,1
-0.0003757291,-0.0001007043,6,1
-0.0001488377,-0.000122097,6,1
9.361199e-05,-0.0001238797,6,1
0.0003073762,-0.0001031353,6,1
0.0004543695,-6.893953e-05,6,1
0.0005159543,-3.409549e-05,6,1
0.0005057442,-8.651231e-06,6,1
0.0004615004,3.989864e-06,6,1
0.000418553,3.341602e-06,6,1
0.0003963501,-4.761664e-06,6,1
0.0003906778,-1.432352e-05,6,1
0.0003866261,-2.388537e-05,6,1
0.0003723644,-2.858527e-05,6,1
0.0003485408,-2.550602e-05,6,1
0.000324393,-1.173047e-05,6,1
0.0003089969,9.66215e-06,6,1
0.0003018659,3.056858e-05,6,1
0.0003012177,3.672706e-05,6,1
0.000309483,1.322759e-05,6,1
0.0003342791,-5.078821e-05,6,1
0.0003833848,-0.0001480274,6,1
0.0004568005,-0.0002561249,6,1
0.0005410745,-0.0003468815,6,1
0.0006195141,-0.0004081422,6,1
0.0006751026,-0.0004379622,6,1
0.0006903367,-0.0004378002,6,1
0.0006545202,-0.0004162455,6,1
0.0005700842,-0.0003836704,6,1
0.000458259,-0.0003441264,6,1
0.0003485408,-0.0002974516,6,1
0.0002561635,-0.0002428356,6,1
0.0001811273,-0.0001825473,6,1
0.0001128978,-0.000119666,6,1
4.709924e-05,-5.840528e-05,6,1
-1.432352e-05,-8.002969e-06,6,1
-7.444975e-05,2.39239e-05,6,1
-0.0001442999,3.753739e-05,6,1
-0.0002212809,4.094075e-05,6,1
-0.0002940482,4.272347e-05,6,1
-0.0003418575,4.709924e-05,6,1
-0.0003519055,5.893001e-05,6,1
-0.0003277578,8.356394e-05,6,1
-0.0002805968,0.0001203528,6,1
-0.0002285739,0.0001573037,6,1
-0.0001935677,0.0001887444,6,1
-0.0001874093,0.0002119197,6,1
-0.000206695,0.0002231022,6,1
-0.0002457528,0.0002242366,6,1
-0.000295993,0.0002193747,6,1
-0.000345585,0.0002169437,6,1
-0.000372974,0.0002190506,6,1
-0.000355471,0.0002229401,6,1
-0.0002831898,0.0002237505,6,1
-0.0001660166,0.0002198609,6,1
-3.328516e-05,0.0002104611,6,1
8.323981e-05,0.0001984683,6,1
0.0001592484,0.0001897167,6,1
0.0001814514,0.0001835583,6,1
0.0001534141,0.0001761032,6,1
9.555677e-05,0.0001636242,6,1
3.283749e-05,0.0001451488,6,1
-2.113026e-05,0.0001195424,6,1
-6.861539e-05,8.275361e-05,6,1
-0.0001161005,3.267542e-05,6,1
-0.0001677994,-2.647842e-05,6,1
-0.0002277635,-8.692878e-05,6,1
-0.0002953447,-0.0001379794,6,1
-0.0003682741,-0.0001715269,6,1
-0.0004363416,-0.0001862748,6,1
-0.0004904714,-0.0001872472,6,1
-0.0005272602,-0.0001783336,6,1
-0.0005536768,-0.0001630995,6,1
-0.0005834968,-0.0001464067,6,1
-0.0006296854,-0.0001293899,6,1
-0.0006958081,-0.0001138316,6,1
-0.0007701961,-9.713889e-05,6,1
-0.00082465,-7.801519e-05,6,1
-0.0008301602,-5.905355e-05,6,1
-0.0007779752,-4.673658e-05,6,1
-0.0006890013,-4.462973e-05,6,1
-0.0005961379,-5.435365e-05,6,1
-0.0005081365,-7.007399e-05,6,1
-0.0004039285,-7.801519e-05,6,1
-0.0002543422,-6.261898e-05,6,1
-4.511593e-05,-2.015787e-05,6,1
0.000200251,4.094075e-05,6,1
0.0004208219,0.0001033359,6,1
0.0005556603,0.0001467694,6,1
0.0005762426,0.0001573037,6,1
0.0004969927,0.000133318,6,1
0.0003752816,8.502253e-05,6,1
0.0002842008,2.635488e-05,6,1
0.0002731804,-3.101625e-05,6,1
0.0003608578,-7.995997e-05,6,1
0.0005211404,-0.0001209625,6,1
0.0006948746,-0.0001622891,6,1
0.0008195029,-0.0002086398,6,1
0.0008596951,-0.0002533699,6,1
0.0008177201,-0.0002844864,6,1
0.0007174017,-0.0002943724,6,1
0.0005888838,-0.0002840002,6,1
0.0004540453,-0.000256287,6,1
0.0003305515,-0.0002225774,6,1
0.0002282883,-0.0001925954,6,1
0.000158114,-0.0001647201,6,1
0.000128456,-0.0001267968,6,1
0.0001399627,-6.715681e-05,6,1
0.0001848548,9.013889e-06,6,1
0.0002553532,8.988449e-05,6,1
0.0003454615,0.0001616794,6,1
0.0004474007,0.0002158093,6,1
0.0005545259,0.0002472499,6,1
0.0006572754,0.0002543808,6,1
0.0007417115,0.0002440086,6,1
0.0007956792,0.000230071,6,1
0.0008071859,0.0002198609,6,1
0.000767804,0.0002182402,6,1
0.0006729957,0.0002229401,6,1
0.0005336195,0.0002286124,6,1
0.0003751195,0.0002247229,6,1
0.0002221298,0.0001981441,6,1
9.053275e-05,0.0001435281,6,1
-9.785688e-06,6.800567e-05,6,1
-7.736692e-05,-1.805102e-05,6,1
-0.0001045939,-0.0001031353,6,1
-8.158062e-05,-0.0001771992,6,1
-5.734056e-06,-0.0002334358,6,1
9.361199e-05,-0.0002715212,6,1
0.0001675138,-0.0002896725,6,1
0.0001712413,-0.0002805968,6,1
8.242948e-05,-0.0002452666,6,1
-8.158062e-05,-0.0001906506,6,1
-0.0002723315,-0.0001378173,6,1
-0.0004327761,-0.0001045939,6,1
-0.0005238568,-9.422172e-05,6,1
-0.000541846,-9.778715e-05,6,1
-0.0005027883,-0.0001024871,6,1
-0.000432452,-9.778715e-05,6,1
-0.0003575778,-7.590833e-05,6,1
-0.0003045825,-3.458168e-05,6,1
-0.0002867553,2.149292e-05,6,1
-0.000303286,8.064677e-05,6,1
-0.0003463953,0.0001312112,6,1
-0.0004036044,0.0001634622,6,1
-0.0004650271,0.0001769136,6,1
-0.0005256396,0.0001759412,6,1
-0.0005873864,0.0001684862,6,1
-0.0006512401,0.0001589243,6,1
-0.0007092595,0.0001501728,6,1
-0.0007410243,0.0001443384,6,1
-0.0007275729,0.0001388282,6,1
-0.000665826,0.0001318594,6,1
-0.0005645352,0.0001261871,6,1
-0.000427428,0.0001274836,6,1
-0.000258718,0.000138342,6,1
-7.752899e-05,0.0001569795,6,1
8.275361e-05,0.0001741585,6,1
0.0001817755,0.0001819376,6,1
0.0002049509,0.0001759412,6,1
0.0001717275,0.0001569795,6,1
0.0001227837,0.0001342904,6,1
0.0001056048,0.0001211631,6,1
0.0001534141,0.0001227837,6,1
0.0002642668,0.000135911,6,1
0.0004059119,0.000150659,6,1
0.0005344298,0.0001547106,6,1
0.0006060627,0.0001462832,6,1
0.0005921251,0.000130887,6,1
0.0004864584,0.0001122495,6,1
0.0003148312,9.361199e-05,6,1
0.0001156529,7.513654e-05,6,1
-7.104638e-05,5.406805e-05,6,1
-0.000216581,2.522042e-05,6,1
-0.0003050687,-1.480971e-05,6,1
-0.0003316474,-6.829127e-05,6,1
-0.000300855,-0.0001334415,6,1
-0.0002323013,-0.0002050744,6,1
-0.0001455964,-0.0002720074,6,1
-6.407757e-05,-0.0003227338,6,1
-6.706447e-06,-0.0003494746,6,1
1.22552e-05,-0.0003491504,6,1
-8.327101e-06,-0.0003248407,6,1
-6.618442e-05,-0.0002802727,6,1
-0.0001460826,-0.0002259808,6,1
-0.0002274394,-0.0001752544,6,1
-0.0002820554,-0.0001349001,6,1
-0.0002922655,-0.0001083214,6,1
-0.0002561249,-9.179074e-05,6,1
-0.0001947022,-7.55842e-05,6,1
-0.0001407345,-4.916756e-05,6,1
-0.000119666,-1.610624e-05,6,1
-0.0001360346,8.689758e-06,6,1
-0.000176875,8.203562e-06,6,1
-0.000221605,-1.821308e-05,6,1
-0.0002546664,-5.22468e-05,6,1
-0.0002702246,-7.542214e-05,6,1
-0.0002702246,-7.882551e-05,6,1
-0.0002579077,-6.650855e-05,6,1
-0.000226467,-4.689865e-05,6,1
-0.0001715269,-2.809907e-05,6,1
-9.600444e-05,-1.416145e-05,6,1
-1.691656e-05,-4.275467e-06,6,1
4.839576e-05,4.151929e-06,6,1
8.956036e-05,1.468618e-05,6,1
0.000110953,2.910999e-05,6,1
0.0001226217,4.920609e-05,6,1
0.0001257009,7.821578e-05,6,1
0.0001154908,0.0001128978,6,1
9.069481e-05,0.0001519555,6,1
6.071273e-05,0.0001989545,6,1
4.158902e-05,0.000250005,6,1
4.72613e-05,0.0002984626,6,1
8.46984e-05,0.0003360618,6,1
0.0001628139,0.0003529166,6,1
0.0002867939,0.0003496752,6,1
0.0004448076,0.0003295791,6,1
0.0006059006,0.000297004,6,1
0.0007284221,0.0002577842,6,1
0.0007802831,0.0002209954,6,1
0.0007498147,0.0001921477,6,1
0.0006407447,0.0001735102,6,1
0.0004691174,0.0001654069,6,1
0.0002545429,0.0001637863,6,1
1.517237e-05,0.0001660552,6,1
-0.000224036,0.0001710792,6,1
-0.0004365036,0.0001808031,6,1
-0.0006074825,0.0001895547,6,1
-0.0007298418,0.0001950649,6,1
-0.0008013126,0.0001994406,6,1
-0.0008128192,0.0002018716,6,1
-0.0007424829,0.0002017096,6,1
-0.0005724764,0.0001984683,6,1
-0.0003045825,0.0001872858,6,1
2.035846e-05,0.0001613553,6,1
0.0003451374,0.0001154908,6,1
