EMG1,EMG2,class,user
0.0003901916,-0.0004504412,6,1
0.0003798194,-0.0003593606,6,1
0.0003576164,-0.0002796244,6,1
0.0003456236,-0.0002053985,6,1
0.0003485408,-0.0001368449,6,1
0.0003470822,-8.02841e-05,6,1
0.0003200173,-4.398147e-05,6,1
0.0002547049,-3.328516e-05,6,1
0.0001560072,-4.47918e-05,6,1
5.034055e-05,-7.396356e-05,6,1
-2.501983e-05,-0.0001118868,6,1
-4.43056e-05,-0.0001468929,6,1
-7.354709e-06,-0.0001630995,6,1
6.233338e-05,-0.0001538618,6,1
0.0001360731,-0.0001293899,6,1
0.0001910133,-0.000114804,6,1
0.0002227781,-0.0001366828,6,1
0.0002491947,-0.0002094502,6,1
0.000292142,-0.0003241924,6,1
0.0003556717,-0.0004510895,6,1
0.0004235771,-0.0005580526,6,1
0.0004704139,-0.000623689,6,1
0.0004751139,-0.000640868,6,1
0.0004435111,-0.000611048,6,1
0.00040105,-0.0005355255,6,1
0.0003702575,-0.0004241867,6,1
0.0003652335,-0.0002934,6,1
0.0003908399,-0.0001626133,6,1
0.0004371906,-4.576419e-05,6,1
0.0004880791,5.001642e-05,6,1
0.0005222749,0.0001240803,6,1
0.0005245438,0.000180479,6,1
0.0004942376,0.0002253711,6,1
0.0004427008,0.0002655633,6,1
0.0003811159,0.0003018659,6,1
0.0003201794,0.000334117,6,1
0.0002704253,0.0003683128,6,1
0.0002363916,0.000408505,6,1
0.0002218057,0.0004540453,6,1
0.0002268297,0.0005016926,6,1
0.0002529222,0.0005462606,6,1
0.0002984626,0.0005854804,6,1
0.0003602095,0.0006190279,6,1
0.0004320045,0.0006441481,6,1
0.0005036374,0.0006603546,6,1
0.0005550121,0.0006715371,6,1
0.0005731634,0.0006807749,6,1
0.000557281,0.0006849886,6,1
0.0005185474,0.0006742922,6,1
0.0004713863,0.0006402585,6,1
0.00043087,0.0005838597,6,1
0.0004102877,0.0005130371,6,1
0.0004062361,0.0004323286,6,1
0.0003979707,0.0003487029,6,1
0.0003675024,0.0002665357,6,1
0.000311914,0.0001863134,6,1
0.0002376881,0.000108522,6,1
0.0001503349,3.283749e-05,6,1
5.536457e-05,-4.025397e-05,6,1
-3.344723e-05,-0.0001152902,6,1
-0.0001021629,-0.0001925954,6,1
-0.0001439758,-0.0002621213,6,1
-0.0001673132,-0.0003057169,6,1
-0.00018433,-0.000315765,6,1
-0.0001974573,-0.0002904828,6,1
-0.0002097743,-0.0002310048,6,1
-0.0002248464,-0.0001472171,6,1
-0.0002491561,-5.500191e-05,6,1
-0.0002887001,2.457216e-05,6,1
-0.0003434782,7.724339e-05,6,1
-0.000405063,0.0001007429,6,1
-0.0004604893,0.0001017153,6,1
-0.0004954954,8.939829e-05,6,1
-0.0005000332,7.594687e-05,6,1
-0.0004700511,6.508849e-05,6,1
-0.0004089525,5.844381e-05,6,1
-0.0003233821,5.487838e-05,6,1
-0.0002196603,5.325772e-05,6,1
-0.0001045939,4.904402e-05,6,1
2.635488e-05,4.077869e-05,6,1
0.0001884202,2.781346e-05,6,1
0.0003901916,1.209313e-05,6,1
0.000616759,-5.409925e-06,6,1
0.0008263097,-2.129233e-05,6,1
0.0009728169,-3.377136e-05,6,1
0.001026947,-4.219875e-05,6,1
0.0009870786,-4.673658e-05,6,1
0.0008773603,-4.932962e-05,6,1
0.0007323117,-5.240886e-05,6,1
0.0005815908,-5.548811e-05,6,1
0.0004444835,-5.824322e-05,6,1
0.0003334687,-5.937768e-05,6,1
0.0002466017,-5.629844e-05,6,1
0.0001733481,-5.030202e-05,6,1
9.896015e-05,-4.414354e-05,6,1
1.711715e-05,-3.620233e-05,6,1
-6.845333e-05,-2.210265e-05,6,1
-0.0001468929,-7.100305e-07,6,1
-0.000201509,2.262738e-05,6,1
-0.0002209568,4.207521e-05,6,1
-0.0002011848,5.390598e-05,6,1
-0.0001566169,5.779555e-05,6,1
-0.0001130213,5.763349e-05,6,1
-0.0001010285,5.974033e-05,6,1
-0.0001417068,6.541262e-05,6,1
-0.0002318152,7.335383e-05,6,1
-0.0003519055,7.870197e-05,6,1
-0.0004724821,7.562274e-05,6,1
-0.0005651835,6.800567e-05,6,1
-0.0006157478,6.103686e-05,6,1
-0.0006207718,5.844381e-05,6,1
-0.0005851175,6.265751e-05,6,1
-0.0005136467,7.30297e-05,6,1
-0.0004055492,8.907416e-05,6,1
-0.0002702246,0.000110953,6,1
-0.0001277692,0.0001401247,6,1
-3.303076e-06,0.0001757791,6,1
8.453633e-05,0.0002125679,6,1
0.0001297526,0.00024255,6,1
0.0001388282,0.0002639427,6,1
0.0001239182,0.0002767458,6,1
0.0001017153,0.0002830664,6,1
9.004655e-05,0.0002843629,6,1
0.0001143563,0.0002783665,6,1
0.0001885823,0.0002652392,6,1
0.0003080245,0.0002464396,6,1
0.0004525868,0.0002258573,6,1
0.0006013628,0.0002070577,6,1
0.0007340944,0.0001913374,6,1
0.0008242028,0.0001816135,6,1
0.0008408955,0.0001812893,6,1
0.0007616456,0.000187934,6,1
0.0005751082,0.0001960373,6,1
0.00029198,0.0001970097,6,1
-5.435365e-05,0.0001840444,6,1
-0.0004091146,0.000155683,6,1
-0.0007184973,0.0001169494,6,1
-0.0009458748,7.270556e-05,6,1
-0.001090437,2.197911e-05,6,1
-0.001182166,-3.766092e-05,6,1
-0.001254933,-0.0001081593,6,1
-0.001323163,-0.000191785,6,1
-0.001376644,-0.000283514,6,1
-0.001398685,-0.0003726499,6,1
-0.001373727,-0.0004478482,6,1
-0.001301932,-0.0004995471,6,1
-0.001197562,-0.0005199672,6,1
-0.001082172,-0.0005089468,6,1
-0.0009771534,-0.0004719959,6,1
-0.0008964449,-0.0004188385,6,1
-0.00083956,-0.0003630881,6,1
-0.00079483,-0.0003141443,6,1
-0.0007496137,-0.0002793003,6,1
-0.0006935392,-0.0002622834,6,1
-0.0006262821,-0.0002593663,6,1
-0.0005575664,-0.0002647144,6,1
-0.0005027883,-0.0002679557,6,1
-0.000462272,-0.0002629317,6,1
-0.0004256453,-0.0002546664,6,1
-0.0003797808,-0.0002431597,6,1
-0.0003220855,-0.0002243602,6,1
-0.0002472114,-0.0001987538,6,1
-0.0001483515,-0.0001773612,6,1
-3.279896e-05,-0.0001713648,6,1
7.432621e-05,-0.0001799543,6,1
0.0001464453,-0.0001919471,6,1
0.0001761032,-0.000191623,6,1
0.0001851789,-0.0001712027,6,1
0.0001992786,-0.000137169,6,1
0.0002346088,-0.0001002181,6,1
0.0002827423,-6.602235e-05,6,1
0.0003232586,-3.004385e-05,6,1
0.000339303,1.047248e-05,6,1
0.0003339549,5.341979e-05,6,1
0.0003227724,9.053275e-05,6,1
0.0003175863,0.0001158149,6,1
0.0003111037,0.0001274836,6,1
0.000282256,0.0001213252,6,1
0.0002162954,9.409818e-05,6,1
0.0001161391,4.904402e-05,6,1
3.341602e-06,-6.544382e-06,6,1
-7.60704e-05,-6.116039e-05,6,1
-7.039812e-05,-0.0001050801,6,1
5.439218e-05,-0.0001313347,6,1
0.0002842008,-0.0001402483,6,1
0.0005691118,-0.0001349001,6,1
0.0008660157,-0.0001188556,6,1
0.001138124,-9.29252e-05,6,1
0.001359991,-6.051213e-05,6,1
0.001505851,-2.550602e-05,6,1
0.001546529,9.500085e-06,6,1
0.001463551,4.515445e-05,6,1
0.001269883,7.789165e-05,6,1
0.001002961,0.0001049566,6,1
0.0007047605,0.0001195424,6,1
0.0004107739,0.0001150046,6,1
0.0001589243,9.053275e-05,6,1
-8.002969e-06,5.066468e-05,6,1
-6.278104e-05,5.448452e-06,6,1
-2.064406e-05,-3.425755e-05,6,1
6.573675e-05,-5.840528e-05,6,1
0.0001433661,-6.537409e-05,6,1
0.0001892305,-6.035007e-05,6,1
0.0002070577,-4.787104e-05,6,1
0.0002128921,-2.988179e-05,6,1
0.00021273,-4.923729e-06,6,1
0.0002008992,2.910999e-05,6,1
0.0001733481,7.384002e-05,6,1
0.0001388282,0.0001232699,6,1
0.0001107909,0.0001697827,6,1
0.0001004187,0.0002088404,6,1
0.0001009049,0.0002378501,6,1
9.928428e-05,0.0002547049,6,1
8.680524e-05,0.0002626462,6,1
6.508849e-05,0.0002675081,6,1
4.434413e-05,0.0002793389,6,1
3.202716e-05,0.0003054314,6,1
2.846173e-05,0.0003464339,6,1
2.651694e-05,0.0003931088,6,1
1.079661e-05,0.0004365423,6,1
-2.7937e-05,0.0004673347,6,1
-9.162867e-05,0.0004837033,6,1
-0.0001736337,0.0004848378,6,1
-0.0002579077,0.0004712243,6,1
-0.0003246786,0.0004422146,6,1
-0.0003575778,0.000401212,6,1
-0.0003491504,0.000346596,6,1
-0.0003019894,0.0002775562,6,1
-0.0002350565,0.0001932822,6,1
-0.0001720131,9.669123e-05,6,1
-0.0001396,-9.461558e-06,6,1
-0.0001496481,-0.00012469,6,1
-0.0001945401,-0.0002400805,6,1
-0.0002397564,-0.0003467195,6,1
-0.000241377,-0.0004431483,6,1
-0.000171851,-0.0005288809,6,1
-4.706071e-05,-0.0006005137,6,1
8.907416e-05,-0.000650754,6,1
0.0001916615,-0.0006692294,6,1
0.0002373639,-0.0006522125,6,1
0.0002315296,-0.000601162,6,1
0.0001947408,-0.0005227224,6,1
0.0001430419,-0.0004327761,6,1
8.907416e-05,-0.0003512573,6,1
4.369587e-05,-0.0002946965,6,1
1.047248e-05,-0.0002642282,6,1
-1.740276e-05,-0.0002509389,6,1
-5.402952e-05,-0.0002429977,6,1
-0.0001128592,-0.0002279256,6,1
-0.0001968091,-0.0001981056,6,1
-0.0003005308,-0.0001543479,6,1
-0.0004105732,-0.0001062146,6,1
-0.0005035987,-6.423963e-05,6,1
-0.0005484907,-3.328516e-05,6,1
-0.0005126743,-1.075808e-05,6,1
-0.0003815635,1.047248e-05,6,1
-0.0001750923,3.964424e-05,6,1
5.098881e-05,7.870197e-05,6,1
0.0002303951,0.0001248906,6,1
0.0003158036,0.0001715654,6,1
0.0002947351,0.00021273,6,1
0.0002059233,0.0002428742,6,1
0.0001287802,0.0002563256,6,1
0.0001393144,0.0002516257,6,1
0.0002624841,0.000225047,6,1
0.0004618245,0.0001803169,6,1
0.0006663511,0.000133318,6,1
0.0008112376,0.0001025256,6,1
0.0008541849,0.0001051186,6,1
0.0007861174,0.0001461212,6,1
0.0006324793,0.0002195368,6,1
0.0004405939,0.000309483,6,1
0.0002545429,0.0003948915,6,1
9.733949e-05,0.0004611762,6,1
-3.150244e-05,0.0005021787,6,1
-0.0001468929,0.0005208163,6,1
-0.0002569353,0.0005131993,6,1
-0.0003613053,0.0004767345,6,1
-0.0004582204,0.0004125566,6,1
-0.000546546,0.0003252034,6,1
-0.0006150996,0.0002188885,6,1
-0.0006377887,0.00010366,6,1
-0.0005979206,-3.951337e-06,6,1
-0.0005021401,-8.482193e-05,6,1
-0.0003770257,-0.0001245279,6,1
-0.0002577456,-0.0001219349,6,1
-0.0001754164,-8.40116e-05,6,1
-0.0001394379,-2.631635e-05,6,1
-0.0001433275,3.624086e-05,6,1
-0.0001862748,9.247754e-05,6,1
-0.000271035,0.0001347766,6,1
-0.0003904771,0.0001550348,6,1
-0.0005232086,0.0001508211,6,1
-0.0006322784,0.0001229458,6,1
-0.0006833291,7.886404e-05,6,1
-0.0006590193,3.316162e-05,6,1
-0.0005556216,-5.479652e-07,6,1
-0.0003875599,-1.724069e-05,6,1
-0.0001925954,-1.918548e-05,6,1
-9.137427e-06,-1.3027e-05,6,1
0.0001336421,-5.085794e-06,6,1
0.0002213195,4.313994e-06,6,1
0.0002467637,1.209313e-05,6,1
0.0002140265,2.165498e-05,6,1
0.0001399627,4.02925e-05,6,1
4.693717e-05,7.092284e-05,6,1
-3.847125e-05,0.0001090082,6,1
-9.956988e-05,0.0001454729,6,1
-0.0001386276,0.0001735102,6,1
-0.0001747682,0.000187934,6,1
-0.000224036,0.0001790204,6,1
-0.0002865932,0.0001391524,6,1
-0.0003450988,6.83298e-05,6,1
-0.0003747568,-2.761287e-05,6,1
-0.000365519,-0.0001452723,6,1
-0.000328244,-0.0002794623,6,1
-0.0002843243,-0.0004207833,6,1
-0.0002452666,-0.0005514079,6,1
-0.000211557,-0.00064103,6,1
-0.0001831956,-0.0006596675,6,1
-0.0001588858,-0.0005987309,6,1
-0.0001363587,-0.0004789647,6,1
-0.0001133454,-0.0003413713,6,1
-8.271508e-05,-0.0002274394,6,1
-4.641245e-05,-0.0001566169,6,1
-1.853722e-05,-0.0001250141,6,1
-1.772689e-05,-0.0001178833,6,1
-4.90055e-05,-0.0001227452,6,1
-9.827335e-05,-0.0001334415,6,1
-0.0001368449,-0.0001441378,6,1
-0.0001316588,-0.0001465688,6,1
-7.752899e-05,-0.0001332795,6,1
1.938607e-05,-0.0001058904,6,1
0.0001573037,-7.396356e-05,6,1
0.0003433547,-4.398147e-05,6,1
0.0005768909,-2.015787e-05,6,1
0.0008292268,-5.57199e-06,6,1
0.001048015,-1.196227e-06,6,1
0.001185285,-4.923729e-06,6,1
0.001210729,-1.659243e-05,6,1
0.001120621,-3.409549e-05,6,1
0.0009404037,-5.516398e-05,6,1
0.0007130259,-8.07703e-05,6,1
0.0004788414,-0.0001118868,6,1
0.000279663,-0.0001449482,6,1
0.0001610312,-0.0001721751,6,1
0.0001579519,-0.000181737,6,1
0.0002689667,-0.0001684476,6,1
0.0004488593,-0.0001365208,6,1
0.0006185417,-9.762509e-05,6,1
0.000708326,-5.970181e-05,6,1
0.0006942263,-2.161646e-05,6,1
0.0006010387,2.522042e-05,6,1
0.0004726828,9.069481e-05,6,1
0.0003454615,0.0001759412,6,1
0.0002406053,0.0002759355,6,1
0.0001726999,0.0003828986,6,1
0.000148228,0.0004864584,6,1
0.0001667035,0.0005752703,6,1
0.000205275,0.0006386379,6,1
0.0002310434,0.0006713751,6,1
0.0002295848,0.0006704027,6,1
0.0002122438,0.0006310208,6,1
0.0001965235,0.0005537156,6,1
0.0001957132,0.000443349,6,1
0.0002093267,0.0003106175,6,1
0.000227478,0.0001743205,6,1
0.0002368777,5.034055e-05,6,1
0.0002290986,-4.981582e-05,6,1
0.0001991165,-0.0001156143,6,1
0.0001519555,-0.0001391138,6,1
8.453633e-05,-0.0001143178,6,1
-3.627206e-06,-4.446767e-05,6,1
-0.0001068628,4.888196e-05,6,1
-0.0002143121,0.0001334801,6,1
-0.0003167374,0.0001803169,6,1
-0.0004073319,0.0001762653,6,1
-0.0004788027,0.0001334801,6,1
-0.0005215878,7.221937e-05,6,1
-0.0005288809,9.500085e-06,6,1
-0.000509595,-4.284701e-05,6,1
-0.0004903093,-8.222889e-05,6,1
-0.0005071641,-0.0001177212,6,1
-0.0005784728,-0.0001588858,6,1
-0.0006924047,-0.0002078295,6,1
-0.0008152502,-0.0002593663,6,1
-0.0009097343,-0.0003086341,6,1
-0.000946361,-0.0003538503,6,1
-0.0009197823,-0.0004018217,6,1
-0.0008504183,-0.0004570859,6,1
-0.0007742477,-0.0005201293,6,1
-0.0007139594,-0.0005786349,6,1
-0.0006676087,-0.0006183409,6,1
-0.0006219063,-0.0006282268,6,1
-0.0005705316,-0.0006078067,6,1
-0.0005147812,-0.000561456,6,1
-0.0004629203,-0.0004963057,6,1
-0.0004141386,-0.0004165696,6,1
-0.0003588744,-0.0003318095,6,1
-0.0002955068,-0.0002517492,6,1
-0.0002365151,-0.0001831956,6,1
-0.000201671,-0.0001287416,6,1
-0.0002081536,-8.611845e-05,6,1
-0.0002639041,-4.85193e-05,6,1
-0.0003616295,-1.075808e-05,6,1
-0.00047232,3.299956e-05,6,1
-0.0005562698,8.04847e-05,6,1
-0.0005728005,0.000128456,6,1
-0.0004979264,0.0001709172,6,1
-0.0003350507,0.0002015475,6,1
-0.0001159385,0.0002205092,6,1
0.0001093323,0.0002287745,6,1
0.0002835526,0.0002268297,6,1
0.0003665301,0.0002192126,6,1
0.0003631267,0.0002117576,6,1
0.0003201794,0.0002057612,6,1
0.0002851732,0.0002012234,6,1
0.0002790148,0.0001895547,6,1
0.0002926282,0.0001663793,6,1
0.0003096451,0.0001373696,6,1
0.0003229345,0.000111115,6,1
0.000329255,9.669123e-05,6,1
0.000319369,9.442231e-05,6,1
0.0002816078,9.912221e-05,6,1
0.0002149989,0.0001015532,6,1
0.0001325077,9.588091e-05,6,1
6.622294e-05,7.562274e-05,6,1
4.904402e-05,4.158902e-05,6,1
8.74535e-05,5.934648e-06,6,1
0.000168162,-1.318906e-05,6,1
0.0002670219,-2.978945e-06,6,1
0.000359075,3.591673e-05,6,1
0.0004297355,9.361199e-05,6,1
0.0004689553,0.0001540623,6,1
0.0004697657,0.0002057612,6,1
0.000435894,0.0002480603,6,1
0.0003781987,0.0002819319,6,1
0.0003017039,0.0003075383,6,1
0.0002060853,0.0003230965,6,1
8.356394e-05,0.0003323342,6,1
-6.407757e-05,0.0003376824,6,1
-0.0002104225,0.000341572,6,1
-0.0003165753,0.0003448133,6,1
-0.0003502849,0.0003470822,6,1
-0.0002990722,0.0003459477,6,1
-0.0001679614,0.0003404375,6,1
2.116879e-05,0.0003320101,6,1
0.000234933,0.0003203414,6,1
0.0004384871,0.0003047831,6,1
0.0006146522,0.0002874421,6,1
0.0007668316,0.0002754493,6,1
0.0009028045,0.0002709115,6,1
0.001023381,0.0002795009,6,1
0.001128238,0.0003012177,6,1
0.001208136,0.0003287688,6,1
0.001244277,0.0003464339,6,1
0.00121867,0.0003412479,6,1
0.00112921,0.0003102934,6,1
0.0009875648,0.0002577842,6,1
0.0008264717,0.0001916615,6,1
0.0006924436,0.0001219734,6,1
0.0006219451,5.325772e-05,6,1
0.0006264829,-2.015787e-05,6,1
0.0006992503,-0.0001054042,6,1
0.0008062135,-0.0002036158,6,1
0.0008780085,-0.0003068514,6,1
0.0008436506,-0.0004006872,6,1
0.0006648925,-0.0004700511,6,1
0.0003577785,-0.0005050572,6,1
-1.578211e-05,-0.0005048952,6,1
-0.0003737844,-0.00047702,6,1
-0.0006515643,-0.0004381243,6,1
-0.0008254603,-0.0004003631,6,1
-0.0009120032,-0.0003718396,6,1
-0.0009508989,-0.0003522297,6,1
-0.000971319,-0.0003344025,6,1
-0.0009813671,-0.0003121996,6,1
-0.0009732639,-0.000285945,6,1
-0.0009436059,-0.0002559629,6,1
-0.0008972552,-0.0002232257,6,1
-0.0008437737,-0.0001924333,6,1
-0.0007938576,-0.0001666649,6,1
-0.0007543136,-0.0001465688,6,1
-0.0007219006,-0.000132145,6,1
-0.0006851118,-0.0001191798,6,1
-0.0006269303,-0.0001037836,6,1
-0.0005308256,-8.40116e-05,6,1
-0.0003974459,-6.456377e-05,6,1
-0.0002425115,-4.754691e-05,6,1
-7.833932e-05,-3.701266e-05,6,1
7.789165e-05,-3.490581e-05,6,1
0.0002018716,-3.425755e-05,6,1
0.0002701012,-2.712668e-05,6,1
0.0002723701,-1.075808e-05,6,1
0.0002193747,1.306552e-05,6,1
0.0001375317,3.753739e-05,6,1
5.811968e-05,5.649903e-05,6,1
7.069105e-06,6.119892e-05,6,1
-1.270286e-05,4.564065e-05,6,1
-1.837515e-05,2.855407e-06,6,1
-2.664048e-05,-6.39155e-05,6,1
-4.317115e-05,-0.0001412206,6,1
-7.55842e-05,-0.0002149604,6,1
-0.000134576,-0.0002783279,6,1
-0.000221443,-0.000325651,6,1
-0.0003156029,-0.000350609,6,1
-0.000387722,-0.0003446126,6,1
-0.0004120317,-0.0003052308,6,1
-0.0003809152,-0.0002365151,6,1
-0.0003160891,-0.0001499722,6,1
-0.0002501286,-5.775702e-05,6,1
-0.0002036158,3.13789e-05,6,1
-0.0001776853,0.0001128978,6,1
-0.0001562927,0.0001872858,6,1
-0.0001258245,0.0002585945,6,1
-9.098041e-05,0.0003271482,6,1
-7.380149e-05,0.0003879227,6,1
-9.357346e-05,0.000433301,6,1
-0.0001438137,0.0004574487,6,1
-0.0001989159,0.0004624728,6,1
-0.0002282497,0.0004519385,6,1
-0.0002055606,0.0004276287,6,1
-0.000129714,0.0003921364,6,1
-3.231277e-05,0.0003517821,6,1
5.066468e-05,0.000302028,6,1
0.0001005808,0.0002307193,6,1
0.0001107909,0.0001373696,6,1
6.703327e-05,4.223728e-05,6,1
-5.176061e-05,-3.101625e-05,6,1
-0.000243808,-7.526008e-05,6,1
-0.0004608134,-9.389759e-05,6,1
-0.0006301716,-9.908367e-05,6,1
-0.0007011562,-0.000104756,6,1
-0.0006742534,-0.0001240417,6,1
-0.0005925725,-0.0001656925,6,1
-0.0005029504,-0.0002324634,6,1
-0.0004284004,-0.0003092824,6,1
-0.0003687603,-0.0003718396,6,1
-0.0003190063,-0.0003932322,6,1
-0.0002802727,-0.0003590364,6,1
-0.0002572594,-0.0002746004,6,1
-0.0002486699,-0.0001571031,6,1
-0.0002446183,-2.874733e-05,6,1
-0.0002425115,9.004655e-05,6,1
-0.0002470493,0.0001845306,6,1
-0.0002728177,0.000239957,6,1
-0.000325813,0.0002550291,6,1
-0.000387884,0.0002410915,6,1
-0.0004259694,0.0002106232,6,1
-0.0004039285,0.000175455,6,1
-0.0002997205,0.0001443384,6,1
-0.0001209625,0.0001224596,6,1
9.16672e-05,0.0001143563,6,1
0.0002760976,0.0001200286,6,1
0.0003827366,0.0001295905,6,1
0.0004018603,0.0001274836,6,1
0.0003696093,9.701536e-05,6,1
0.0003410858,2.862379e-05,6,1
0.0003632887,-7.671866e-05,6,1
0.0004512903,-0.0002024813,6,1
0.0005942319,-0.0003250027,6,1
0.0007619697,-0.0004240246,6,1
0.000918849,-0.0004833405,6,1
0.001039426,-0.0004917679,6,1
0.001110735,-0.0004439586,6,1
0.001142337,-0.0003551469,6,1
0.001155789,-0.0002632558,6,1
0.00115984,-0.0002078295,6,1
0.001146227,-0.0002092881,6,1
0.001093718,-0.0002606628,6,1
0.0009809202,-0.0003397507,6,1
0.0008037825,-0.0004256453,6,1
0.0005841838,-0.0005065158,6,1
0.0003598854,-0.0005702075,6,1
0.000162976,-0.0005958138,6,1
1.825161e-05,-0.0005604835,6,1
-6.504996e-05,-0.0004554653,6,1
-9.357346e-05,-0.0002972895,6,1
-9.373552e-05,-0.0001185315,6,1
-8.757704e-05,4.175109e-05,6,1
-9.422172e-05,0.0001566554,6,1
-0.0001253383,0.0002258573,6,1
-0.0001807646,0.0002650771,6,1
-0.0002486699,0.0002923041,6,1
-0.0003126857,0.0003141829,6,1
-0.0003611433,0.0003248792,6,1
-0.0003937184,0.0003218,6,1
-0.0004259694,0.0003104554,6,1
-0.0004762096,0.0003036487,6,1
-0.0005475183,0.0003099692,6,1
-0.000621096,0.0003344411,6,1
-0.0006655019,0.0003710679,6,1
-0.0006598296,0.0004072085,6,1
-0.0006009999,0.0004279528,6,1
-0.0005084606,0.000420984,6,1
-0.0004168937,0.0003799815,6,1
-0.0003535262,0.0003072141,6,1
-0.0003214373,0.0002085163,6,1
-0.000303448,9.750156e-05,6,1
-0.0002752487,-9.299493e-06,6,1
-0.0002136638,-0.0001037836,6,1
-0.0001003802,-0.0001825473,6,1
6.735741e-05,-0.000236353,6,1
0.0002827423,-0.0002509389,6,1
0.0005224369,-0.0002172293,6,1
0.0007444666,-0.000134738,6,1
0.0009047493,-3.465141e-06,6,1
0.0009745996,0.0001709172,6,1
0.0009496415,0.0003734989,6,1
0.0008455954,0.000579484,6,1
0.000693416,0.0007520836,6,1
0.0005404262,0.000861802,6,1
0.0004292493,0.0009023183,6,1
0.0003733368,0.0008921082,6,1
0.0003600474,0.0008588848,6,1
0.0003885709,0.0008233925,6,1
0.0004663623,0.0007921138,6,1
0.0005885597,0.0007609973,6,1
0.0007162672,0.000720643,6,1
0.0007956792,0.0006624615,6,1
0.0007848209,0.0005835356,6,1
0.0006747784,0.000485486,6,1
0.000492779,0.0003707437,6,1
0.0002778803,0.0002430362,6,1
6.427817e-05,0.0001041462,6,1
-0.0001209625,-4.592625e-05,6,1
-0.0002575835,-0.0002034537,6,1
-0.0003408851,-0.0003617915,6,1
-0.0003814014,-0.0005152673,6,1
-0.000400201,-0.0006616123,6,1
-0.0004186764,-0.0007992057,6,1
-0.0004428242,-0.0009209168,6,1
-0.0004582204,-0.001010377,6,1
-0.0004420138,-0.001046517,6,1
-0.0003797808,-0.001021235,6,1
-0.000276221,-0.000946361,6,1
-0.0001506204,-0.0008447461,6,1
-1.529591e-05,-0.0007460483,6,1
0.0001145184,-0.0006706879,6,1
0.0002232643,-0.000623689,6,1
0.0002932765,-0.0005899795,6,1
0.0003135347,-0.0005489769,6,1
0.000284687,-0.0004873921,6,1
0.0002184023,-0.0004016596,6,1
0.0001268354,-0.0003000446,6,1
2.570662e-05,-0.0001961608,6,1
-6.699475e-05,-0.0001036215,6,1
-0.0001305243,-3.069211e-05,6,1
-0.0001588858,1.808955e-05,6,1
-0.0001720131,4.904402e-05,6,1
-0.0001977815,6.638502e-05,6,1
-0.0002545043,7.254349e-05,6,1
-0.0003379679,6.314371e-05,6,1
-0.000435045,4.304761e-05,6,1
-0.0005301774,2.052053e-05,6,1
-0.0006103997,3.503668e-06,6,1
-0.0006604778,4.244267e-07,6,1
-0.000673281,1.452411e-05,6,1
-0.0006578848,4.077869e-05,6,1
-0.0006253097,6.897806e-05,6,1
-0.0005880346,9.199134e-05,6,1
-0.0005522182,0.0001073875,6,1
-0.0005199672,0.0001163011,6,1
-0.0004843129,0.0001201907,6,1
-0.0004390967,0.0001247285,6,1
-0.0003886944,0.0001385041,6,1
-0.0003541745,0.0001645966,6,1
-0.0003682741,0.0001991165,6,1
-0.000444931,0.000237526,6,1
-0.000556594,0.0002785285,6,1
-0.0006476747,0.0003240689,6,1
-0.0006713362,0.0003734989,6,1
-0.0006095894,0.0004187151,6,1
-0.0004802613,0.0004512903,6,1
-0.0003251648,0.0004640934,6,1
-0.0001896782,0.0004579349,6,1
-0.0001007043,0.0004370285,6,1
-6.051213e-05,0.0004070464,6,1
-5.548811e-05,0.0003699334,6,1
-7.250496e-05,0.0003299033,6,1
-0.0001105903,0.000294573,6,1
-0.000169258,0.0002725321,6,1
-0.0002444563,0.0002637806,6,1
-0.0003290543,0.0002621599,6,1
-0.0004160834,0.000262322,6,1
-0.0004886886,0.0002650771,6,1
-0.0005211017,0.0002712356,6,1
-0.0004899852,0.0002804733,6,1
-0.0003864254,0.0002918179,6,1
-0.0002237119,0.0003034866,6,1
-2.971972e-05,0.0003154794,6,1
0.0001618415,0.0003311998,6,1
0.0003195311,0.0003503235,6,1
0.0004200116,0.0003628026,6,1
0.0004613383,0.0003568061,6,1
0.0004600418,0.0003284447,6,1
0.0004376768,0.0002817699,6,1
0.0003979707,0.0002255332,6,1
0.000334117,0.000168162,6,1
0.0002431983,0.0001146805,6,1
0.0001459591,6.816773e-05,6,1
8.453633e-05,3.040651e-05,6,1
0.000101067,2.855407e-06,6,1
0.0002125679,-2.080613e-05,6,1
0.0004034809,-4.868137e-05,6,1
0.0006418792,-8.741498e-05,6,1
0.0008817361,-0.0001376552,6,1
0.001071839,-0.0001938919,6,1
0.001177181,-0.0002527216,6,1
0.001180423,-0.0003141443,6,1
0.001090963,-0.0003810773,6,1
0.0009379727,-0.0004551412,6,1
0.0007640765,-0.0005296912,6,1
0.0006062248,-0.0005865761,6,1
0.0004811103,-0.0006076446,6,1
0.0003879227,-0.0005865761,6,1
0.0003237448,-0.0005340669,6,1
0.0002799871,-0.000472158,6,1
0.0002388225,-0.0004243487,6,1
0.0001851789,-0.0004094387,6,1
0.0001069013,-0.0004245108,6,1
3.017472e-06,-0.0004525481,6,1
-0.0001136696,-0.0004726442,6,1
-0.0002167431,-0.0004766958,6,1
-0.0002828657,-0.0004619479,6,1
-0.000295993,-0.000430021,6,1
-0.000243808,-0.0003836704,6,1
-0.0001300382,-0.0003230579,6,1
8.041497e-06,-0.0002543422,6,1
0.0001216493,-0.0001827094,6,1
0.0001738343,-0.0001170729,6,1
0.0001539003,-5.710876e-05,6,1
7.918817e-05,-2.978945e-06,6,1
-1.967167e-05,4.547859e-05,6,1
-0.0001131834,8.502253e-05,6,1
-0.0001799543,0.0001166253,6,1
-0.0002122053,0.0001427178,6,1
-0.0002185258,0.0001675138,6,1
-0.0002169052,0.0001908512,6,1
-0.0002224154,0.00021273,6,1
-0.0002374874,0.0002302331,6,1
-0.0002540181,0.0002414156,6,1
-0.0002574215,0.000244981,6,1
-0.0002335979,0.0002397949,6,1
-0.00016942,0.0002205092,6,1
-5.143648e-05,0.0001809652,6,1
0.0001316974,0.0001214872,6,1
0.0003705817,4.434413e-05,6,1
0.0006284277,-4.641245e-05,6,1
0.0008496471,-0.0001413827,6,1
0.0009839993,-0.0002316531,6,1
0.001008471,-0.0003136581,6,1
0.0009259799,-0.0003817256,6,1
0.0007535422,-0.0004237005,6,1
0.000517575,-0.0004261314,6,1
0.0002501671,-0.0003836704,6,1
-1.562004e-05,-0.0003016653,6,1
-0.0002593663,-0.0001922712,6,1
-0.0004692408,-7.428769e-05,6,1
-0.0006209339,2.878586e-05,6,1
-0.0006825188,0.0001004187,6,1
-0.0006431369,0.0001304008,6,1
-0.0005232086,0.0001177597,6,1
-0.0003698948,6.914012e-05,6,1
-0.0002485079,1.002961e-07,6,1
-0.0002206326,-6.456377e-05,6,1
-0.0003144685,-9.843541e-05,6,1
-0.0004979264,-9.033215e-05,6,1
-0.0007014804,-4.819517e-05,6,1
-0.0008572251,1.306552e-05,6,1
-0.000933882,7.90261e-05,6,1
-0.0009376095,0.0001336421,6,1
-0.0009024413,0.0001731861,6,1
-0.0008651663,0.0002017096,6,1
-0.0008359946,0.0002245608,6,1
-0.0008063366,0.000242388,6,1
-0.0007505861,0.0002550291,6,1
-0.0006390853,0.0002600531,6,1
-0.0004642168,0.0002587566,6,1
-0.0002447804,0.000257298,6,1
-1.594417e-05,0.0002553532,6,1
0.0001871237,0.0002488706,6,1
0.0003431926,0.0002347709,6,1
0.0004376768,0.0002133783,6,1
0.0004749518,0.000187772,6,1
0.0004731691,0.000162976,6,1
0.0004524247,0.000145797,6,1
0.0004300596,0.0001342904,6,1
0.0004156358,0.0001274836,6,1
0.0004063981,0.0001195424,6,1
0.0003976466,0.0001090082,6,1
0.0003929467,9.328786e-05,6,1
0.0004063981,7.059871e-05,6,1
0.0004486972,4.35338e-05,6,1
0.0005144958,1.825161e-05,6,1
0.0005890459,-1.196227e-06,6,1
0.0006614891,-1.756482e-05,6,1
0.0007303669,-3.26369e-05,6,1
0.000797624,-4.689865e-05,6,1
0.0008536987,-5.970181e-05,6,1
0.0008784947,-6.861539e-05,6,1
0.0008556435,-7.120844e-05,6,1
0.0007760693,-6.683268e-05,6,1
0.0006501445,-5.69467e-05,6,1
0.0004984512,-4.560212e-05,6,1
0.0003266619,-3.555408e-05,6,1
0.0001248906,-2.907146e-05,6,1
-0.0001071869,-3.296103e-05,6,1
-0.0003420196,-4.835724e-05,6,1
-0.0005429805,-7.088431e-05,6,1
-0.0006851118,-8.903562e-05,6,1
-0.0007680892,-9.438378e-05,6,1
-0.0008045539,-8.287715e-05,6,1
-0.0008035815,-6.245691e-05,6,1
-0.0007632272,-4.333321e-05,6,1
-0.0006752257,-2.84232e-05,6,1
-0.0005470322,-1.691656e-05,6,1
-0.00039777,-4.437533e-06,6,1
-0.0002567732,1.290346e-05,6,1
-0.0001457585,3.462021e-05,6,1
-7.363943e-05,5.504044e-05,6,1
-4.122636e-05,6.508849e-05,6,1
-5.257093e-05,5.844381e-05,6,1
-0.0001058904,3.510641e-05,6,1
-0.0001950263,2.623614e-07,6,1
-0.0003094444,-3.830919e-05,6,1
-0.0004267797,-6.974985e-05,6,1
-0.0005233706,-8.368748e-05,6,1
-0.00058139,-7.623246e-05,6,1
-0.0005933828,-4.965376e-05,6,1
-0.0005624284,-9.137427e-06,6,1
-0.0004877163,3.769945e-05,6,1
-0.0003661673,8.161915e-05,6,1
-0.000206533,0.0001148425,6,1
-2.599222e-05,0.0001380179,6,1
0.0001547106,0.0001584381,6,1
0.0003114278,0.0001809652,6,1
0.0004180668,0.0002060853,6,1
0.0004472386,0.0002260194,6,1
0.0003897054,0.0002316917,6,1
0.0002608634,0.0002224539,6,1
9.733949e-05,0.0002075439,6,1
-6.278104e-05,0.00019782,6,1
-0.0001932436,0.0001971717,6,1
-0.0002865932,0.000205275,6,1
-0.0003434782,0.0002166196,6,1
-0.0003621157,0.0002243987,6,1
-0.0003376438,0.0002265056,6,1
-0.0002820554,0.0002205092,6,1
-0.0002224154,0.0002096508,6,1
-0.0001828714,0.0001966855,6,1
-0.0001733096,0.0001811273,6,1
-0.0001870851,0.0001608691,6,1
-0.0002120432,0.0001341283,6,1
-0.0002337599,0.0001051186,6,1
-0.000236353,7.497447e-05,6,1
-0.0001940539,4.320967e-05,6,1
-9.422172e-05,1.063454e-05,6,1
4.612685e-05,-1.853722e-05,6,1
0.0001906891,-3.928157e-05,6,1
0.0003012177,-4.835724e-05,6,1
0.0003621543,-4.657452e-05,6,1
0.0003785229,-3.717473e-05,6,1
0.0003767402,-2.631635e-05,6,1
0.0003824125,-1.918548e-05,6,1
0.0004047775,-2.031993e-05,6,1
0.0004448076,-3.247483e-05,6,1
0.0005055821,-5.483985e-05,6,1
0.000577215,-8.368748e-05,6,1
0.0006253485,-0.0001154523,6,1
0.0006070351,-0.0001501342,6,1
0.0005005581,-0.0001901644,6,1
0.0003200173,-0.000238946,6,1
0.0001057669,-0.0002998826,6,1
-9.973194e-05,-0.0003698948,6,1
-0.0002684419,-0.0004360174,6,1
-0.00038286,-0.0004891749,6,1
-0.0004345588,-0.0005211017,6,1
-0.0004243487,-0.0005272602,6,1
-0.0003650328,-0.0005074882,6,1
-0.0002744383,-0.0004643789,6,1
-0.0001797922,-0.0004031182,6,1
-0.0001115627,-0.0003348887,6,1
-8.854943e-05,-0.0002718453,6,1
-0.0001099421,-0.0002144742,6,1
-0.000164396,-0.000152079,6,1
-0.000236353,-7.33153e-05,6,1
-0.0003065273,1.630683e-05,6,1
-0.0003557951,0.0001012291,6,1
-0.0003715154,0.0001649207,6,1
-0.0003475298,0.0001971717,6,1
-0.0002963172,0.0001992786,6,1
-0.0002407288,0.0001872858,6,1
-0.0002024813,0.0001717275,6,1
-0.0001849783,0.0001564933,6,1
-0.0001622891,0.0001375317,6,1
-9.778715e-05,0.0001099806,6,1
3.073064e-05,6.897806e-05,6,1
0.0002090025,9.824215e-06,6,1
0.0003963501,-7.347736e-05,6,1
0.0005543638,-0.0001831956,6,1
0.000666189,-0.0003117133,6,1
0.0007337703,-0.0004463896,6,1
0.0007640765,-0.0005690731,6,1
0.0007540284,-0.0006556159,6,1
0.0007049226,-0.0006886772,6,1
0.0006230795,-0.0006606399,6,1
0.000517575,-0.0005771763,6,1
0.0004072085,-0.0004562756,6,1
0.0003133726,-0.0003228959,6,1
0.0002509774,-0.0001972953,6,1
0.0002193747,-9.049421e-05,6,1
0.0002109473,-1.844488e-06,6,1
0.0002196988,7.059871e-05,6,1
0.0002383363,0.0001257009,6,1
0.0002641047,0.0001667035,6,1
0.0002986247,0.0001997648,6,1
0.0003342791,0.0002295848,6,1
0.0003501615,0.0002576221,6,1
0.0003200173,0.0002877662,6,1
0.000234933,0.0003188828,6,1
0.0001049566,0.0003480546,6,1
-4.754691e-05,0.0003725265,6,1
-0.0001994021,0.0003914881,6,1
-0.000328244,0.0004130428,6,1
-0.0004190006,0.0004401077,6,1
-0.0004659995,0.0004692795,6,1
-0.0004711856,0.0004937514,6,1
-0.0004387725,0.0005131993,6,1
-0.0003744326,0.0005376711,6,1
-0.0002870794,0.0005765668,6,1
-0.000176713,0.0006295622,6,1
-4.770897e-05,0.0006815852,6,1
8.405014e-05,0.0007224257,6,1
0.0001981441,0.0007447907,6,1
0.0002705873,0.0007447907,6,1
0.0003012177,0.000723236,6,1
0.0003174242,0.0006851507,6,1
0.0003574544,0.0006358828,6,1
0.0004373526,0.000572191,6,1
0.0005477191,0.0004926169,6,1
0.0006532237,0.0004025085,6,1
0.0007193465,0.0003136967,6,1
0.0007290703,0.0002355812,6,1
0.0006806127,0.0001673517,6,1
0.000586939,9.863601e-05,6,1
0.0004715484,1.630683e-05,6,1
0.000354051,-8.384954e-05,6,1
0.0002414156,-0.0001925954,6,1
0.0001355869,-0.000285945,6,1
4.175109e-05,-0.0003436402,6,1
-2.745081e-05,-0.0003587123,6,1
-5.872941e-05,-0.0003391024,6,1
-3.652646e-05,-0.0003019894,6,1
4.564065e-05,-0.0002718453,6,1
0.0001650828,-0.0002707109,6,1
0.0002752873,-0.0003078238,6,1
0.0003229345,-0.0003789705,6,1
0.0002757735,-0.0004729683,6,1
0.0001316974,-0.000576366,6,1
-7.979791e-05,-0.0006766844,6,1
-0.0003049066,-0.0007536653,6,1
-0.0004899852,-0.0007902921,6,1
-0.0006060239,-0.0007838095,6,1
-0.0006577228,-0.0007372968,6,1
-0.0006659881,-0.0006611261,6,1
-0.0006546435,-0.0005682627,6,1
-0.0006364922,-0.0004674581,6,1
-0.0006191512,-0.0003685983,6,1
-0.0006044033,-0.0002734659,6,1
-0.0005993792,-0.0001900023,6,1
-0.0006079687,-0.0001224211,6,1
-0.0006262821,-7.428769e-05,6,1
-0.0006481609,-3.944364e-05,6,1
-0.0006679329,-5.89612e-06,6,1
-0.0006789533,3.850978e-05,6,1
-0.0006753879,9.814982e-05,6,1
-0.0006512401,0.000168162,6,1
-0.0006055377,0.0002342847,6,1
-0.0005374703,0.0002819319,6,1
-0.0004504412,0.0002989488,6,1
-0.0003523917,0.0002872801,6,1
-0.0002558008,0.0002503292,6,1
-0.0001739578,0.0001939304,6,1
-0.0001096179,0.0001227837,6,1
-4.965376e-05,4.239934e-05,6,1
1.744129e-05,-4.462973e-05,6,1
8.275361e-05,-0.0001339277,6,1
0.0001205148,-0.0002144742,6,1
0.0001174356,-0.0002747625,6,1
7.935024e-05,-0.0003045825,6,1
2.732727e-05,-0.0002977757,6,1
-1.140634e-05,-0.0002561249,6,1
-1.983374e-05,-0.0001883817,6,1
-1.682422e-06,-0.0001037836,6,1
2.781346e-05,-9.785688e-06,6,1
4.596478e-05,9.458438e-05,6,1
3.218923e-05,0.0002114335,6,1
-2.015787e-05,0.0003349273,6,1
-0.0001041077,0.0004517764,6,1
-0.000201509,0.0005446399,6,1
-0.000290969,0.0006096281,6,1
-0.0003507711,0.0006509548,6,1
-0.0003689224,0.0006695924,6,1
-0.0003413713,0.0006663511,6,1
-0.0002690902,0.0006345862,6,1
-0.0001642339,0.0005683015,6,1
-5.013995e-05,0.0004670106,6,1
3.948217e-05,0.0003362238,6,1
6.978839e-05,0.0001840444,6,1
2.781346e-05,2.684107e-05,6,1
-6.456377e-05,-0.0001182074,6,1
-0.0001655305,-0.0002376495,6,1
-0.0002316531,-0.0003206269,6,1
-0.0002402425,-0.0003591985,6,1
-0.0002024813,-0.0003562813,6,1
-0.0001525652,-0.0003196545,6,1
-0.0001183694,-0.0002553146,6,1
-0.0001045939,-0.000171851,6,1
-9.503204e-05,-7.363943e-05,6,1
-7.833932e-05,2.619281e-05,6,1
-5.872941e-05,0.0001120874,6,1
-4.122636e-05,0.0001673517,6,1
-2.939559e-05,0.0001735102,6,1
-1.886135e-05,0.0001192183,6,1
-6.706447e-06,8.041497e-06,6,1
6.420843e-06,-0.000137007,6,1
1.906194e-05,-0.0002851347,6,1
3.850978e-05,-0.0004023079,6,1
7.643307e-05,-0.0004567618,6,1
0.0001389903,-0.0004339106,6,1
0.0002243987,-0.0003426678,6,1
0.0003196932,-0.0002130156,6,1
0.0004018603,-7.882551e-05,6,1
0.0004511282,3.154097e-05,6,1
0.0004537212,0.0001007429,6,1
0.0004046154,0.0001268354,6,1
0.0003052694,0.0001218114,6,1
0.0001624898,0.0001009049,6,1
-8.165035e-06,7.6271e-05,6,1
-0.0001869231,5.1475e-05,6,1
-0.0003463953,3.073064e-05,6,1
-0.0004557894,1.59827e-05,6,1
-0.0004843129,5.934648e-06,6,1
-0.0004198109,7.485573e-07,6,1
-0.0002878898,-7.354709e-06,6,1
-0.0001279313,-2.307504e-05,6,1
1.97102e-05,-4.625038e-05,6,1
0.0001237561,-6.942573e-05,6,1
0.0001717275,-8.498399e-05,6,1
0.0001752929,-9.179074e-05,6,1
0.0001600588,-9.065628e-05,6,1
0.0001414213,-8.320128e-05,6,1
0.000123432,-6.504996e-05,6,1
0.0001107909,-3.458168e-05,6,1
0.0001099806,8.041497e-06,6,1
0.0001237561,5.585077e-05,6,1
0.0001545486,9.782569e-05,6,1
0.0001986303,0.0001197045,6,1
0.0002457913,0.0001158149,6,1
0.0002811216,9.669123e-05,6,1
0.0003089969,7.951231e-05,6,1
0.0003435168,7.740546e-05,6,1
0.0004028327,9.020862e-05,6,1
0.0004961824,0.000113546,6,1
0.000636531,0.0001388282,6,1
0.0008533746,0.0001540623,6,1
0.001164378,0.0001516314,6,1
0.001533726,0.0001328318,6,1
0.001877954,0.0001022015,6,1
0.002100632,6.395404e-05,6,1
0.002138231,2.068259e-05,6,1
0.001978434,-2.307504e-05,6,1
0.001677154,-6.116039e-05,6,1
0.001329685,-8.952183e-05,6,1
0.001018681,-0.0001016767,6,1
0.0007755831,-9.341139e-05,6,1
0.0005811046,-6.423963e-05,6,1
0.0004033189,-1.805102e-05,6,1
0.0002269918,3.964424e-05,6,1
5.487838e-05,0.0001020394,6,1
-0.00010978,0.0001654069,6,1
-0.000261311,0.0002260194,6,1
-0.0003873979,0.000279663,6,1
-0.0004807475,0.0003141829,6,1
-0.0005434667,0.0003222862,6,1
-0.0005797693,0.0003077003,6,1
-0.000586414,0.0002859836,6,1
-0.0005588629,0.0002723701,6,1
-0.0005089468,0.0002726942,6,1
-0.0004624341,0.0002827423,6,1
-0.0004428242,0.0002913317,6,1
-0.0004567618,0.0002850112,6,1
-0.0004984126,0.0002582704,6,1
-0.0005538389,0.0002137024,6,1
-0.000606348,0.0001654069,6,1
-0.0006420024,0.0001271595,6,1
-0.000648323,0.0001078737,6,1
-0.0006243373,0.0001039842,6,1
-0.000578797,0.0001022015,6,1
-0.000524343,9.377406e-05,6,1
-0.0004766958,8.405014e-05,6,1
-0.0004452552,8.291568e-05,6,1
-0.0004258073,9.344993e-05,6,1
-0.0003992286,0.000110953,6,1
-0.0003457471,0.0001300767,6,1
-0.0002663351,0.0001472556,6,1
-0.0001835197,0.0001589243,6,1
-0.0001195039,0.0001611932,6,1
-8.271508e-05,0.0001561692,6,1
-6.764301e-05,0.0001445005,6,1
-6.715681e-05,0.0001231079,6,1
-8.158062e-05,8.907416e-05,6,1
-0.0001186936,4.239934e-05,6,1
-0.0001904885,-1.529591e-05,6,1
-0.0002977757,-8.239095e-05,6,1
-0.0004167317,-0.0001624512,6,1
-0.0005097571,-0.000261149,6,1
-0.0005531906,-0.0003839945,6,1
-0.0005533527,-0.0005345531,6,1
-0.000541684,-0.0007103939,6,1
-0.0005598353,-0.0008964449,6,1
-0.0006356818,-0.001071475,6,1
-0.0007669547,-0.001214255,6,1
-0.0009248063,-0.001305984,6,1
-0.001068558,-0.001336776,6,1
-0.001167094,-0.001314087,6,1
-0.001203559,-0.001248451,6,1
-0.001174549,-0.001153643,6,1
-0.001080389,-0.001042142,6,1
-0.0009162169,-0.0009204306,6,1
-0.000688191,-0.0007852681,6,1
-0.0004146248,-0.0006353577,6,1
-0.0001319829,-0.0004789647,6,1
0.0001128978,-0.0003293785,6,1
0.0002759355,-0.0001985918,6,1
0.0003363859,-9.568031e-05,6,1
0.0003081865,-2.145439e-05,6,1
0.0002284504,3.040651e-05,6,1
0.0001410971,7.092284e-05,6,1
8.437427e-05,0.0001093323,6,1
7.384002e-05,0.0001493625,6,1
9.928428e-05,0.0001892305,6,1
0.0001417454,0.000225209,6,1
0.0001918236,0.0002571359,6,1
0.000249843,0.000282256,6,1
0.0003136967,0.0002983005,6,1
0.0003785229,0.0003073762,6,1
0.0004465904,0.0003136967,6,1
0.0005321609,0.0003247172,6,1
0.0006460929,0.0003451374,6,1
0.000780121,0.000373985,6,1
0.0009071803,0.0004076947,6,1
0.0009891854,0.0004443214,6,1
0.001000206,0.0004801379,6,1
0.0009290591,0.0005067165,6,1
0.0007857933,0.0005209784,6,1
0.0005937457,0.0005208163,6,1
0.0003893813,0.0005146578,6,1
0.0002149989,0.0005093097,6,1
0.0001073875,0.0005073649,6,1
8.016057e-05,0.0005097958,6,1
0.0001291043,0.000515144,6,1
0.000232502,0.0005196818,6,1
0.0003610198,0.0005188715,6,1
0.0004773828,0.0005088235,6,1
0.0005391297,0.0004851619,6,1
0.0005107683,0.000443349,6,1
0.0003833848,0.0003875985,6,1
0.0001830721,0.0003250413,6,1
-3.798505e-05,0.0002602152,6,1
-0.0002284118,0.0002038164,6,1
-0.0003638984,0.0001691344,6,1
-0.0004425001,0.0001642725,6,1
-0.0004736166,0.0001858272,6,1
-0.0004758855,0.0002169437,6,1
-0.0004710235,0.0002444948,6,1
-0.0004757234,0.0002602152,6,1
-0.0004954954,0.0002602152,6,1
-0.0005212637,0.0002517878,6,1
-0.0005374703,0.0002420638,6,1
-0.0005350393,0.0002305572,6,1
-0.000524181,0.000217592,6,1
-0.0005327704,0.0002064095,6,1
-0.0005697213,0.0001958752,6,1
-0.0006008379,0.0001832341,6,1
-0.0005755557,0.0001697827,6,1
-0.0004591928,0.000155521,6,1
-0.0002523975,0.0001404489,6,1
7.069105e-06,0.0001214872,6,1
0.0002607014,0.0001004187,6,1
0.0004571246,7.983644e-05,6,1
0.0005678153,5.763349e-05,6,1
0.0005950422,3.364782e-05,6,1
0.000564736,1.095867e-05,6,1
0.000515144,-7.354709e-06,6,1
0.0004798138,-1.950961e-05,6,1
0.0004723587,-2.664048e-05,6,1
0.000485486,-2.923353e-05,6,1
0.0005013684,-2.7937e-05,6,1
0.0005031512,-2.258885e-05,6,1
0.0004864584,-1.286493e-05,6,1
0.0004700898,-6.382317e-06,6,1
0.0004861343,-8.489166e-06,6,1
0.0005681394,-2.518189e-05,6,1
0.0007344186,-6.261898e-05,6,1
0.0009745996,-0.0001206384,6,1
0.001249949,-0.0001938919,6,1
0.001514116,-0.0002734659,6,1
0.001708433,-0.0003462333,6,1
0.001783631,-0.0003993907,6,1
0.001721398,-0.0004292107,6,1
0.001533564,-0.0004408794,6,1
0.001250435,-0.0004442827,6,1
0.000916418,-0.0004454172,6,1
0.0005851563,-0.000447362,6,1
0.0003072141,-0.0004442827,6,1
9.944634e-05,-0.0004337485,6,1
-5.678463e-05,-0.0004164075,6,1
-0.0002100984,-0.0003920977,6,1
-0.0004013355,-0.0003601709,6,1
-0.0006309819,-0.0003194925,6,1
-0.0008648421,-0.0002720074,6,1
-0.001068072,-0.0002185258,6,1
-0.001218469,-0.0001618029,6,1
-0.00131198,-0.0001031353,6,1
-0.00134569,-4.819517e-05,6,1
-0.001321056,-8.720959e-07,6,1
-0.001247478,3.494434e-05,6,1
-0.001150401,5.552663e-05,6,1
-0.001057376,6.152305e-05,6,1
-0.0009769914,5.585077e-05,6,1
-0.0009008207,4.628891e-05,6,1
-0.0008201121,4.434413e-05,6,1
-0.0007361624,5.390598e-05,6,1
-0.0006539953,7.157111e-05,6,1
-0.000583821,9.118101e-05,6,1
-0.0005340669,0.0001052807,6,1
-0.000509433,0.0001101427,6,1
-0.0005047331,0.0001080358,6,1
-0.000509595,0.0001056048,6,1
-0.0005079744,0.0001025256,6,1
-0.00048723,9.004655e-05,6,1
-0.0004343968,6.055066e-05,6,1
-0.0003449367,1.663096e-05,6,1
-0.0002259808,-3.247483e-05,6,1
-0.0001094559,-7.623246e-05,6,1
-4.835724e-05,-0.0001045939,6,1
-7.963584e-05,-0.0001062146,6,1
-0.0002045882,-7.720486e-05,6,1
-0.0003776739,-1.934754e-05,6,1
-0.0005350393,6.233338e-05,6,1
-0.0006264441,0.000162976,6,1
-0.0006347094,0.0002699391,6,1
-0.0005690731,0.0003726885,6,1
-0.000449955,0.000463121,6,1
-0.000298424,0.000532647,6,1
-0.0001376552,0.000572029,6,1
8.851824e-06,0.0005757565,6,1
0.0001143563,0.0005503122,6,1
0.0001547106,0.0005078511,6,1
0.0001257009,0.0004589073,6,1
5.504044e-05,0.0004063981,6,1
-2.080613e-05,0.0003388169,6,1
-7.736692e-05,0.0002381743,6,1
-9.762509e-05,9.393612e-05,6,1
-7.363943e-05,-8.352541e-05,6,1
-1.950961e-05,-0.000266173,6,1
3.202716e-05,-0.0004219178,6,1
5.455425e-05,-0.0005266119,6,1
3.915804e-05,-0.0005737729,6,1
-8.720959e-07,-0.0005779866,6,1
-4.592625e-05,-0.0005666421,6,1
-8.109443e-05,-0.0005627525,6,1
-9.584238e-05,-0.0005771763,6,1
-9.000802e-05,-0.0006102377,6,1
-7.33153e-05,-0.0006502678,6,1
-5.678463e-05,-0.0006825188,6,1
-4.252288e-05,-0.0006946736,6,1
-2.307504e-05,-0.0006796016,6,1
1.419998e-05,-0.0006350336,6,1
6.978839e-05,-0.0005599973,6,1
0.0001237561,-0.000467134,6,1
0.000150659,-0.0003810773,6,1
0.000143204,-0.0003329439,6,1
0.0001177597,-0.0003348887,6,1
9.831188e-05,-0.0003716775,6,1
0.0001093323,-0.0004074939,6,1
0.0001600588,-0.0004094387,6,1
0.0002457913,-0.0003611433,6,1
0.000353889,-0.0002658489,6,1
0.0004660382,-0.0001415448,6,1
0.0005605224,-1.918548e-05,6,1
0.0006130316,7.724339e-05,6,1
0.0006060627,0.000140773,6,1
0.0005370228,0.0001809652,6,1
0.0004213082,0.0002148369,6,1
0.000284687,0.0002506533,6,1
0.0001540623,0.0002913317,6,1
5.309566e-05,0.000341734,6,1
1.883015e-06,0.0004057499,6,1
8.689758e-06,0.0004734932,6,1
7.011252e-05,0.0005297299,6,1
0.0001662173,0.0005637637,6,1
0.0002626462,0.0005759185,6,1
0.0003230965,0.0005700842,6,1
0.0003289309,0.0005516087,6,1
0.0002900352,0.0005161164,6,1
0.0002312055,0.0004514523,6,1
0.0001748067,0.0003407616,6,1
0.000135749,0.0001837203,6,1
0.0001167873,2.369211e-06,6,1
0.0001116012,-0.0001676373,6,1
0.0001177597,-0.0002993964,6,1
0.0001419075,-0.0003872358,6,1
0.0002013854,-0.000432452,6,1
0.0003005694,-0.0004467137,6,1
0.0004242253,-0.0004397449,6,1
0.0005412365,-0.0004196489,6,1
0.0006225934,-0.0003830221,6,1
0.0006585719,-0.0003230579,6,1
0.0006527375,-0.0002444563,6,1
0.0006136798,-0.0001585616,6,1
0.0005451261,-7.23429e-05,6,1
0.0004480489,1.517237e-05,6,1
0.0003284447,0.0001007429,6,1
0.0002013854,0.000173024,6,1
8.242948e-05,0.0002149989,6,1
-9.137427e-06,0.0002159713,6,1
-5.176061e-05,0.0001808031,6,1
-2.664048e-05,0.0001286181,6,1
6.557468e-05,8.372601e-05,6,1
0.0002021958,6.930219e-05,6,1
0.0003477304,9.669123e-05,6,1
0.0004709002,0.0001652449,6,1
0.0005603603,0.0002658874,6,1
0.0006187038,0.0003825745,6,1
0.0006503066,0.0004945617,6,1
0.0006483617,0.0005819149,6,1
0.0006010387,0.0006323173,6,1
0.0004995857,0.0006459308,6,1
0.0003475684,0.0006329655,6,1
0.000168162,0.0006037938,6,1
-8.489166e-06,0.0005640878,6,1
-0.0001582375,0.0005140096,6,1
-0.0002674695,0.0004540453,6,1
-0.0003297026,0.0003851676,6,1
-0.000338292,0.0003117519,6,1
-0.0002807589,0.0002397949,6,1
-0.0001477033,0.0001775618,6,1
4.126489e-05,0.0001339663,6,1
0.0002263435,0.0001104668,6,1
0.0003394651,0.0001005808,6,1
0.0003446512,9.523264e-05,6,1
0.0002441707,8.583286e-05,6,1
7.173317e-05,6.751948e-05,6,1
-0.0001302002,4.02925e-05,6,1
-0.0003248407,1.290346e-05,6,1
-0.0004865818,-9.785688e-06,6,1
-0.0006024585,-2.939559e-05,6,1
-0.0006726327,-4.527799e-05,6,1
-0.0007014804,-5.921561e-05,6,1
-0.0006919185,-7.266703e-05,6,1
-0.0006392473,-8.660465e-05,6,1
-0.000541684,-9.438378e-05,6,1
-0.0004136524,-9.470791e-05,6,1
-0.0002825416,-8.854943e-05,6,1
-0.0001739578,-8.239095e-05,6,1
-0.0001016767,-7.898758e-05,6,1
-6.310517e-05,-7.817725e-05,6,1
-4.754691e-05,-7.898758e-05,6,1
-4.187462e-05,-7.898758e-05,6,1
-3.63644e-05,-7.995997e-05,6,1
-3.490581e-05,-7.898758e-05,6,1
-5.613637e-05,-7.428769e-05,6,1
-0.0001170729,-6.553616e-05,6,1
-0.0002194982,-5.402952e-05,6,1
-0.0003402368,-4.025397e-05,6,1
-0.0004402311,-2.858527e-05,6,1
-0.0004867439,-2.323711e-05,6,1
-0.000472158,-2.323711e-05,6,1
-0.0004006872,-2.745081e-05,6,1
-0.0002781658,-3.458168e-05,6,1
-0.0001224211,-4.106429e-05,6,1
3.478228e-05,-4.05781e-05,6,1
0.0001513072,-3.150244e-05,6,1
0.0001898788,-1.529591e-05,6,1
0.0001445005,3.341602e-06,6,1
3.478228e-05,2.052053e-05,6,1
-9.778715e-05,3.121684e-05,6,1
-0.0002100984,3.850978e-05,6,1
-0.0002867553,4.77475e-05,6,1
-0.0003361852,5.860588e-05,6,1
-0.0003807532,6.995045e-05,6,1
-0.0004502792,7.708133e-05,6,1
-0.0005676145,7.546067e-05,6,1
-0.0007270867,6.508849e-05,6,1
-0.0008953104,4.953022e-05,6,1
-0.001035497,3.316162e-05,6,1
-0.001120905,2.149292e-05,6,1
-0.001141974,1.906194e-05,6,1
-0.001111019,2.538249e-05,6,1
-0.00105219,3.526847e-05,6,1
-0.0009936841,4.499239e-05,6,1
-0.000946523,4.953022e-05,6,1
-0.0008987138,4.547859e-05,6,1
-0.0008235155,3.299956e-05,6,1
-0.0006922426,1.59827e-05,6,1
-0.0004951713,-1.844488e-06,6,1
-0.0002598524,-1.772689e-05,6,1
-4.511593e-05,-2.826114e-05,6,1
8.907416e-05,-3.539201e-05,6,1
0.0001222976,-4.349527e-05,6,1
8.307774e-05,-5.32192e-05,6,1
4.483033e-05,-6.245691e-05,6,1
0.0001020394,-6.602235e-05,6,1
0.0003226103,-5.59743e-05,6,1
0.0007000606,-2.728874e-05,6,1
0.001163406,1.290346e-05,6,1
0.001624321,5.115087e-05,6,1
0.002004041,7.497447e-05,6,1
0.002236119,7.67572e-05,6,1
0.002290735,5.795762e-05,6,1
0.00217891,2.667901e-05,6,1
0.001943752,-6.706447e-06,6,1
0.001640689,-3.63644e-05,6,1
0.001328065,-5.889148e-05,6,1
0.001043477,-7.282909e-05,6,1
0.0007955172,-8.02841e-05,6,1
0.0005700842,-8.757704e-05,6,1
0.000354051,-0.0001000561,6,1
0.0001462832,-0.0001185315,6,1
-4.05781e-05,-0.0001408965,6,1
-0.0001865989,-0.0001601823,6,1
-0.0002844864,-0.000169258,6,1
-0.0003434782,-0.0001663408,6,1
-0.0003804291,-0.0001540238,6,1
-0.0004018217,-0.0001373311,6,1
-0.0003933943,-0.0001240417,6,1
-0.0003267854,-0.0001211246,6,1
-0.0001851404,-0.0001363587,6,1
1.338965e-05,-0.0001713648,6,1
0.000217592,-0.0002266291,6,1
0.0003692851,-0.0003003688,6,1
0.0004206599,-0.0003844807,6,1
0.000346596,-0.000469727,6,1
0.0001602208,-0.0005463839,6,1
-8.271508e-05,-0.0006066722,6,1
-0.000301017,-0.0006395715,6,1
-0.0004339106,-0.0006400577,6,1
-0.0004684305,-0.000608617,6,1
-0.0004356933,-0.0005512458,6,1
-0.0003820497,-0.0004791268,6,1
-0.0003470436,-0.000407656,6,1
-0.0003444506,-0.000345585,6,1
-0.000365519,-0.0002972895,6,1
-0.0003924218,-0.000261149,6,1
-0.0004084663,-0.0002324634,6,1
-0.0004037664,-0.0002023193,6,1
-0.0003799429,-0.0001665028,6,1
-0.0003501228,-0.0001251762,6,1
-0.0003295405,-8.141856e-05,6,1
-0.0003303509,-3.766092e-05,6,1
-0.0003460712,3.341602e-06,6,1
-0.0003538503,3.93201e-05,6,1
-0.0003233821,6.849186e-05,6,1
-0.0002352185,9.458438e-05,6,1
-0.0001068628,0.0001235941,6,1
2.522042e-05,0.0001652449,6,1
0.0001310491,0.0002154851,6,1
0.0002015475,0.0002619979,6,1
0.0002446569,0.0002979764,6,1
0.0002718839,0.0003222862,6,1
0.0002953834,0.0003433547,6,1
0.0003328204,0.0003587509,6,1
0.000391164,0.0003645853,6,1
0.0004600418,0.0003634508,6,1
0.0005046097,0.0003571303,6,1
0.0004707381,0.0003504856,6,1
0.0003166139,0.0003451374,6,1
4.612685e-05,0.0003394651,6,1
-0.0002874036,0.0003286068,6,1
-0.0006042412,0.0003162898,6,1
-0.000834698,0.000304459,6,1
-0.0009366371,0.0002880904,6,1
-0.0009030896,0.0002649151,6,1
-0.0007577171,0.000237526,6,1
-0.0005458977,0.0002083542,6,1
-0.0003233821,0.0001842065,6,1
-0.000137169,0.0001697827,6,1
-1.869928e-05,0.0001657311,6,1
2.489629e-05,0.0001707551,6,1
2.052053e-05,0.0001851789,6,1
1.12828e-05,0.0002055991,6,1
2.538249e-05,0.0002282883,6,1
7.108491e-05,0.000250005,6,1
0.0001423936,0.0002683184,6,1
0.0002224539,0.0002816078,6,1
0.0002934386,0.0002876042,6,1
0.000344165,0.0002850112,6,1
0.0003636129,0.0002723701,6,1
0.0003404375,0.0002487085,6,1
0.0002610255,0.0002198609,6,1
0.0001260251,0.0001905271,6,1
-4.05781e-05,0.0001615174,6,1
-0.0001938919,0.0001338042,6,1
-0.0002990722,0.0001106288,6,1
-0.0003459091,9.296373e-05,6,1
-0.0003442885,8.486046e-05,6,1
-0.000313334,9.393612e-05,6,1
-0.0002747625,0.0001213252,6,1
-0.0002449425,0.0001569795,6,1
-0.0002400805,0.0001840444,6,1
-0.0002652006,0.0001898788,6,1
-0.0003091203,0.0001728619,6,1
-0.0003472056,0.0001393144,6,1
-0.0003590364,9.020862e-05,6,1
-0.0003413713,2.39239e-05,6,1
-0.0003094444,-5.69467e-05,6,1
-0.0002912931,-0.0001480274,6,1
-0.0003063652,-0.0002418632,6,1
-0.0003557951,-0.0003254889,6,1
-0.0004293727,-0.0003818876,6,1
-0.0005134846,-0.0004018217,6,1
-0.0005881967,-0.0003862634,6,1
-0.0006230408,-0.0003481781,6,1
-0.0005843072,-0.0003026377,6,1
-0.000462272,-0.0002640662,6,1
-0.0002814071,-0.0002501286,6,1
-8.02841e-05,-0.0002677937,6,1
0.0001081979,-0.0003073376,6,1
0.0002655633,-0.0003489884,6,1
0.0003806297,-0.0003747568,6,1
0.0004417284,-0.0003801049,6,1
0.000443187,-0.0003732982,6,1
0.0003875985,-0.0003684362,6,1
0.00029198,-0.0003760533,6,1
0.0001840444,-0.0003916115,6,1
9.361199e-05,-0.0004006872,6,1
4.628891e-05,-0.0003864254,6,1
5.649903e-05,-0.0003395886,6,1
0.0001221355,-0.000266011,6,1
0.0002141886,-0.0001770371,6,1
0.000299435,-8.968389e-05,6,1
0.0003482167,-2.453363e-05,6,1
0.00035162,1.720949e-06,6,1
0.0003149933,-1.886135e-05,6,1
0.0002563256,-8.530812e-05,6,1
0.0001973338,-0.0001773612,6,1
0.0001522796,-0.0002658489,6,1
0.000125863,-0.0003267854,6,1
0.0001171115,-0.0003546606,6,1
0.0001222976,-0.0003525538,6,1
0.0001393144,-0.0003245165,6,1
0.0001587623,-0.0002700626,6,1
0.0001746447,-0.0001882196,6,1
0.0001832341,-8.514606e-05,6,1
0.0001864754,2.943412e-05,6,1
0.0001893926,0.0001398006,6,1
0.0001937684,0.0002344468,6,1
0.0002055991,0.0003109416,6,1
0.0002318537,0.0003718782,6,1
0.0002723701,0.0004219564,6,1
0.0003234207,0.0004650658,6,1
0.0003733368,0.0005057442,6,1
0.0004102877,0.0005499881,6,1
0.000425846,0.0005997422,6,1
0.0004230909,0.0006504686,6,1
0.0004145014,0.0006879058,6,1
0.0004145014,0.0006942263,6,1
0.0004345975,0.0006657028,6,1
0.0004734932,0.0006118971,6,1
0.0005060683,0.0005563086,6,1
0.0004947237,0.0005271368,6,1
0.0004247115,0.0005488536,6,1
0.0003098072,0.0006311828,6,1
0.0001830721,0.0007559733,6,1
7.821578e-05,0.0008854635,6,1
1.257933e-05,0.0009786512,6,1
-1.010982e-05,0.001017547,6,1
4.244267e-07,0.001003771,6,1
2.34377e-05,0.0009402417,6,1
3.834771e-05,0.0008361956,6,1
3.964424e-05,0.0007073536,6,1
2.829966e-05,0.0005624671,6,1
9.338019e-06,0.0003924605,6,1
-1.62683e-05,0.0001866375,6,1
-5.2733e-05,-4.90055e-05,6,1
-9.940781e-05,-0.0002895104,6,1
-0.0001441378,-0.0005031124,6,1
-0.0001726613,-0.0006679329,6,1
-0.0001755785,-0.0007718167,6,1
-0.0001611547,-0.0008107124,6,1
-0.0001501342,-0.0007915886,6,1
-0.0001590478,-0.0007301659,6,1
-0.0001853024,-0.000648323,6,1
-0.0002149604,-0.0005698834,6,1
-0.0002259808,-0.0005112157,6,1
-0.0002075054,-0.0004883645,6,1
-0.000159534,-0.0005105674,6,1
-9.697683e-05,-0.0005833348,6,1
-4.414354e-05,-0.0006961322,6,1
-2.534396e-05,-0.0008223811,6,1
-4.592625e-05,-0.0009325854,6,1
-9.66527e-05,-0.001005191,6,1
-0.0001554824,-0.001032094,6,1
-0.0001927574,-0.001018804,6,1
-0.0001874093,-0.0009794224,6,1
-0.000134738,-0.0009269132,6,1
-5.516398e-05,-0.0008769971,6,1
1.452411e-05,-0.0008447461,6,1
4.223728e-05,-0.0008351842,6,1
1.501031e-05,-0.0008364808,6,1
-6.0188e-05,-0.000829674,6,1
-0.0001603444,-0.0008040677,6,1
-0.0002569353,-0.0007569068,6,1
-0.000328082,-0.0006993735,6,1
-0.0003595226,-0.0006437852,6,1
-0.0003468815,-0.0005872243,6,1
-0.0003018274,-0.0005100812,6,1
-0.0002506147,-0.0003979321,6,1
-0.0002229016,-0.0002501286,6,1
-0.0002323013,-7.833932e-05,6,1
-0.0002655248,0.0001005808,6,1
-0.0002998826,0.0002681563,6,1
-0.0003105789,0.0004083429,6,1
-0.0002783279,0.0005106062,6,1
-0.0001846542,0.0005754323,6,1
-1.20546e-05,0.0006120591,6,1
0.000254867,0.0006321552,6,1
0.0006115729,0.0006472273,6,1
0.00100993,0.0006616511,6,1
0.001378953,0.0006806127,6,1
0.001659489,0.0007044364,6,1
0.001823661,0.0007300428,6,1
0.001874064,0.0007457631,6,1
0.001824472,0.0007451148,6,1
0.00169563,0.0007292324,6,1
0.001513792,0.0007031399,6,1
0.001304403,0.0006767232,6,1
0.00108059,0.0006550064,6,1
0.0008365198,0.0006397723,6,1
0.0005605224,0.0006272933,6,1
0.000252274,0.0006125454,6,1
-6.229485e-05,0.000591801,6,1
-0.0003442885,0.000564736,6,1
-0.0005616181,0.0005370228,6,1
-0.0006962943,0.0005140096,6,1
-0.0007488034,0.0004939134,6,1
-0.0007364865,0.0004764104,6,1
-0.0006945116,0.0004660382,6,1
-0.0006659881,0.0004645796,6,1
-0.0006817085,0.0004662003,6,1
-0.0007413484,0.0004676588,6,1
-0.0008215707,0.0004700898,6,1
-0.0008966069,0.0004689553,6,1
-0.0009432817,0.0004589073,6,1
-0.0009471713,0.0004367043,6,1
-0.0009069791,0.0004054258,6,1
-0.0008374532,0.0003712299,6,1
-0.0007617687,0.0003373583,6,1
-0.0006964564,0.0002976523,6,1
-0.0006505919,0.0002482223,6,1
-0.0006232028,0.0001895547,6,1
-0.0006052136,0.0001274836,6,1
-0.0005891691,6.735741e-05,6,1
-0.0005697213,1.047248e-05,6,1
-0.0005437909,-4.05781e-05,6,1
-0.0005016539,-8.384954e-05,6,1
-0.0004340726,-0.0001182074,6,1
-0.0003462333,-0.000144462,6,1
-0.0002530457,-0.0001673132,6,1
-0.0001801163,-0.0001887058,6,1
-0.0001434896,-0.0002057227,6,1
-0.0001386276,-0.0002167431,6,1
-0.000147055,-0.0002206326,6,1
-0.0001468929,-0.0002198223,6,1
-0.0001302002,-0.0002203085,6,1
-0.0001015147,-0.0002232257,6,1
-7.671866e-05,-0.0002274394,6,1
-7.65566e-05,-0.0002345703,6,1
-0.0001054042,-0.0002468872,6,1
-0.0001433275,-0.0002588801,6,1
-0.0001626133,-0.0002655248,6,1
-0.000151917,-0.0002635799,6,1
-0.0001232314,-0.0002496423,6,1
-9.568031e-05,-0.000224036,6,1
-7.850138e-05,-0.0001924333,6,1
-7.380149e-05,-0.0001635857,6,1
-8.271508e-05,-0.0001433275,6,1
-0.000104918,-0.0001376552,6,1
-0.0001358725,-0.0001502963,6,1
-0.0001671511,-0.0001776853,6,1
-0.0001861127,-0.0002149604,6,1
-0.0001828714,-0.0002546664,6,1
-0.000161965,-0.0002946965,6,1
-0.0001350622,-0.0003321336,6,1
-0.0001092938,-0.000365357,6,1
-8.773911e-05,-0.0003919357,6,1
-6.877746e-05,-0.0004149489,6,1
-5.467778e-05,-0.0004384484,6,1
-4.236082e-05,-0.0004681064,6,1
-2.453363e-05,-0.0005042469,6,1
1.072688e-06,-0.0005373082,6,1
3.397195e-05,-0.0005554595,6,1
6.670914e-05,-0.000551732,6,1
9.231547e-05,-0.0005186707,6,1
0.000113384,-0.0004528722,6,1
0.0001302388,-0.000355633,6,1
0.0001355869,-0.0002407288,6,1
0.0001291043,-0.0001259865,6,1
0.0001190562,-2.518189e-05,6,1
0.0001198666,5.098881e-05,6,1
0.0001487142,0.0001030118,6,1
0.0002169437,0.0001415833,6,1
0.0003138588,0.000173024,6,1
0.0004073705,0.0002081922,6,1
0.0004615004,0.0002545429,6,1
0.0004514523,0.0003096451,6,1
0.0003722023,0.0003618301,6,1
0.0002475741,0.0004005638,6,1
0.0001205148,0.0004235771,6,1
3.056858e-05,0.0004273046,6,1
2.855407e-06,0.0004120704,6,1
3.13789e-05,0.0003769022,6,1
8.631905e-05,0.0003206656,6,1
0.0001355869,0.0002391467,6,1
0.0001577899,0.0001380179,6,1
0.0001493625,3.251336e-05,6,1
0.0001143563,-5.59743e-05,6,1
6.83298e-05,-0.000112211,6,1
3.13789e-05,-0.0001318209,6,1
1.54965e-05,-0.0001201522,6,1
1.54965e-05,-8.919769e-05,6,1
1.760335e-05,-4.787104e-05,6,1
1.403791e-05,-5.479652e-07,6,1
9.013889e-06,4.839576e-05,6,1
1.582063e-05,9.458438e-05,6,1
4.337174e-05,0.0001328318,6,1
8.972242e-05,0.0001584381,6,1
0.0001483901,0.0001671896,6,1
0.0002096508,0.0001579519,6,1
0.0002701012,0.0001362352,6,1
0.0003302274,0.0001044704,6,1
0.0003890571,6.362991e-05,6,1
0.0004409181,1.630683e-05,6,1
0.000478031,-3.587821e-05,6,1
0.0004937514,-8.82253e-05,6,1
0.0004864584,-0.000134738,6,1
0.0004608521,-0.0001695821,6,1
0.0004271425,-0.0001914609,6,1
0.0004016982,-0.0001979435,6,1
0.0003982949,-0.0001914609,6,1
0.0004174185,-0.0001775233,6,1
0.0004368664,-0.0001642339,6,1
0.0004237391,-0.0001553203,6,1
0.0003501615,-0.0001517549,6,1
0.0002073819,-0.0001551583,6,1
1.257933e-05,-0.000161965,6,1
-0.0002034537,-0.0001647201,6,1
-0.0004049009,-0.0001614788,6,1
-0.0005552975,-0.0001540238,6,1
-0.0006358439,-0.000144624,6,1
-0.0006373025,-0.0001344139,6,1
-0.0005687489,-0.0001230693,6,1
-0.0004684305,-0.0001104282,6,1
-0.000390315,-9.438378e-05,6,1
-0.0003732982,-7.412562e-05,6,1
-0.0004164075,-5.111234e-05,6,1
-0.0004813957,-3.296103e-05,6,1
-0.0005185087,-2.664048e-05,6,1
-0.0004888507,-3.312309e-05,6,1
-0.0003792946,-4.527799e-05,6,1
-0.0002042641,-5.889148e-05,6,1
1.419998e-05,-7.169464e-05,6,1
0.0002409294,-8.125649e-05,6,1
0.0004245494,-8.919769e-05,6,1
0.0005188715,-9.535618e-05,6,1
0.0005034753,-0.0001005423,6,1
0.0003921364,-0.0001024871,6,1
0.00022764,-9.551824e-05,6,1
7.400208e-05,-7.380149e-05,6,1
-7.100305e-07,-3.701266e-05,6,1
4.72613e-05,8.851824e-06,6,1
0.0002156472,5.406805e-05,6,1
0.0004550177,8.810177e-05,6,1
0.0006903367,0.0001057669,6,1
0.0008556435,0.0001161391,6,1
0.0009245213,0.0001338042,6,1
0.0009115561,0.0001624898,6,1
0.0008522401,0.000195227,6,1
0.000779959,0.0002240746,6,1
0.0007091364,0.0002457913,6,1
0.0006378276,0.000259729,6,1
0.0005642498,0.0002678322,6,1
0.000490348,0.0002725321,6,1
0.0004145014,0.0002757735,6,1
0.0003295791,0.0002782044,6,1
0.0002211574,0.0002775562,6,1
6.897806e-05,0.0002725321,6,1
-0.0001284175,0.0002615117,6,1
-0.0003415334,0.0002467637,6,1
-0.0005253154,0.0002381743,6,1
-0.000631144,0.0002448189,6,1
-0.0006264441,0.0002681563,6,1
-0.0005214258,0.000299597,6,1
-0.0003611433,0.0003311998,6,1
-0.000196647,0.0003584268,6,1
-6.699475e-05,0.0003785229,6,1
3.017472e-06,0.0003871123,6,1
2.693341e-06,0.0003859779,6,1
-6.618442e-05,0.0003816021,6,1
-0.0001874093,0.000378847,6,1
-0.0003267854,0.0003851676,6,1
-0.0004463896,0.0004004017,6,1
-0.0005235327,0.0004182289,6,1
-0.0005625904,0.0004305459,6,1
-0.0005878726,0.0004277907,6,1
-0.0006233649,0.0004080188,6,1
-0.0006705259,0.000378847,6,1
-0.0007137973,0.0003454615,6,1
-0.0007360002,0.0003081865,6,1
-0.0007293556,0.0002662116,6,1
-0.0006914323,0.0002190506,6,1
-0.0006230408,0.0001657311,6,1
-0.0005358497,0.0001039842,6,1
-0.0004450931,3.494434e-05,6,1
-0.0003718396,-4.203669e-05,6,1
-0.0003318095,-0.000122259,6,1
-0.0003352128,-0.0002029675,6,1
-0.0003880461,-0.0002812451,6,1
-0.000487068,-0.0003598467,6,1
-0.0006176926,-0.0004418518,6,1
-0.0007423208,-0.0005209396,6,1
-0.0008034194,-0.0005930586,6,1
-0.0007522068,-0.0006603158,6,1
-0.000583821,-0.0007277349,6,1
-0.0003421817,-0.0007953162,6,1
-9.843541e-05,-0.0008598181,6,1
8.664318e-05,-0.0009098963,6,1
0.0001806411,-0.0009380957,6,1
0.0001816135,-0.0009376095,6,1
0.0001106288,-0.0009058447,6,1
-1.196227e-06,-0.000847015,6,1
-0.0001167488,-0.0007703581,6,1
-0.0002060468,-0.0006865704,6,1
-0.0002489941,-0.0005958138,6,1
-0.0002347323,-0.0004974402,6,1
-0.0001559686,-0.0003856151,6,1
-1.027188e-05,-0.0002579077,6,1
0.0001837203,-0.000127121,6,1
0.0003822504,-1.886135e-05,6,1
0.0005341057,4.045456e-05,6,1
0.0006034696,4.645098e-05,6,1
0.0005909906,1.54965e-05,6,1
0.0005183853,-2.7937e-05,6,1
0.0004172565,-6.48879e-05,6,1
0.000319369,-8.433573e-05,6,1
0.0002478982,-7.396356e-05,6,1
0.0002064095,-2.680255e-05,6,1
0.0001796687,5.309566e-05,6,1
0.0001433661,0.0001548727,6,1
7.416415e-05,0.0002624841,6,1
-3.036798e-05,0.0003584268,6,1
-0.0001433275,0.0004292493,6,1
-0.0002196603,0.0004668485,6,1
-0.0002186879,0.0004645796,6,1
-0.0001308485,0.000420984,6,1
2.748934e-05,0.0003559958,6,1
0.0002299089,0.0003036487,6,1
0.0004540453,0.0002882525,6,1
0.0006867713,0.0003077003,6,1
0.0009091251,0.0003331446,6,1
0.001081563,0.0003376824,6,1
0.00115433,0.0003130485,6,1
0.001099714,0.0002694529,6,1
0.0009303557,0.0002248849,6,1
0.0006947125,0.0001913374,6,1
0.0004533971,0.0001694586,6,1
0.0002514636,0.0001485521,6,1
0.0001171115,0.0001188942,6,1
6.573675e-05,8.242948e-05,6,1
8.939829e-05,4.628891e-05,6,1
0.0001550348,2.035846e-05,6,1
0.0002211574,8.851824e-06,6,1
0.0002655633,5.934648e-06,6,1
0.000289387,6.096713e-06,6,1
0.0002989488,7.879432e-06,6,1
0.0002961937,8.365628e-06,6,1
0.0002765838,6.744974e-06,6,1
0.0002388225,2.623614e-07,6,1
0.0001937684,-6.220252e-06,6,1
0.000160545,-7.192643e-06,6,1
0.000145797,-1.682422e-06,6,1
0.0001274836,8.689758e-06,6,1
8.145709e-05,2.133085e-05,6,1
2.04508e-06,3.397195e-05,6,1
-9.859748e-05,3.656499e-05,6,1
-0.0002096122,1.095867e-05,6,1
-0.000328082,-4.47918e-05,6,1
-0.0004504412,-0.0001165867,6,1
-0.0005625904,-0.0001820611,6,1
-0.0006494574,-0.0002211189,6,1
-0.0006982391,-0.0002198223,6,1
-0.0007052079,-0.0001820611,6,1
-0.0006792775,-0.0001219349,6,1
-0.0006373025,-5.629844e-05,6,1
-0.0005860899,7.23117e-06,6,1
-0.000526774,7.059871e-05,6,1
-0.0004682684,0.000128456,6,1
-0.0004220798,0.0001665414,6,1
-0.000395339,0.0001723757,6,1
-0.0003849669,0.0001480659,6,1
-0.0003857772,0.0001075496,6,1
-0.0003971218,7.157111e-05,6,1
-0.0004155972,5.763349e-05,6,1
-0.0004282383,6.768154e-05,6,1
-0.0004139766,8.923623e-05,6,1
-0.0003570916,0.0001020394,6,1
-0.0002681178,9.361199e-05,6,1
-0.0001796301,6.687121e-05,6,1
-0.0001253383,2.797553e-05,6,1
-0.000119828,-1.545797e-05,6,1
-0.0001572651,-5.483985e-05,6,1
-0.0002169052,-7.801519e-05,6,1
-0.0002697385,-7.18567e-05,6,1
-0.000290969,-2.518189e-05,6,1
-0.0002702246,6.314371e-05,6,1
-0.0002060468,0.0001820997,6,1
-0.0001057284,0.0003099692,6,1
1.079661e-05,0.000418553,6,1
0.0001287802,0.0004887274,6,1
0.0002410915,0.0005068787,6,1
0.00033671,0.0004624728,6,1
0.0003969983,0.0003459477,6,1
0.0004047775,0.0001563313,6,1
0.0003499994,-0.0001000561,6,1
0.0002440086,-0.000395339,6,1
0.0001153287,-0.0006843015,6,1
-2.168618e-06,-0.0009204306,6,1
-7.153257e-05,-0.001062886,6,1
-5.775702e-05,-0.001097244,6,1
4.677511e-05,-0.001031607,6,1
0.0002242366,-0.0008943381,6,1
0.0004350837,-0.0007160662,6,1
0.0006259967,-0.0005246671,6,1
0.0007493285,-0.0003397507,6,1
0.0007891966,-0.000174282,6,1
0.0007584042,-3.198864e-05,6,1
0.0006801266,8.956036e-05,6,1
0.0005872631,0.0001968476,6,1
0.0005135234,0.0002932765,6,1
0.0004793275,0.0003803056,6,1
0.0004885653,0.0004574487,6,1
0.0005366987,0.0005240576,6,1
0.0006175694,0.0005812666,6,1
0.0007177258,0.0006276174,6,1
0.000809941,0.0006569512,6,1
0.0008532125,0.0006598685,6,1
0.0008151271,0.0006386379,6,1
0.0006922815,0.0005987698,6,1
0.0005122268,0.0005533914,6,1
0.0003174242,0.000509958,6,1
0.0001469315,0.0004694416,6,1
2.34377e-05,0.0004268184,6,1
-5.59743e-05,0.0003728506,6,1
-0.0001063766,0.0002976523,6,1
-0.000142031,0.0001963614,6,1
-0.0001747682,6.995045e-05,6,1
-0.0002152845,-7.250496e-05,6,1
-0.0002755728,-0.000213988,6,1
-0.0003595226,-0.0003428299,6,1
-0.000454817,-0.0004504412,6,1
-0.000526774,-0.0005253154,6,1
-0.000539091,-0.0005523803,6,1
-0.0004778303,-0.0005157535,6,1
-0.0003656811,-0.0004133283,6,1
-0.0002410529,-0.0002653627,6,1
-0.0001418689,-0.0001081593,6,1
-8.644259e-05,2.133085e-05,6,1
-6.974985e-05,0.0001062531,6,1
-7.120844e-05,0.0001487142,6,1
-5.451572e-05,0.0001577899,6,1
3.665733e-06,0.0001488763,6,1
9.182927e-05,0.000135911,6,1
0.0001820997,0.000130725,6,1
0.0002370398,0.0001360731,6,1
0.0002192126,0.0001474177,6,1
0.0001164632,0.0001628139,6,1
-3.782299e-05,0.0001785342,6,1
-0.0001802784,0.0001939304,6,1
-0.000256287,0.0002068957,6,1
-0.0002480217,0.0002172679,6,1
-0.0001776853,0.0002208333,6,1
-8.919769e-05,0.0002135403,6,1
-1.902341e-05,0.0001940925,6,1
1.274139e-05,0.0001645966,6,1
-5.57199e-06,0.0001315353,6,1
-7.720486e-05,0.0001033359,6,1
-0.0001844921,8.323981e-05,6,1
-0.0002896725,6.930219e-05,6,1
-0.0003574158,5.974033e-05,6,1
-0.0003830221,5.406805e-05,6,1
-0.0003839945,5.277153e-05,6,1
-0.0003734602,5.439218e-05,6,1
-0.0003496366,5.309566e-05,6,1
-0.0003102548,5.001642e-05,6,1
-0.000261149,4.45062e-05,6,1
-0.00021415,3.915804e-05,6,1
-0.0001908126,3.769945e-05,6,1
-0.0002126914,4.72613e-05,6,1
-0.0002869174,7.254349e-05,6,1
-0.0003891806,0.0001052807,6,1
-0.000477182,0.0001261871,6,1
-0.0005188328,0.0001127357,6,1
-0.000509595,5.131294e-05,6,1
-0.0004606514,-5.629844e-05,6,1
-0.0003859393,-0.0001947022,6,1
-0.0002958309,-0.0003412093,6,1
-0.0002034537,-0.0004810716,6,1
-0.0001251762,-0.0006032689,6,1
-7.218083e-05,-0.0007032631,6,1
-5.257093e-05,-0.0007784614,6,1
-6.958779e-05,-0.0008188156,6,1
-0.0001149661,-0.0008116848,6,1
-0.0001606685,-0.0007496137,6,1
-0.0001783336,-0.0006368163,6,1
-0.00015451,-0.000487068,6,1
-0.0001008664,-0.0003243544,6,1
-3.652646e-05,-0.0001752544,6,1
1.290346e-05,-5.386745e-05,6,1
2.035846e-05,3.316162e-05,6,1
-2.923353e-05,8.84259e-05,6,1
-0.0001251762,0.0001192183,6,1
-0.0002433218,0.000133318,6,1
-0.0003510952,0.0001399627,6,1
-0.0004120317,0.0001441764,6,1
-0.0003974459,0.0001453108,6,1
-0.0003068514,0.000140773,6,1
-0.0001677994,0.0001291043,6,1
-2.015787e-05,0.0001175977,6,1
0.0001039842,0.0001077117,6,1
0.000192958,9.798775e-05,6,1
0.0002295848,8.356394e-05,6,1
0.0001859892,6.573675e-05,6,1
5.034055e-05,5.56887e-05,6,1
-0.0001451102,6.314371e-05,6,1
-0.0003368335,9.053275e-05,6,1
-0.0004659995,0.0001334801,6,1
-0.0004964678,0.0001783722,6,1
-0.0004279142,0.0002143507,6,1
-0.0002904828,0.0002365536,6,1
-0.0001274451,0.0002440086,6,1
2.100672e-05,0.0002431983,6,1
0.0001222976,0.00024255,6,1
0.0001598967,0.0002470879,6,1
0.0001368834,0.0002553532,6,1
6.995045e-05,0.0002592428,6,1
-8.327101e-06,0.0002538946,6,1
-5.370539e-05,0.0002396328,6,1
-1.967167e-05,0.0002203471,6,1
0.000113384,0.0002008992,6,1
0.0003303894,0.0001824238,6,1
0.0005819149,0.0001662173,6,1
0.000807348,0.0001503349,6,1
0.0009493173,0.0001318594,6,1
0.0009799477,0.0001101427,6,1
0.0009133389,8.923623e-05,6,1
0.0008005413,7.20573e-05,6,1
0.0007068674,6.119892e-05,6,1
0.0006838542,4.969229e-05,6,1
0.000740415,3.397195e-05,6,1
0.0008389507,1.355172e-05,6,1
0.0009120423,-1.075808e-05,6,1
0.0009058838,-3.668853e-05,6,1
0.0008060515,-6.148453e-05,6,1
0.0006447964,-8.190475e-05,6,1
0.0004767345,-9.697683e-05,6,1
0.0003431926,-0.000107349,6,1
0.0002469258,-0.0001169109,6,1
0.0001563313,-0.0001285796,6,1
3.867184e-05,-0.0001462447,6,1
-0.0001120489,-0.000171851,6,1
-0.0002807589,-0.0002039399,6,1
-0.0004416897,-0.0002400805,6,1
-0.0005723144,-0.0002763831,6,1
-0.0006624226,-0.0003049066,6,1
-0.0007069906,-0.0003188442,6,1
-0.000705532,-0.0003159271,6,1
-0.000660802,-0.0002987481,6,1
-0.0005844692,-0.0002726556,6,1
-0.0004917679,-0.0002431597,6,1
-0.0003935563,-0.00021415,6,1
-0.0002890242,-0.0001883817,6,1
-0.0001783336,-0.0001699062,6,1
-7.250496e-05,-0.0001585616,6,1
7.717366e-06,-0.0001506204,6,1
4.661304e-05,-0.0001436516,6,1
5.163707e-05,-0.000134738,6,1
4.758544e-05,-0.0001235555,6,1
6.751948e-05,-0.0001068628,6,1
0.0001336421,-8.563225e-05,6,1
0.0002457913,-6.39155e-05,6,1
0.0003819262,-3.960571e-05,6,1
0.0005153061,-9.461558e-06,6,1
0.0006258347,3.024445e-05,6,1
0.0007015193,7.821578e-05,6,1
0.0007407391,0.0001250527,6,1
0.0007507871,0.0001571416,6,1
0.0007441425,0.0001654069,6,1
0.0007284221,0.0001521176,6,1
0.0007036261,0.0001263492,6,1
0.0006715371,9.782569e-05,6,1
0.0006375034,7.189524e-05,6,1
0.0006065489,5.115087e-05,6,1
0.0005708945,3.494434e-05,6,1
0.0005188715,2.068259e-05,6,1
0.0004465904,8.689758e-06,6,1
0.000353889,3.503668e-06,6,1
0.0002496809,1.241726e-05,6,1
0.0001453108,3.624086e-05,6,1
4.855783e-05,6.768154e-05,6,1
-3.539201e-05,9.831188e-05,6,1
-0.0001032974,0.0001253768,6,1
-0.0001491618,0.0001527658,6,1
-0.0001689338,0.0001803169,6,1
-0.0001627754,0.0002046267,6,1
-0.0001353863,0.0002227781,6,1
-9.470791e-05,0.0002355812,6,1
-5.159854e-05,0.0002457913,6,1
-1.934754e-05,0.0002555152,6,1
-1.545797e-05,0.0002626462,6,1
-5.208474e-05,0.0002657254,6,1
-0.0001308485,0.0002696149,6,1
-0.0002470493,0.0002775562,6,1
-0.0003867496,0.0002934386,6,1
-0.0005274223,0.0003161277,6,1
-0.0006467023,0.000331848,6,1
-0.0007285453,0.0003289309,6,1
-0.00076501,0.0003046211,6,1
-0.0007572309,0.0002624841,6,1
-0.0007118525,0.0002149989,6,1
-0.0006475127,0.0001738343,6,1
-0.0005847933,0.0001440143,6,1
-0.0005395772,0.0001221355,6,1
-0.0005206155,0.0001044704,6,1
-0.0005283947,9.118101e-05,6,1
-0.0005570802,7.546067e-05,6,1
-0.0005975965,5.001642e-05,6,1
-0.0006439472,6.744974e-06,6,1
-0.0006875428,-5.921561e-05,6,1
-0.0007176869,-0.0001485136,6,1
-0.0007257902,-0.0002593663,6,1
-0.0006993735,-0.0003820497,6,1
-0.0006319543,-0.000507002,6,1
-0.0005371462,-0.0006228787,6,1
-0.0004378002,-0.0007137973,6,1
-0.0003548227,-0.0007669547,6,1
-0.0003074997,-0.0007794338,6,1
-0.0003036101,-0.0007517206,6,1
-0.0003366714,-0.0006891634,6,1
-0.0003865875,-0.0006065101,6,1
-0.0004347209,-0.0005189948,6,1
-0.0004681064,-0.0004369898,6,1
-0.0004886886,-0.0003619536,6,1
-0.0005031124,-0.0002843243,6,1
-0.0005125122,-0.0001974573,6,1
-0.0005136467,-0.0001055663,6,1
-0.0005045711,-2.307504e-05,6,1
-0.000484637,3.656499e-05,6,1
-0.000452224,7.059871e-05,6,1
-0.0003998769,8.405014e-05,6,1
-0.0003190063,8.631905e-05,6,1
-0.000206695,8.405014e-05,6,1
-6.051213e-05,8.291568e-05,6,1
0.0001116012,8.729144e-05,6,1
0.0002948972,9.960841e-05,6,1
0.0004704139,0.0001218114,6,1
0.0006183797,0.0001517934,6,1
0.0007190223,0.000185503,6,1
0.0007697488,0.0002112714,6,1
0.0007781762,0.0002171058,6,1
0.0007541905,0.0001976579,6,1
0.0007110811,0.0001624898,6,1
0.0006527375,0.0001261871,6,1
0.0005759185,0.0001015532,6,1
0.0004814344,9.296373e-05,6,1
0.0003723644,0.0001005808,6,1
0.0002584324,0.0001235941,6,1
0.0001475797,0.0001645966,6,1
5.19612e-05,0.0002198609,6,1
-1.221667e-05,0.0002741528,6,1
-3.490581e-05,0.0003136967,6,1
-1.724069e-05,0.0003324963,6,1
2.554455e-05,0.0003334687,6,1
7.157111e-05,0.0003269861,6,1
0.0001120874,0.0003185587,6,1
0.0001551968,0.0003080245,6,1
0.0002065715,0.0002901973,6,1
0.0002571359,0.0002637806,6,1
0.0002861456,0.000230071,6,1
0.000284525,0.000195389,6,1
0.0002581083,0.000168162,6,1
0.0002260194,0.0001561692,6,1
0.0001986303,0.0001683241,6,1
0.000175455,0.000217754,6,1
0.0001539003,0.0003088348,6,1
0.000138342,0.000426008,6,1
0.0001344524,0.0005339436,6,1
0.0001448246,0.0005984457,6,1
0.0001697827,0.000596987,6,1
0.0001974959,0.0005245438,6,1
0.0002086784,0.000391164,6,1
0.000192958,0.0002153231,6,1
0.0001543865,2.214118e-05,6,1
0.0001075496,-0.0001559686,6,1
7.90261e-05,-0.0002851347,6,1
9.474644e-05,-0.0003460712,6,1
0.0001613553,-0.0003446126,6,1
0.0002645909,-0.0003062031,6,1
0.0003749574,-0.0002605007,6,1
0.0004603659,-0.0002279256,6,1
0.0004992616,-0.0002162569,6,1
0.0004893756,-0.0002232257,6,1
0.0004391353,-0.0002399184,6,1
0.0003619922,-0.0002559629,6,1
0.0002785285,-0.0002650386,6,1
0.0002073819,-0.0002690902,6,1
0.0001568175,-0.0002733039,6,1
0.0001304008,-0.0002825416,6,1
0.000123432,-0.000301017,6,1
0.0001237561,-0.0003311612,6,1
0.0001171115,-0.0003745947,6,1
9.960841e-05,-0.0004282383,6,1
7.319176e-05,-0.0004847991,6,1
4.418206e-05,-0.000539091,6,1
2.39239e-05,-0.0005935449,6,1
1.938607e-05,-0.0006499436,6,1
3.93201e-05,-0.0007060182,6,1
9.020862e-05,-0.0007530171,6,1
0.0001642725,-0.0007760304,6,1
0.0002428742,-0.0007612825,6,1
0.000307052,-0.0007029389,6,1
0.0003446512,-0.0006102377,6,1
0.0003493511,-0.0005014918,6,1
0.0003209897,-0.000395339,6,1
0.0002587566,-0.0003023136,6,1
0.0001658931,-0.0002217671,6,1
5.277153e-05,-0.0001464067,6,1
-6.326724e-05,-7.169464e-05,6,1
-0.0001700683,6.90704e-06,6,1
-0.0002645523,9.280167e-05,6,1
-0.0003562813,0.0001830721,6,1
-0.0004544929,0.0002710735,6,1
-0.0005572423,0.0003454615,6,1
-0.0006479988,0.0003910019,6,1
-0.0006998597,0.0003997535,6,1
-0.0006928909,0.0003734989,6,1
-0.0006259579,0.0003221241,6,1
-0.0005207775,0.0002603772,6,1
-0.0004141386,0.000205275,6,1
-0.000333106,0.0001692965,6,1
-0.0002831898,0.0001569795,6,1
-0.0002476975,0.0001683241,6,1
-0.0002076674,0.0001979821,6,1
-0.0001532135,0.0002316917,6,1
-8.692878e-05,0.0002529222,6,1
-1.950961e-05,0.0002529222,6,1
3.688912e-05,0.0002320158,6,1
7.481241e-05,0.0001992786,6,1
9.831188e-05,0.0001725378,6,1
0.0001175977,0.0001678379,6,1
0.0001435281,0.0001913374,6,1
0.0001830721,0.0002341226,6,1
0.0002388225,0.0002833905,6,1
0.000311914,0.0003277964,6,1
0.0003898674,0.0003642611,6,1
0.0004495075,0.0003984569,6,1
0.0004645796,0.0004362182,6,1
0.0004222805,0.0004765725,6,1
0.0003321722,0.0005117406,6,1
0.0002187264,0.0005334574,6,1
0.0001046324,0.0005376711,6,1
3.665733e-06,0.000522599,6,1
-7.947377e-05,0.0004939134,6,1
-0.0001472171,0.0004602039,6,1
-0.0002060468,0.0004213082,6,1
-0.0002592042,0.0003749574,6,1
-0.0003002067,0.0003248792,6,1
-0.0003175477,0.000284525,6,1
-0.0003104168,0.000269777,6,1
-0.0002917793,0.0002937627,6,1
-0.0002848105,0.0003535648,6,1
-0.0003040963,0.0004320045,6,1
-0.0003457471,0.0005062304,6,1
-0.0003861013,0.0005507984,6,1
-0.0003946908,0.0005452881,6,1
-0.0003447747,0.0004851619,6,1
-0.0002303566,0.0003832228,6,1
-6.748094e-05,0.0002579462,6,1
0.000106091,0.0001273216,6,1
0.0002466017,2.531276e-06,6,1
0.0003256896,-0.0001146419,6,1
0.0003438409,-0.0002245222,6,1
0.0003203414,-0.0003193304,6,1
0.0002752873,-0.0003917736,6,1
0.0002245608,-0.0004371519,6,1
0.0001752929,-0.000454817,6,1
0.000118408,-0.0004460655,6,1
4.158902e-05,-0.0004149489,6,1
-6.132246e-05,-0.0003682741,6,1
-0.0001893541,-0.0003159271,6,1
-0.0003397507,-0.0002643903,6,1
-0.0004982505,-0.0002162569,6,1
-0.0006447575,-0.0001736337,6,1
-0.0007593377,-0.0001431655,6,1
-0.0008327533,-0.0001305243,6,1
-0.0008687317,-0.0001363587,6,1
-0.0008724593,-0.0001532135,6,1
-0.0008361567,-0.0001780095,6,1
-0.0007376209,-0.0002088019,6,1
-0.0005677765,-0.0002404046,6,1
-0.0003373197,-0.0002656868,6,1
-6.942573e-05,-0.0002830278,6,1
0.000210299,-0.0002921034,6,1
0.000485486,-0.0002985861,6,1
0.0007467355,-0.0003139823,6,1
0.0009745996,-0.0003415334,6,1
0.001127589,-0.0003682741,6,1
0.001169726,-0.0003815635,6,1
0.001085452,-0.0003823738,6,1
0.0008945392,-0.0003788084,6,1
0.0006357207,-0.0003755671,6,1
0.0003589129,-0.0003720016,6,1
0.0001128978,-0.0003634122,6,1
-6.699475e-05,-0.0003463953,6,1
-0.0001715269,-0.000315765,6,1
-0.0002131776,-0.0002681178,6,1
-0.00021415,-0.0002068571,6,1
-0.00018433,-0.0001386276,6,1
-0.0001327933,-7.509801e-05,6,1
-7.639453e-05,-2.145439e-05,6,1
-4.236082e-05,2.068259e-05,6,1
-4.722278e-05,5.277153e-05,6,1
-7.931171e-05,7.610894e-05,6,1
-0.0001036215,8.923623e-05,6,1
-8.773911e-05,9.31258e-05,6,1
-3.279896e-05,9.409818e-05,6,1
2.975825e-05,0.000101067,6,1
6.265751e-05,0.0001154908,6,1
4.466826e-05,0.0001347766,6,1
-1.286493e-05,0.0001577899,6,1
-7.412562e-05,0.0001850168,6,1
-9.811128e-05,0.0002171058,6,1
-6.618442e-05,0.0002530843,6,1
9.500085e-06,0.0002872801,6,1
9.458438e-05,0.0003124002,6,1
0.0001480659,0.0003222862,6,1
0.0001495245,0.0003166139,6,1
0.0001083599,0.0003010556,6,1
5.536457e-05,0.0002738286,6,1
2.068259e-05,0.0002333123,6,1
1.679302e-05,0.0001756171,6,1
5.017848e-05,9.63671e-05,6,1
0.0001231079,-3.303076e-06,6,1
0.0002248849,-0.0001101041,6,1
0.0003295791,-0.0002028055,6,1
0.000410936,-0.0002580697,6,1
0.0004360561,-0.0002645523,6,1
0.0003845193,-0.0002243602,6,1
0.0002642668,-0.0001511067,6,1
0.0001091703,-6.035007e-05,6,1
-3.555408e-05,2.894792e-05,6,1
-0.0001418689,0.0001022015,6,1
-0.0002045882,0.0001511452,6,1
-0.0002308428,0.0001746447,6,1
-0.0002355427,0.0001715654,6,1
-0.0002378116,0.0001459591,6,1
-0.0002473734,0.0001056048,6,1
-0.0002627696,6.298164e-05,6,1
-0.0002794623,2.554455e-05,6,1
-0.0002937241,-1.682422e-06,6,1
-0.0003100927,-1.62683e-05,6,1
-0.000340561,-1.707863e-05,6,1
-0.000397608,-8.165035e-06,6,1
-0.0004831784,4.962256e-06,6,1
-0.0005804176,1.614476e-05,6,1
-0.0006586951,2.359977e-05,6,1
-0.0006902979,2.846173e-05,6,1
-0.0006638812,3.462021e-05,6,1
-0.0005958138,3.834771e-05,6,1
-0.0005162397,3.883391e-05,6,1
-0.0004228902,3.251336e-05,6,1
-0.00027849,1.906194e-05,6,1
-5.419158e-05,4.47606e-06,6,1
0.0002389846,-6.058186e-06,6,1
0.000544964,-1.513384e-05,6,1
0.0008092928,-2.89094e-05,6,1
0.00100442,-4.90055e-05,6,1
0.001127103,-7.120844e-05,6,1
0.001175561,-8.725291e-05,6,1
0.001146713,-9.308726e-05,6,1
0.001051094,-8.82253e-05,6,1
0.0009147974,-7.833932e-05,6,1
0.000772666,-7.039812e-05,6,1
0.0006550064,-6.991193e-05,6,1
0.0005730013,-7.769106e-05,6,1
0.000515144,-9.211487e-05,6,1
0.0004461041,-0.0001054042,6,1
0.0003209897,-0.0001114006,6,1
0.0001171115,-0.0001096179,6,1
-0.0001485136,-0.0001039456,6,1
-0.0004219178,-9.568031e-05,6,1
-0.0006361681,-9.049421e-05,6,1
-0.0007431312,-9.179074e-05,6,1
-0.0007300039,-0.0001021629,6,1
-0.0006228787,-0.0001156143,6,1
-0.0004732924,-0.0001289037,6,1
-0.0003389403,-0.0001387897,6,1
-0.0002543422,-0.0001413827,6,1
-0.0002259808,-0.0001336036,6,1
-0.0002386219,-0.000114804,6,1
-0.0002754107,-8.984595e-05,6,1
-0.0003201407,-6.099833e-05,6,1
-0.0003614674,-3.085418e-05,6,1
-0.0003899909,-4.923729e-06,6,1
-0.0003990665,1.614476e-05,6,1
-0.0003908012,3.462021e-05,6,1
-0.0003749188,5.374392e-05,6,1
-0.000358064,7.221937e-05,6,1
-0.0003392644,9.409818e-05,6,1
-0.0003117133,0.0001188942,6,1
-0.0002682799,0.0001454729,6,1
-0.0002088019,0.0001692965,6,1
-0.0001477033,0.0001866375,6,1
-0.000104756,0.0001970097,6,1
-0.0001026491,0.000200251,6,1
-0.0001373311,0.0001986303,6,1
-0.0001754164,0.0001957132,6,1
-0.0001682856,0.0001957132,6,1
-7.785312e-05,0.000202844,6,1
9.507057e-05,0.0002169437,6,1
0.0003162898,0.0002347709,6,1
0.0005305402,0.0002493568,6,1
0.0006866092,0.0002556773,6,1
0.0007525698,0.0002519498,6,1
0.0007318255,0.0002391467,6,1
0.0006559788,0.0002242366,6,1
0.0005627912,0.0002125679,6,1
0.0004812723,0.000202844,6,1
0.0004180668,0.0001924718,6,1
0.0003592371,0.000178048,6,1
0.0002829043,0.0001594105,6,1
0.0001827479,0.0001316974,6,1
6.638502e-05,9.620504e-05,6,1
-4.673658e-05,5.909208e-05,6,1
-0.0001410586,2.716521e-05,6,1
-0.0002175534,3.989864e-06,6,1
-0.0002945344,-6.544382e-06,6,1
-0.0003831841,-8.002969e-06,6,1
-0.0004784786,-6.220252e-06,6,1
-0.0005674524,-8.002969e-06,6,1
-0.0006407059,-1.902341e-05,6,1
-0.0006917564,-4.446767e-05,6,1
-0.0007147697,-8.595638e-05,6,1
-0.000708125,-0.0001318209,6,1
-0.0006770085,-0.0001658546,6,1
-0.0006288751,-0.0001791439,6,1
-0.0005771763,-0.000171851,6,1
-0.0005316359,-0.0001517549,6,1
-0.0004938748,-0.0001308485,6,1
-0.0004653512,-0.0001154523,6,1
-0.0004459034,-0.0001063766,6,1
-0.0004251591,-9.956988e-05,6,1
-0.0003856151,-9.146661e-05,6,1
-0.0003151167,-8.417367e-05,6,1
-0.0002219292,-8.158062e-05,6,1
-0.00012469,-8.676672e-05,6,1
-4.349527e-05,-9.973194e-05,6,1
1.290346e-05,-0.0001152902,6,1
5.390598e-05,-0.0001305243,6,1
9.344993e-05,-0.0001415448,6,1
0.0001488763,-0.000149486,6,1
0.0002328261,-0.0001562927,6,1
0.0003422202,-0.0001596961,6,1
0.0004546936,-0.0001582375,6,1
0.0005496639,-0.0001575893,6,1
0.0006214589,-0.0001647201,6,1
0.0006738061,-0.0001802784,6,1
0.0007063812,-0.00019924,6,1
0.000713188,-0.0002096122,6,1
0.0006951987,-0.000211557,6,1
0.0006644063,-0.0002133397,6,1
0.0006302104,-0.0002144742,6,1
0.0005903424,-0.000206695,6,1
0.0005378332,-0.0001775233,6,1
0.0004699278,-0.0001209625,6,1
0.0004021844,-4.106429e-05,6,1
0.0003431926,4.790957e-05,6,1
0.0002892249,0.0001299146,6,1
0.0002313675,0.0001934442,6,1
0.0001725378,0.0002316917,6,1
0.0001224596,0.0002446569,6,1
9.085688e-05,0.0002362295,6,1
8.259155e-05,0.0002180782,6,1
9.53947e-05,0.0001947408,6,1
0.0001200286,0.0001662173,6,1
0.0001438522,0.0001305629,6,1
0.000153252,8.729144e-05,6,1
0.0001368834,3.624086e-05,6,1
0.0001000946,-1.788895e-05,6,1
7.659513e-05,-6.796714e-05,6,1
0.0001065772,-0.0001118868,6,1
0.0002137024,-0.0001525652,6,1
0.0003832228,-0.000194216,6,1
0.0005702463,-0.0002306807,6,1
0.0007204809,-0.0002523975,6,1
0.0007927621,-0.0002496423,6,1
0.0007759072,-0.0002198223,6,1
0.0006932539,-0.0001666649,6,1
0.0005778633,-9.843541e-05,6,1
0.0004600418,-2.177852e-05,6,1
0.0003555096,5.893001e-05,6,1
0.0002637806,0.0001328318,6,1
0.0001756171,0.0001866375,6,1
8.064677e-05,0.0002128921,6,1
-2.258885e-05,0.0002135403,6,1
-0.0001264727,0.0002033302,6,1
-0.000224036,0.0001992786,6,1
-0.0003112272,0.000210299,6,1
-0.0003851289,0.000237526,6,1
-0.0004439586,0.0002689667,6,1
-0.0004899852,0.0002903593,6,1
-0.0005329325,0.0002914938,6,1
-0.0005781487,0.0002749631,6,1
-0.0006298475,0.0002444948,6,1
-0.0006765223,0.0002041406,6,1
-0.0006969426,0.0001600588,6,1
-0.0006812222,0.0001146805,6,1
-0.0006431369,6.703327e-05,6,1
-0.0006066722,1.857574e-05,6,1
-0.0005937069,-2.501983e-05,6,1
-0.0006183409,-5.532604e-05,6,1
-0.000685598,-6.974985e-05,6,1
-0.0007839716,-7.266703e-05,6,1
-0.0008899623,-7.33153e-05,6,1
-0.000971157,-8.660465e-05,6,1
-0.001004056,-0.0001144799,6,1
-0.000976019,-0.0001441378,6,1
-0.0008987138,-0.0001608306,6,1
-0.0008082814,-0.0001532135,6,1
-0.0007442656,-0.0001206384,6,1
-0.0007316245,-6.829127e-05,6,1
-0.0007680892,2.693341e-06,6,1
-0.0008240017,9.701536e-05,6,1
-0.0008554424,0.0002125679,6,1
-0.0008236776,0.0003277964,6,1
-0.0007018045,0.0004206599,6,1
-0.0004838267,0.0004786793,6,1
-0.0001906506,0.0004918066,6,1
0.0001352628,0.0004540453,6,1
0.0004456179,0.000361506,6,1
0.0007118915,0.0002214815,6,1
0.0009290591,5.163707e-05,6,1
0.00111819,-0.0001256624,6,1
0.001303107,-0.0002904828,6,1
0.001483972,-0.0004334244,6,1
0.001630317,-0.0005507597,6,1
0.001703895,-0.0006347094,6,1
0.001677964,-0.0006731189,6,1
0.001549608,-0.0006562641,6,1
0.00134735,-0.0005878726,6,1
0.001118514,-0.0004847991,6,1
0.0009115561,-0.0003692465,6,1
0.0007597008,-0.0002572594,6,1
0.0006788301,-0.0001546721,6,1
0.000661165,-6.164659e-05,6,1
0.0006757508,1.857574e-05,6,1
0.0006872575,8.340187e-05,6,1
0.0006608408,0.000128456,6,1
0.0005723531,0.0001566554,6,1
0.000420984,0.0001756171,6,1
0.0002281262,0.0002008992,6,1
2.700314e-05,0.0002415777,6,1
-0.0001465688,0.0002923041,6,1
-0.0002750866,0.0003373583,6,1
-0.0003613053,0.0003603715,6,1
-0.0004190006,0.0003558337,6,1
-0.0004617858,0.000331848,6,1
-0.0004935506,0.000299435,6,1
-0.0005066779,0.0002717218,6,1
-0.0004956574,0.0002545429,6,1
-0.0004747511,0.0002430362,6,1
-0.0004706994,0.0002213195,6,1
-0.0005048952,0.0001757791,6,1
-0.0005724764,0.0001020394,6,1
-0.0006392473,-1.034161e-06,6,1
-0.0006512401,-0.0001269589,6,1
-0.0005690731,-0.0002668213,6,1
-0.000400201,-0.0004029561,6,1
-0.0001938919,-0.0005188328,6,1
-2.015787e-05,-0.0006084549,6,1
6.330578e-05,-0.0006818705,6,1
3.575467e-05,-0.0007488034,6,1
-7.55842e-05,-0.000809902,6,1
-0.0002131776,-0.00085447,6,1
-0.0003279199,-0.0008690559,6,1
-0.0004018217,-0.0008436117,6,1
-0.0004416897,-0.0007632272,6,1
-0.0004625961,-0.0006193133,6,1
-0.0004726442,-0.0004194868,6,1
-0.0004700511,-0.0001887058,6,1
-0.0004446069,3.640293e-05,6,1
-0.0003838324,0.0002232643,6,1
-0.0002793003,0.0003555096,6,1
-0.0001383035,0.0004344354,6,1
1.663096e-05,0.000470576,6,1
0.0001579519,0.0004790034,6,1
0.0002576221,0.0004770586,6,1
0.0002927903,0.0004770586,6,1
0.0002577842,0.0004841895,6,1
0.0001623277,0.0004989374,6,1
3.672706e-05,0.0005209784,6,1
-8.271508e-05,0.0005490156,6,1
-0.0001713648,0.0005791598,6,1
-0.000216419,0.0006031455,6,1
-0.0002183637,0.0006136798,6,1
-0.0001864369,0.000609466,6,1
-0.0001357104,0.000594394,6,1
-8.093236e-05,0.0005739738,6,1
-3.020592e-05,0.0005475571,6,1
9.824215e-06,0.00051012,6,1
3.899597e-05,0.0004603659,6,1
5.601284e-05,0.0004041292,6,1
6.136099e-05,0.0003459477,6,1
5.56887e-05,0.000294573,6,1
4.402e-05,0.0002532463,6,1
3.299956e-05,0.0002247229,6,1
2.408596e-05,0.0002070577,6,1
1.501031e-05,0.0001947408,6,1
1.002961e-07,0.0001806411,6,1
-1.837515e-05,0.0001560072,6,1
-3.830919e-05,0.0001166253,6,1
-5.743289e-05,6.800567e-05,6,1
-7.120844e-05,1.873781e-05,6,1
-7.785312e-05,-3.247483e-05,6,1
-7.493595e-05,-9.405965e-05,6,1
-6.39155e-05,-0.0001686097,6,1
-5.889148e-05,-0.0002579077,6,1
-7.931171e-05,-0.0003609812,6,1
-0.000129714,-0.0004706994,6,1
-0.0001985918,-0.0005726385,6,1
-0.0002652006,-0.0006465403,6,1
-0.0003110651,-0.0006784671,6,1
-0.0003300267,-0.0006656639,6,1
-0.00032322,-0.0006154237,6,1
-0.0002934,-0.0005413599,6,1
-0.0002425115,-0.0004616237,6,1
-0.0001737958,-0.0003895047,6,1
-9.422172e-05,-0.0003266234,6,1
-1.983374e-05,-0.0002713591,6,1
2.522042e-05,-0.0002125294,6,1
2.376183e-05,-0.0001467309,6,1
-3.231277e-05,-7.250496e-05,6,1
-0.0001387897,8.851824e-06,6,1
-0.0002708729,9.328786e-05,6,1
-0.0003908012,0.0001759412,6,1
-0.00046211,0.0002478982,6,1
-0.0004651892,0.0003049452,6,1
-0.000397608,0.0003399513,6,1
-0.0002783279,0.0003457857,6,1
-0.0001353863,0.0003261758,6,1
3.341602e-06,0.0002940868,6,1
0.0001221355,0.0002637806,6,1
0.0002208333,0.0002453052,6,1
0.0003172622,0.0002380122,6,1
0.0004276287,0.0002357433,6,1
0.0005553362,0.0002331503,6,1
0.0006856368,0.0002256952,6,1
0.0007989206,0.0002135403,6,1
0.0008893532,0.0001979821,6,1
0.0009566103,0.0001842065,6,1
0.0009997197,0.000177886,6,1
0.001015278,0.0001788584,6,1
0.001004906,0.0001811273,6,1
0.0009783271,0.0001777239,6,1
0.0009493173,0.0001683241,6,1
0.0009288971,0.0001597346,6,1
0.0009300316,0.0001582761,6,1
0.0009632549,0.0001652449,6,1
0.001032457,0.0001761032,6,1
0.00113391,0.0001863134,6,1
0.001241035,0.0001949028,6,1
0.00131121,0.0001986303,6,1
0.001299865,0.0001895547,6,1
0.00118334,0.0001624898,6,1
0.0009726548,0.0001222976,6,1
0.0007049226,7.821578e-05,6,1
0.0004196875,4.02925e-05,6,1
0.0001477418,1.274139e-05,6,1
-9.162867e-05,-5.247859e-06,6,1
-0.0002914552,-2.031993e-05,6,1
-0.0004556273,-3.944364e-05,6,1
-0.000591438,-5.775702e-05,6,1
-0.0007009942,-6.845333e-05,6,1
-0.0007859163,-7.039812e-05,6,1
-0.0008541459,-6.991193e-05,6,1
-0.0009183238,-7.801519e-05,6,1
-0.0009894704,-0.0001068628,6,1
-0.001065803,-0.0001622891,6,1
-0.001129009,-0.0002421874,6,1
-0.001159639,-0.0003366714,6,1
-0.001144891,-0.0004379622,6,1
-0.001089627,-0.0005309877,6,1
-0.001010701,-0.0005961379,6,1
-0.0009330717,-0.0006113721,6,1
-0.0008771592,-0.0005734488,6,1
-0.0008543079,-0.0004972781,6,1
-0.0008614388,-0.0004104111,6,1
-0.0008820211,-0.0003410472,6,1
-0.0009014689,-0.0003065273,6,1
-0.0009150825,-0.0003078238,6,1
-0.0009184858,-0.0003308371,6,1
-0.0008946622,-0.0003600088,6,1
-0.000824812,-0.0003822118,6,1
-0.0007042355,-0.0003896668,6,1
-0.0005525423,-0.0003820497,6,1
-0.0003959873,-0.0003668155,6,1
-0.0002428356,-0.0003485022,6,1
-8.109443e-05,-0.0003298647,6,1
0.0001015532,-0.0003104168,6,1
0.0003109416,-0.0002840002,6,1
0.0005477191,-0.0002472114,6,1
0.0008016757,-0.0002052365,6,1
0.001036995,-0.0001656925,6,1
0.001212836,-0.0001323071,6,1
0.001301324,-0.0001045939,6,1
0.00129711,-7.720486e-05,6,1
0.00121316,-4.819517e-05,6,1
0.001069408,-1.383732e-05,6,1
0.0008947013,2.829966e-05,6,1
0.0007269635,7.254349e-05,6,1
0.0005987698,0.0001080358,6,1
0.0005271368,0.0001266733,6,1
0.0005133613,0.0001260251,6,1
0.0005452881,0.0001141943,6,1
0.0006073592,0.0001030118,6,1
0.0006841783,9.993253e-05,6,1
0.0007621317,0.0001075496,6,1
0.0008229063,0.0001232699,6,1
0.0008452713,0.0001440143,6,1
0.00081221,0.0001650828,6,1
0.0007104329,0.0001838824,6,1
0.0005396159,0.0002000889,6,1
0.0003153174,0.0002171058,6,1
6.314371e-05,0.000235095,6,1
-0.0001797922,0.0002527602,6,1
-0.000382698,0.0002662116,6,1
-0.00052175,0.0002759355,6,1
-0.0005877105,0.0002804733,6,1
-0.0005945173,0.0002824181,6,1
-0.0005666421,0.0002816078,6,1
-0.0005293671,0.0002819319,6,1
-0.0004961436,0.0002866318,6,1
-0.0004726442,0.0002986247,6,1
-0.0004609755,0.0003166139,6,1
-0.0004616237,0.0003347652,6,1
-0.0004718339,0.0003462718,6,1
-0.0004869059,0.0003431926,6,1
-0.0005006815,0.0003277964,6,1
-0.0005102433,0.0003047831,6,1
-0.0005073262,0.0002806354,6,1
-0.0004849611,0.0002594049,6,1
-0.0004444448,0.0002446569,6,1
-0.0003985804,0.0002401191,6,1
-0.000367788,0.0002433604,6,1
-0.0003768636,0.0002475741,6,1
-0.0004371519,0.0002517878,6,1
-0.0005447632,0.0002504913,6,1
-0.0006799257,0.0002355812,6,1
-0.0008013126,0.0002023578,6,1
-0.0008632215,0.0001501728,6,1
-0.0008387497,8.502253e-05,6,1
-0.0007332452,1.371378e-05,6,1
-0.0005732867,-6.035007e-05,6,1
-0.0003943667,-0.0001319829,6,1
-0.000236353,-0.0001971332,6,1
-0.0001290658,-0.0002545043,6,1
-8.417367e-05,-0.0003005308,6,1
-9.033215e-05,-0.000328082,6,1
-0.0001279313,-0.0003303509,6,1
-0.0001796301,-0.0003112272,6,1
-0.0002318152,-0.0002770314,6,1
-0.0002695764,-0.0002420253,6,1
-0.0002805968,-0.00021415,6,1
-0.0002583939,-0.0001929195,6,1
-0.0002146363,-0.0001721751,6,1
-0.0001703924,-0.0001517549,6,1
-0.0001405724,-0.0001340898,6,1
-0.0001326312,-0.0001229073,6,1
-0.0001477033,-0.0001185315,6,1
-0.0001789819,-0.0001188556,6,1
-0.0002123673,-0.0001214487,6,1
-0.0002285739,-0.0001245279,6,1
-0.0002136638,-0.0001280934,6,1
-0.000164396,-0.0001295519,6,1
-8.579432e-05,-0.0001274451,6,1
6.90704e-06,-0.0001242038,6,1
9.231547e-05,-0.0001245279,6,1
0.0001534141,-0.0001318209,6,1
0.0001811273,-0.000142031,6,1
0.0001736723,-0.0001477033,6,1
0.0001385041,-0.0001439758,6,1
8.567078e-05,-0.0001342519,6,1
2.910999e-05,-0.0001208004,6,1
-1.529591e-05,-0.0001052422,6,1
-3.182657e-05,-9.130454e-05,6,1
-1.075808e-05,-8.44978e-05,6,1
4.580272e-05,-8.239095e-05,6,1
0.0001266733,-8.093236e-05,6,1
0.0002174299,-7.60704e-05,6,1
0.0003021901,-6.48879e-05,6,1
0.0003662059,-4.608832e-05,6,1
0.0003976466,-2.015787e-05,6,1
0.0003908399,8.203562e-06,6,1
0.0003508097,3.510641e-05,6,1
0.0003007315,6.03886e-05,6,1
0.0002725321,8.502253e-05,6,1
0.0002936006,0.0001099806,6,1
0.0003699334,0.0001334801,6,1
0.0004913204,0.0001513072,6,1
0.0006368551,0.0001633001,6,1
0.0007746107,0.000170593,6,1
0.000871688,0.0001798307,6,1
0.0009122044,0.0001945787,6,1
0.0009047493,0.0002146748,6,1
0.000869257,0.000237526,6,1
0.000819827,0.0002590807,6,1
0.0007597008,0.0002752873,6,1
0.0006916333,0.0002842008,6,1
0.0006164349,0.0002851732,6,1
0.0005336195,0.0002832284,6,1
0.0004404318,0.000284525,6,1
0.0003294171,0.0002908455,6,1
0.0001992786,0.000299435,6,1
5.585077e-05,0.0003072141,6,1
-9.049421e-05,0.0003086727,6,1
-0.0002261429,0.0003010556,6,1
-0.0003301888,0.0002825802,6,1
-0.000387722,0.0002535705,6,1
-0.0003942046,0.0002240746,6,1
-0.0003502849,0.0002111094,6,1
-0.0002645523,0.0002239125,6,1
-0.0001546721,0.0002607014,6,1
-5.013995e-05,0.0003031625,6,1
2.084466e-05,0.0003329825,6,1
4.871989e-05,0.0003362238,6,1
6.719535e-05,0.0003109416,6,1
0.0001305629,0.0002636185,6,1
0.0002842008,0.0002059233,6,1
0.0005282713,0.0001446626,6,1
0.0008141547,8.46984e-05,6,1
0.001079618,2.554455e-05,6,1
0.001278797,-3.701266e-05,6,1
0.001394025,-0.0001054042,6,1
0.001434056,-0.0001857886,6,1
0.00140926,-0.0002830278,6,1
0.001317692,-0.0003929081,6,1
0.001156923,-0.0005024642,6,1
0.000936028,-0.0005920863,6,1
0.0006773715,-0.0006455678,6,1
0.0004078567,-0.0006514022,6,1
0.0001519555,-0.0006128307,6,1
-8.012204e-05,-0.0005447632,6,1
-0.0002934,-0.0004736166,6,1
-0.0004990608,-0.0004245108,6,1
-0.0006988873,-0.0004084663,6,1
-0.0008795901,-0.0004053871,6,1
-0.001015725,-0.0003750809,6,1
-0.001096271,-0.0002874036,6,1
-0.001125929,-0.0001449482,6,1
-0.001119609,2.181705e-05,6,1
-0.001096433,0.0001746447,6,1
-0.001067424,0.0002914938,6,1
-0.001033714,0.0003650715,6,1
-0.0009919014,0.0003929467,6,1
-0.0009426335,0.0003726885,6,1
-0.0008868831,0.0003115899,6,1
-0.0008287016,0.0002318537,6,1
-0.0007703581,0.0001550348,6,1
-0.00071558,9.231547e-05,6,1
-0.0006693914,3.964424e-05,6,1
-0.0006329267,-6.706447e-06,6,1
-0.000606186,-4.722278e-05,6,1
-0.0005817142,-7.914964e-05,6,1
-0.0005488148,-0.0001052422,6,1
-0.0004992229,-0.0001413827,6,1
-0.0004301831,-0.0002083157,6,1
-0.0003454229,-0.000318358,6,1
-0.0002417012,-0.0004706994,6,1
-0.0001076731,-0.0006486471,6,1
5.844381e-05,-0.0008215707,6,1
0.0002315296,-0.0009546264,6,1
0.0003707437,-0.001021397,6,1
0.0004384871,-0.001007946,6,1
0.0004211461,-0.0009220513,6,1
0.0003350894,-0.0007842957,6,1
0.0002064095,-0.0006251476,6,1
5.487838e-05,-0.0004749131,6,1
-0.0001042698,-0.0003546606,6,1
-0.0002545043,-0.0002731418,6,1
-0.000380267,-0.0002253326,6,1
-0.0004661616,-0.0002031296,6,1
-0.0004976023,-0.0001948643,6,1
-0.0004658375,-0.0001856265,6,1
-0.0003666535,-0.0001577513,6,1
-0.0002149604,-8.644259e-05,6,1
-4.365734e-05,4.110282e-05,6,1
0.0001043083,0.0002174299,6,1
0.0001936063,0.0004128807,6,1
0.0002125679,0.0005859666,6,1
0.0001738343,0.000705895,6,1
0.0001153287,0.0007679661,6,1
8.46984e-05,0.0007926,6,1
0.0001081979,0.0008076721,6,1
0.000185341,0.0008319819,6,1
0.0002863077,0.0008660157,6,1
0.0003670162,0.0008966461,6,1
0.0003952156,0.0009041011,6,1
0.0003628026,0.0008729845,6,1
0.0002872801,0.0008008654,6,1
0.00019782,0.0006914712,6,1
0.000118408,0.0005616568,6,1
5.730935e-05,0.0004323286,6,1
8.365628e-06,0.0003177483,6,1
-4.074016e-05,0.0002174299,6,1
-9.600444e-05,0.0001300767,6,1
-0.0001585616,5.293359e-05,6,1
-0.0002212809,-1.270286e-05,6,1
-0.0002812451,-6.537409e-05,6,1
-0.000335537,-9.827335e-05,6,1
-0.0003807532,-0.0001058904,6,1
-0.0004105732,-8.838737e-05,6,1
-0.0004202971,-5.370539e-05,6,1
-0.0004147869,-1.805102e-05,6,1
-0.0004089525,3.827799e-06,6,1
-0.0004209454,3.017472e-06,6,1
-0.0004659995,-1.643037e-05,6,1
-0.0005431426,-4.171256e-05,6,1
-0.0006267683,-5.889148e-05,6,1
-0.0006791154,-6.764301e-05,6,1
-0.0006820326,-7.623246e-05,6,1
-0.000643461,-9.000802e-05,6,1
-0.0005836589,-0.0001079973,6,1
-0.0005129984,-0.0001214487,6,1
-0.0004394208,-0.0001203142,6,1
-0.0003718396,-0.0001002181,6,1
-0.0003186821,-5.937768e-05,6,1
-0.0002817312,-2.492749e-06,6,1
-0.0002541802,5.957827e-05,6,1
-0.0002222533,0.0001143563,6,1
-0.0001642339,0.0001519555,6,1
-5.548811e-05,0.0001699448,6,1
0.0001116012,0.0001726999,6,1
0.0003211517,0.0001652449,6,1
0.0005475571,0.0001466074,6,1
0.0007689385,0.0001143563,6,1
0.0009697376,6.687121e-05,6,1
0.0011378,6.258778e-06,6,1
0.001265021,-5.2733e-05,6,1
0.001346054,-9.033215e-05,6,1
0.001378467,-8.838737e-05,6,1
0.001370202,-4.138842e-05,6,1
0.001338761,3.494434e-05,6,1
0.001298731,0.0001138702,6,1
0.001250111,0.0001701068,6,1
0.001194036,0.0001885823,6,1
0.001129858,0.0001686482,6,1
0.001055308,0.0001198666,6,1
0.0009639032,5.56887e-05,6,1
0.0008488368,-8.813297e-06,6,1
0.0007063812,-6.164659e-05,6,1
0.0005470709,-9.66527e-05,6,1
0.0003995914,-0.0001131834,6,1
0.0002955454,-0.0001157764,6,1
0.0002600531,-0.0001128592,6,1
0.0002971661,-0.0001104282,6,1
0.0003806297,-0.0001075111,6,1
0.0004687933,-0.0001034594,6,1
0.0005264886,-9.811128e-05,6,1
0.0005378332,-9.405965e-05,6,1
0.0004992616,-9.146661e-05,6,1
0.0004179048,-9.114248e-05,6,1
0.0003098072,-8.887356e-05,6,1
0.0002005751,-8.271508e-05,6,1
0.0001086841,-6.81292e-05,6,1
4.35338e-05,-4.009191e-05,6,1
1.160693e-05,5.86492e-07,6,1
8.203562e-06,4.839576e-05,6,1
1.9224e-05,9.442231e-05,6,1
2.34377e-05,0.000135911,6,1
-2.81688e-06,0.0001701068,6,1
-6.472583e-05,0.0002005751,6,1
-0.0001501342,0.0002292607,6,1
-0.0002379736,0.0002569738,6,1
-0.0003120375,0.000282256,6,1
-0.0003718396,0.0003049452,6,1
-0.0004280762,0.0003290929,6,1
-0.0004992229,0.0003587509,6,1
-0.000601162,0.0003919743,6,1
-0.0007470207,0.000425846,6,1
-0.0009342061,0.0004524247,6,1
-0.001140677,0.0004642555,6,1
-0.001332725,0.0004555039,6,1
-0.001480366,0.0004221185,6,1
-0.001565126,0.0003678266,6,1
-0.001587978,0.0003038107,6,1
-0.001566261,0.0002461155,6,1
-0.001513752,0.0002138645,6,1
-0.001439526,0.0002096508,6,1
-0.001349741,0.00022764,6,1
-0.001249423,0.0002537325,6,1
-0.001134195,0.0002726942,6,1
-0.0009912532,0.000267184,6,1
-0.0008115227,0.0002269918,6,1
-0.0005893312,0.0001479039,6,1
-0.0003287302,2.878586e-05,6,1
-4.414354e-05,-0.0001253383,6,1
0.0002357433,-0.0003092824,6,1
0.0004794896,-0.0005164018,6,1
0.0006622995,-0.0007424829,6,1
0.0007786624,-0.0009859049,6,1
0.0008433265,-0.001240023,6,1
0.0008776844,-0.001486849,6,1
0.0009034528,-0.00168862,6,1
0.0009446174,-0.001806766,6,1
0.001009282,-0.001816004,6,1
0.001081401,-0.001711309,6,1
0.001132451,-0.001504352,6,1
0.001127265,-0.001223817,6,1
0.001039264,-0.0009107067,6,1
0.0008611537,-0.0006102377,6,1
0.0006161107,-0.000355471,6,1
0.000349027,-0.0001603444,6,1
0.0001200286,-1.918548e-05,6,1
-2.015787e-05,7.400208e-05,6,1
-5.22468e-05,0.0001216493,6,1
5.772582e-06,0.0001229458,6,1
0.0001051186,8.242948e-05,6,1
0.0001923098,1.792748e-05,6,1
0.0002279642,-4.365734e-05,6,1
0.0002007372,-8.320128e-05,6,1
0.0001320215,-9.503204e-05,6,1
5.714729e-05,-8.368748e-05,6,1
1.883015e-06,-5.613637e-05,6,1
-3.069211e-05,-2.275091e-05,6,1
-5.419158e-05,1.322759e-05,6,1
-8.093236e-05,5.115087e-05,6,1
-0.0001146419,9.21534e-05,6,1
-0.0001517549,0.00013818,6,1
-0.0001815749,0.0001798307,6,1
-0.0001977815,0.0002068957,6,1
-0.0002044261,0.0002143507,6,1
-0.000209126,0.0002060853,6,1
-0.0002157707,0.0001906891,6,1
-0.0002113949,0.000180479,6,1
-0.0001723372,0.0001835583,6,1
-8.709085e-05,0.0002039785,6,1
2.586868e-05,0.0002391467,6,1
0.0001216493,0.0002812837,6,1
0.0001600588,0.0003219621,6,1
0.0001372076,0.0003574544,6,1
8.696731e-05,0.0003890571,6,1
5.811968e-05,0.0004188772,6,1
7.67572e-05,0.0004472386,6,1
0.0001396385,0.0004709002,6,1
0.0002161334,0.0004869446,6,1
0.0002726942,0.0004987754,6,1
0.0002812837,0.0005091476,6,1
0.0002239125,0.0005240576,6,1
9.766362e-05,0.000542371,6,1
-8.109443e-05,0.0005601982,6,1
-0.0002827037,0.00057446,6,1
-0.0004711856,0.0005788357,6,1
-0.0006116962,0.0005728393,6,1
-0.000675874,0.0005593878,6,1
-0.0006551297,0.0005392918,6,1
-0.000568911,0.0005119027,6,1
-0.0004512515,0.0004747897,6,1
-0.0003408851,0.0004290873,6,1
-0.0002652006,0.0003780367,6,1
-0.0002371633,0.0003224483,6,1
-0.0002506147,0.0002649151,6,1
-0.0002974516,0.0002133783,6,1
-0.0003726499,0.0001728619,6,1
-0.000472158,0.0001445005,6,1
-0.0005828486,0.0001242423,6,1
-0.000678305,0.0001054428,6,1
-0.0007338934,7.90261e-05,6,1
-0.0007368106,4.126489e-05,6,1
-0.0006851118,-4.923729e-06,6,1
-0.0005847933,-4.90055e-05,6,1
-0.0004506033,-7.866345e-05,6,1
-0.0003073376,-8.595638e-05,6,1
-0.0001838438,-6.926366e-05,6,1
-0.0001050801,-3.458168e-05,6,1
-7.785312e-05,2.207145e-06,6,1
-9.065628e-05,2.894792e-05,6,1
-0.0001190177,3.705119e-05,6,1
-0.0001313347,3.024445e-05,6,1
-0.0001062146,2.133085e-05,6,1
-3.360929e-05,2.165498e-05,6,1
7.789165e-05,3.235129e-05,6,1
0.0002143507,4.72613e-05,6,1
0.0003752816,5.406805e-05,6,1
0.0005629533,4.807163e-05,6,1
0.0007511112,3.299956e-05,6,1
0.000899077,1.306552e-05,6,1
0.0009741134,-1.124428e-05,6,1
0.0009551517,-4.203669e-05,6,1
0.0008506195,-7.526008e-05,6,1
0.0006901747,-0.0001105903,6,1
0.0005138475,-0.0001480274,6,1
0.0003592371,-0.0001925954,6,1
0.0002451431,-0.000246239,6,1
0.0001696206,-0.0003016653,6,1
0.0001197045,-0.0003536883,6,1
7.886404e-05,-0.0003963114,6,1
3.786152e-05,-0.0004186764,6,1
-1.221667e-05,-0.000412518,6,1
-8.465986e-05,-0.0003783222,6,1
-0.0001870851,-0.000325813,6,1
-0.0003235441,-0.0002669833,6,1
-0.0004891749,-0.0002117191,6,1
-0.0006646916,-0.0001684476,6,1
-0.0008026091,-0.0001439758,6,1
-0.0008526873,-0.0001408965,6,1
-0.0007961266,-0.0001538618,6,1
-0.0006525366,-0.0001799543,6,1
-0.0004692408,-0.0002125294,6,1
-0.0002977757,-0.000251101,6,1
-0.0001776853,-0.0002934,6,1
-0.0001216107,-0.0003334301,6,1
-0.0001112386,-0.0003564434,6,1
-0.0001144799,-0.0003517435,6,1
-0.0001063766,-0.0003185201,6,1
-7.898758e-05,-0.0002624455,6,1
-4.576419e-05,-0.0001908126,6,1
-2.745081e-05,-0.0001131834,6,1
-3.879538e-05,-4.203669e-05,6,1
-8.07703e-05,8.851824e-06,6,1
-0.0001329553,2.732727e-05,6,1
-0.0001661787,1.727922e-05,6,1
-0.0001551583,-2.81688e-06,6,1
-8.952183e-05,-1.480971e-05,6,1
2.01964e-05,-1.286493e-05,6,1
0.0001493625,-4.113403e-06,6,1
0.0002676702,3.503668e-06,6,1
0.0003581026,7.23117e-06,6,1
0.0004232529,1.241726e-05,6,1
0.0004777069,2.570662e-05,6,1
0.0005368608,5.228533e-05,6,1
0.0006007145,9.118101e-05,6,1
0.0006553305,0.0001355869,6,1
0.000676237,0.0001773998,6,1
0.0006524134,0.0002086784,6,1
0.0005971491,0.0002295848,6,1
0.00053994,0.0002506533,6,1
0.0005104441,0.0002798251,6,1
0.0005307022,0.0003175863,6,1
0.0006029835,0.000356644,6,1
0.000713188,0.0003859779,6,1
0.0008314957,0.0004007258,6,1
0.0009308419,0.0004018603,6,1
0.000992751,0.0003960259,6,1
0.001009444,0.0003885709,6,1
0.0009914545,0.0003780367,6,1
0.0009561241,0.0003556717,6,1
0.0009152836,0.0003140208,6,1
0.000884167,0.0002521119,6,1
0.0008579124,0.0001746447,6,1
0.0008170719,9.442231e-05,6,1
0.0007389564,2.197911e-05,6,1
0.0006086557,-4.155049e-05,6,1
0.0004316803,-9.859748e-05,6,1
0.0002305572,-0.0001472171,6,1
3.705119e-05,-0.0001861127,6,1
-0.0001162626,-0.0002160948,6,1
-0.0001955125,-0.0002382978,6,1
-0.0001739578,-0.0002519113,6,1
-5.791909e-05,-0.0002546664,6,1
0.0001065772,-0.0002429977,6,1
0.000254867,-0.0002147983,6,1
0.0003279585,-0.0001703924,6,1
0.000294573,-0.0001186936,6,1
0.0001613553,-7.477388e-05,6,1
-3.409549e-05,-4.868137e-05,6,1
-0.0002434839,-4.608832e-05,6,1
-0.0004292107,-6.877746e-05,6,1
-0.0005768522,-0.0001146419,6,1
-0.0006904599,-0.0001750923,6,1
-0.0007723029,-0.0002324634,6,1
-0.0008144398,-0.0002595283,6,1
-0.0008084435,-0.0002298704,6,1
-0.0007588515,-0.0001407345,6,1
-0.0006894876,-2.194059e-05,6,1
-0.0006241752,8.550872e-05,6,1
-0.0005698834,0.0001563313,6,1
-0.0005162397,0.0001880961,6,1
-0.0004510895,0.0001897167,6,1
-0.0003805911,0.0001688103,6,1
-0.0003233821,0.0001253768,6,1
-0.0002906449,5.828175e-05,6,1
-0.0002840002,-2.356124e-05,6,1
-0.0003023136,-0.000104918,6,1
-0.0003374817,-0.0001760647,6,1
-0.0003779981,-0.000236353,6,1
-0.0004154351,-0.0002903207,6,1
-0.0004455793,-0.0003428299,6,1
-0.0004682684,-0.000390315,6,1
-0.0004805854,-0.0004237005,6,1
-0.0004805854,-0.000437476,6,1
-0.0004728062,-0.0004331002,6,1
-0.0004637306,-0.0004131662,6,1
-0.0004676201,-0.0003786463,6,1
-0.0004971161,-0.0003308371,6,1
-0.000551732,-0.0002744383,6,1
-0.0006113721,-0.0002211189,6,1
-0.0006415162,-0.0001864369,6,1
-0.0006039171,-0.0001799543,6,1
-0.0004762096,-0.0001997262,6,1
-0.0002752487,-0.000238784,6,1
-5.953974e-05,-0.0002794623,6,1
0.000101067,-0.000303286,6,1
0.0001701068,-0.0002966413,6,1
0.0001511452,-0.0002572594,6,1
7.286763e-05,-0.0001951884,6,1
-3.004385e-05,-0.000127283,6,1
-0.0001300382,-6.48879e-05,6,1
-0.0002092881,-1.075808e-05,6,1
-0.0002603387,3.316162e-05,6,1
-0.000283514,6.557468e-05,6,1
-0.0002870794,8.923623e-05,6,1
-0.0002750866,0.0001153287,6,1
-0.0002470493,0.0001511452,6,1
-0.0001989159,0.0002021958,6,1
-0.0001361966,0.0002694529,6,1
-6.861539e-05,0.0003470822,6,1
4.244267e-07,0.0004232529,6,1
7.335383e-05,0.0004890515,6,1
0.0001451488,0.0005383193,6,1
0.0002030061,0.0005700842,6,1
0.0002320158,0.0005825632,6,1
0.0002334744,0.0005742979,6,1
0.0002206712,0.0005501501,6,1
0.0002140265,0.0005227611,6,1
0.0002310434,0.0004984512,6,1
0.0002769079,0.0004733311,6,1
0.0003420582,0.0004467524,6,1
0.0004054258,0.0004243874,6,1
0.0004435111,0.0004099636,6,1
0.0004436732,0.0004028327,6,1
0.0004055878,0.0003932708,6,1
0.0003376824,0.0003756057,6,1
0.000250005,0.0003535648,6,1
0.0001485521,0.0003357376,6,1
3.267542e-05,0.0003297412,6,1
-9.389759e-05,0.000339303,6,1
-0.0002194982,0.0003581026,6,1
-0.0003272716,0.000373823,6,1
-0.0004083043,0.000378847,6,1
-0.0004583824,0.0003660439,6,1
-0.000469727,0.0003344411,6,1
-0.0004376381,0.0002882525,6,1
-0.0003698948,0.0002341226,6,1
-0.0002911311,0.000170431,6,1
-0.0002282497,8.777764e-05,6,1
-0.000201671,-2.129233e-05,6,1
-0.0002201465,-0.0001506204,6,1
-0.0002818933,-0.0002828657,6,1
-0.0003721637,-0.0004003631,6,1
-0.0004530343,-0.0004932265,6,1
-0.0004726442,-0.0005619422,6,1
-0.0003893426,-0.0006154237,6,1
-0.0002049123,-0.0006627468,6,1
3.073064e-05,-0.0007024527,6,1
0.000244981,-0.0007197938,6,1
0.0003840331,-0.0006995356,6,1
0.0004350837,-0.0006442713,6,1
0.0004214702,-0.0005659938,6,1
0.0003783608,-0.0004826922,6,1
0.0003373583,-0.0004003631,6,1
0.0003140208,-0.0003222476,6,1
0.0003117519,-0.0002514251,6,1
0.0003333067,-0.0001961608,6,1
0.0003699334,-0.0001642339,6,1
0.0004031568,-0.0001512687,6,1
0.00041596,-0.0001447861,6,1
0.0004039671,-0.0001327933,6,1
0.0003751195,-0.0001114006,6,1
0.0003438409,-8.125649e-05,6,1
0.000319369,-4.576419e-05,6,1
0.0003077003,-1.156841e-05,6,1
0.0003085106,1.306552e-05,6,1
0.000314345,2.748934e-05,6,1
0.0003083486,3.688912e-05,6,1
0.0002684805,4.758544e-05,6,1
0.00018291,6.557468e-05,6,1
7.367795e-05,8.988449e-05,6,1
-1.108221e-05,0.0001106288,6,1
-1.740276e-05,0.000113546,6,1
7.821578e-05,9.344993e-05,6,1
0.0002686426,5.471631e-05,6,1
0.0005219508,5.772582e-06,6,1
0.0007846588,-3.814712e-05,6,1
0.0009891854,-5.953974e-05,6,1
0.001087883,-4.787104e-05,6,1
0.001066977,-2.654814e-06,6,1
0.0009373245,6.849186e-05,6,1
0.0007329599,0.0001610312,6,1
0.0005089855,0.0002626462,6,1
0.0003174242,0.0003626405,6,1
0.0001843686,0.0004558281,6,1
0.0001132219,0.0005350781,6,1
9.21534e-05,0.0005882355,6,1
0.0001023635,0.0006063868,6,1
0.0001385041,0.0005914768,6,1
0.0002000889,0.0005577672,6,1
0.0002762596,0.0005156302,6,1
0.0003402755,0.0004715484,6,1
0.0003670162,0.0004281149,6,1
0.0003478926,0.0003945674,6,1
0.0002880904,0.0003754436,6,1
0.0002098128,0.000368799,6,1
0.0001548727,0.0003671783,6,1
0.0001663793,0.0003581026,6,1
0.0002663737,0.0003323342,6,1
0.000435894,0.0002926282,6,1
0.000616597,0.0002495189,6,1
0.0007336082,0.0002120818,6,1
0.0007340944,0.0001842065,6,1
0.0006135177,0.0001675138,6,1
0.0004101256,0.000158114,6,1
0.0001820997,0.0001488763,6,1
-2.275091e-05,0.0001347766,6,1
-0.000181737,0.0001086841,6,1
-0.0002968033,6.670914e-05,6,1
-0.000390315,6.90704e-06,6,1
-0.0004867439,-6.764301e-05,6,1
-0.000598893,-0.0001514308,6,1
-0.0007233592,-0.0002381357,6,1
-0.0008457185,-0.000325813,6,1
-0.0009596504,-0.0004157593,6,1
-0.001065317,-0.0005003574,6,1
-0.001162556,-0.0005624284,6,1
-0.001245372,-0.0005857658,6,1
-0.001302094,-0.000568911,6,1
-0.001319435,-0.0005256396,6,1
-0.001285888,-0.00047702,6,1
-0.001192862,-0.0004332623,6,1
-0.001054621,-0.0003958252,6,1
-0.0008992,-0.0003590364,6,1
-0.0007582033,-0.0003222476,6,1
-0.0006544815,-0.0002906449,6,1
-0.0005974344,-0.0002689281,6,1
-0.0005766901,-0.000261149,6,1
-0.0005724764,-0.0002663351,6,1
-0.0005676145,-0.0002801106,6,1
-0.0005497872,-0.0002946965,6,1
-0.0005078124,-0.0003036101,6,1
-0.0004376381,-0.0003011791,6,1
-0.00035304,-0.0002875656,6,1
-0.0002788141,-0.0002634179,6,1
-0.0002384598,-0.0002316531,6,1
-0.0002428356,-0.0001950263,6,1
-0.0002781658,-0.0001577513,6,1
-0.0003050687,-0.0001263107,6,1
-0.0002796244,-0.0001002181,6,1
-0.0001746061,-6.926366e-05,6,1
7.393236e-06,-2.615429e-05,6,1
0.0002253711,2.586868e-05,6,1
0.0004240633,7.821578e-05,6,1
0.000557281,0.0001216493,6,1
0.0006023352,0.0001521176,6,1
0.0005590637,0.0001697827,6,1
0.0004465904,0.0001769136,6,1
0.0003013798,0.000178048,6,1
0.0001634622,0.000175455,6,1
6.492643e-05,0.0001714034,6,1
2.01964e-05,0.0001652449,6,1
2.635488e-05,0.0001615174,6,1
6.200925e-05,0.0001616794,6,1
0.0001018773,0.000162976,6,1
0.0001287802,0.0001590864,6,1
0.0001360731,0.0001477418,6,1
0.000125863,0.0001310491,6,1
0.0001124116,0.0001161391,6,1
0.0001073875,0.0001047945,6,1
0.0001098185,8.907416e-05,6,1
0.0001146805,6.184718e-05,6,1
0.0001198666,2.116879e-05,6,1
0.0001247285,-3.522994e-05,6,1
0.000128456,-0.0001008664,6,1
0.0001268354,-0.0001596961,6,1
0.0001161391,-0.0001972953,6,1
9.085688e-05,-0.0002018331,6,1
4.175109e-05,-0.0001728234,6,1
-3.847125e-05,-0.0001144799,6,1
-0.0001455964,-3.134038e-05,6,1
-0.000261311,6.816773e-05,6,1
-0.0003591985,0.0001684862,6,1
-0.0004248349,0.0002509774,6,1
-0.0004561135,0.0003038107,6,1
-0.0004651892,0.0003237448,6,1
-0.0004634065,0.0003151553,6,1
-0.0004520619,0.0002874421,6,1
-0.000427428,0.0002532463,6,1
-0.0003919357,0.0002218057,6,1
-0.0003557951,0.0001908512,6,1
-0.0003322956,0.0001513072,6,1
-0.0003248407,9.879808e-05,6,1
-0.0003319715,4.094075e-05,6,1
-0.0003497987,-9.299493e-06,6,1
-0.0003721637,-4.187462e-05,6,1
-0.0003830221,-5.419158e-05,6,1
-0.0003608192,-4.462973e-05,6,1
-0.0002896725,-1.740276e-05,6,1
-0.0001789819,1.776542e-05,6,1
-7.266703e-05,5.082674e-05,6,1
-1.805102e-05,7.448828e-05,6,1
-3.798505e-05,8.599492e-05,6,1
-0.0001235555,8.550872e-05,6,1
-0.0002382978,7.189524e-05,6,1
-0.0003322956,4.677511e-05,6,1
-0.0003656811,1.12828e-05,6,1
-0.0003178718,-3.441962e-05,6,1
-0.0001878955,-9.081835e-05,6,1
4.47606e-06,-0.0001559686,6,1
0.0002282883,-0.0002229016,6,1
0.0004564763,-0.0002823795,6,1
0.0006775336,-0.0003248407,6,1
0.0008901635,-0.0003499608,6,1
0.001082373,-0.0003614674,6,1
0.001235039,-0.0003587123,6,1
0.001348323,-0.000343154,6,1
0.001460472,-0.0003118754,6,1
0.001609735,-0.0002596904,6,1
0.001790762,-0.000181737,6,1
0.001950397,-8.141856e-05,6,1
0.002032402,3.154097e-05,6,1
0.002007282,0.0001399627,6,1
0.001879574,0.000225209,6,1
0.001683313,0.0002691288,6,1
0.001464038,0.0002658874,6,1
0.001253839,0.0002137024,6,1
0.001070542,0.0001218114,6,1
0.0009245213,8.689758e-06,6,1
0.0008182063,-9.827335e-05,6,1
0.0007399287,-0.0001794681,6,1
0.0006682958,-0.0002237119,6,1
0.0005815908,-0.0002360289,6,1
0.0004663623,-0.0002290601,6,1
0.0003263378,-0.0002100984,6,1
0.0001749688,-0.0001822232,6,1
3.543054e-05,-0.0001468929,6,1
-7.817725e-05,-0.0001039456,6,1
-0.000166827,-5.872941e-05,6,1
-0.0002298704,-1.772689e-05,6,1
-0.000261149,1.517237e-05,6,1
-0.0002643903,4.239934e-05,6,1
-0.0002608248,6.281957e-05,6,1
-0.0002765452,7.286763e-05,6,1
-0.0003160891,6.962632e-05,6,1
-0.0003614674,5.666109e-05,6,1
-0.0003912874,3.98063e-05,6,1
-0.0004039285,2.570662e-05,6,1
-0.0004204592,2.052053e-05,6,1
-0.0004578962,3.235129e-05,6,1
-0.0005134846,6.703327e-05,6,1
-0.0005677765,0.0001211631,6,1
-0.0005998655,0.0001806411,6,1
-0.0006001896,0.0002281262,6,1
-0.0005770142,0.0002543808,6,1
-0.0005514079,0.0002543808,6,1
-0.0005481666,0.000242388,6,1
-0.0005831727,0.0002475741,6,1
-0.0006536711,0.0002923041,6,1
-0.0007376209,0.0003743092,6,1
-0.0008092538,0.0004702519,6,1
-0.0008530114,0.0005464226,6,1
-0.0008588458,0.0005791598,6,1
-0.0008218948,0.00055485,6,1
-0.0007520447,0.0004785172,6,1
-0.0006625847,0.0003650715,6,1
-0.0005671282,0.0002378501,6,1
-0.0004752372,0.0001195424,6,1
-0.0004061974,2.359977e-05,6,1
-0.0003731361,-5.095028e-05,6,1
-0.0003784843,-0.0001078352,6,1
-0.0004173799,-0.0001533756,6,1
-0.0004731304,-0.0001887058,6,1
-0.0005321222,-0.0002100984,6,1
-0.0005841451,-0.0002170672,6,1
-0.0006209339,-0.0002144742,6,1
-0.0006351956,-0.0002068571,6,1
-0.0006173685,-0.0001969711,6,1
-0.0005655076,-0.0001830335,6,1
-0.0004938748,-0.0001579134,6,1
-0.0004266177,-0.0001177212,6,1
-0.0003846427,-7.23429e-05,6,1
-0.0003711913,-3.117831e-05,6,1
-0.0003741085,-5.479652e-07,6,1
-0.0003765395,1.889987e-05,6,1
-0.000367788,2.684107e-05,6,1
-0.0003452609,1.792748e-05,6,1
-0.000318358,-1.059602e-05,6,1
-0.0002927517,-5.759496e-05,6,1
-0.0002677937,-0.0001199901,6,1
-0.0002318152,-0.0001925954,6,1
-0.0001645581,-0.0002673075,6,1
-4.819517e-05,-0.0003373197,6,1
0.0001141943,-0.0004018217,6,1
0.00029198,-0.0004640547,6,1
0.0004425387,-0.0005199672,6,1
0.0005295678,-0.0005599973,6,1
0.0005379952,-0.0005679386,6,1
0.000475438,-0.0005288809,6,1
0.0003652335,-0.0004405553,6,1
0.0002362295,-0.000315765,6,1
0.0001164632,-0.000179306,6,1
2.829966e-05,-5.532604e-05,6,1
-2.356124e-05,3.251336e-05,6,1
-4.398147e-05,7.643307e-05,6,1
-4.090223e-05,8.729144e-05,6,1
-2.599222e-05,8.372601e-05,6,1
5.86492e-07,7.805372e-05,6,1
4.158902e-05,7.789165e-05,6,1
9.101894e-05,7.935024e-05,6,1
0.0001331559,7.6271e-05,6,1
0.0001560072,6.751948e-05,6,1
0.0001561692,5.730935e-05,6,1
0.000140773,4.499239e-05,6,1
0.0001203528,2.522042e-05,6,1
0.0001004187,-1.108221e-05,6,1
7.400208e-05,-6.553616e-05,6,1
3.235129e-05,-0.0001306864,6,1
-2.194059e-05,-0.0001943781,6,1
-7.347736e-05,-0.000246401,6,1
-9.324933e-05,-0.0002758969,6,1
-5.32192e-05,-0.0002723315,6,1
5.244739e-05,-0.0002342462,6,1
0.0002044647,-0.0001653684,6,1
0.0003675024,-7.979791e-05,6,1
0.0005057442,1.744129e-05,6,1
0.0005892079,0.0001203528,6,1
0.0005976353,0.0002268297,6,1
0.0005277851,0.0003308757,6,1
0.0003973225,0.0004255218,6,1
0.0002381743,0.000502827,6,1
9.377406e-05,0.0005601982,6,1
-2.492749e-06,0.0006015248,6,1
-3.571614e-05,0.0006328035,6,1
-1.043395e-05,0.0006548444,6,1
6.006447e-05,0.000661165,6,1
0.0001509831,0.0006426895,6,1
0.0002401191,0.0005952043,6,1
0.0003083486,0.00052503,6,1
0.0003431926,0.0004462662,6,1
0.0003352514,0.0003723644,6,1
0.0002786906,0.0003101313,6,1
0.000180479,0.0002603772,6,1
6.314371e-05,0.000215161,6,1
-4.787104e-05,0.0001642725,6,1
-0.0001295519,0.0001020394,6,1
-0.000166989,3.526847e-05,6,1
-0.0001558065,-2.080613e-05,6,1
-0.000107349,-5.159854e-05,6,1
-4.349527e-05,-5.370539e-05,6,1
9.500085e-06,-3.620233e-05,6,1
2.700314e-05,-1.3027e-05,6,1
-6.382317e-06,1.031041e-05,6,1
-7.963584e-05,3.55926e-05,6,1
-0.0001603444,6.735741e-05,6,1
-0.0002149604,0.0001064152,6,1
-0.0002256567,0.0001511452,6,1
-0.0001924333,0.0001921477,6,1
-0.0001274451,0.0002187264,6,1
-4.203669e-05,0.0002247229,6,1
5.212327e-05,0.000210137,6,1
0.0001461212,0.0001788584,6,1
0.0002268297,0.0001351007,6,1
0.0002864697,8.291568e-05,6,1
0.0003227724,2.311357e-05,6,1
0.0003435168,-4.090223e-05,6,1
0.000363937,-0.0001044318,6,1
0.0003974845,-0.0001622891,6,1
0.0004491834,-0.0002099363,6,1
0.0005185474,-0.0002455907,6,1
0.0006086557,-0.000268766,6,1
0.0007245325,-0.0002802727,6,1
0.0008598572,-0.0002854588,6,1
0.0009846477,-0.0002852967,6,1
0.001061629,-0.0002814071,6,1
0.001060008,-0.0002757348,6,1
0.0009737893,-0.0002663351,6,1
0.0008259855,-0.0002530457,6,1
0.0006472273,-0.0002360289,6,1
0.0004613383,-0.0002154466,6,1
0.0002838767,-0.000191785,6,1
0.0001175977,-0.0001689338,6,1
-4.608832e-05,-0.0001506204,6,1
-0.0002078295,-0.0001404103,6,1
-0.0003626019,-0.0001374932,6,1
-0.0005074882,-0.0001402483,6,1
-0.0006403818,-0.0001465688,6,1
-0.0007617687,-0.0001530514,6,1
-0.0008659766,-0.0001582375,6,1
-0.0009424714,-0.0001596961,6,1
-0.0009765052,-0.0001566169,6,1
-0.0009551126,-0.0001455964,6,1
-0.0008757006,-0.0001238797,6,1
-0.0007507482,-9.422172e-05,6,1
-0.0005954896,-6.310517e-05,6,1
-0.0004290486,-3.911951e-05,6,1
-0.0002741142,-2.485776e-05,6,1
-0.0001425172,-1.772689e-05,6,1
-2.388537e-05,-1.383732e-05,6,1
0.0001002567,-9.623623e-06,6,1
0.0002355812,-6.544382e-06,6,1
0.0003684748,-6.382317e-06,6,1
0.0004741415,-1.20546e-05,6,1
0.0005274609,-3.085418e-05,6,1
0.000512551,-7.039812e-05,6,1
0.0004294114,-0.0001266348,6,1
0.0002991108,-0.0001864369,6,1
0.0001603829,-0.0002334358,6,1
4.888196e-05,-0.0002522354,6,1
-2.777494e-05,-0.0002355427,6,1
-8.644259e-05,-0.0001844921,6,1
-0.0001566169,-0.0001083214,6,1
-0.0002473734,-1.740276e-05,6,1
-0.0003463953,7.610894e-05,6,1
-0.0004371519,0.0001618415,6,1
-0.0005081365,0.0002307193,6,1
-0.0005551354,0.0002829043,6,1
-0.0005671282,0.0003195311,6,1
-0.0005348772,0.0003375204,6,1
-0.0004496309,0.000334117,6,1
-0.0003151167,0.0003115899,6,1
-0.0001514308,0.0002762596,6,1
-3.627206e-06,0.0002344468,6,1
8.016057e-05,0.0001887444,6,1
7.546067e-05,0.0001438522,6,1
1.072688e-06,0.0001033359,6,1
-9.357346e-05,7.173317e-05,6,1
-0.0001639098,5.358185e-05,6,1
-0.0001835197,4.758544e-05,6,1
-0.0001480274,4.758544e-05,6,1
-7.898758e-05,4.596478e-05,6,1
-1.318906e-05,3.445814e-05,6,1
1.419998e-05,1.257933e-05,6,1
-1.010982e-05,-7.030578e-06,6,1
-8.903562e-05,-8.975362e-06,6,1
-0.0002128535,7.879432e-06,6,1
-0.0003582261,3.267542e-05,6,1
-0.0004995471,5.52025e-05,6,1
-0.0006131548,7.011252e-05,6,1
-0.0006792775,7.789165e-05,6,1
-0.0006755499,8.356394e-05,6,1
-0.0005928966,9.328786e-05,6,1
-0.0004452552,0.000111115,6,1
-0.000276059,0.0001338042,6,1
-0.0001423551,0.0001548727,6,1
-8.044617e-05,0.0001647587,6,1
-9.033215e-05,0.0001594105,6,1
-0.000142031,0.000143204,6,1
-0.0001984297,0.0001185701,6,1
-0.0002331117,8.275361e-05,6,1
-0.0002342462,3.672706e-05,6,1
-0.000206533,-1.497178e-05,6,1
-0.0001640719,-6.326724e-05,6,1
-0.0001188556,-9.746302e-05,6,1
-7.55842e-05,-0.0001112386,6,1
-2.566809e-05,-0.0001068628,6,1
3.899597e-05,-9.19528e-05,6,1
0.0001073875,-7.493595e-05,6,1
0.0001616794,-5.662256e-05,6,1
0.0001890685,-4.203669e-05,6,1
0.0001913374,-3.701266e-05,6,1
0.0001887444,-4.511593e-05,6,1
0.0002114335,-6.553616e-05,6,1
0.0002762596,-9.308726e-05,6,1
0.0003751195,-0.0001277692,6,1
0.0004838654,-0.0001716889,6,1
0.0005751082,-0.000231329,6,1
0.0006255105,-0.0003081479,6,1
0.0006261588,-0.0003942046,6,1
0.0005877494,-0.000482206,6,1
0.0005271368,-0.0005685869,6,1
0.0004572867,-0.0006518884,6,1
0.0003814401,-0.0007251419,6,1
0.0003002453,-0.0007710064,6,1
0.0002185644,-0.000770034,6,1
0.0001475797,-0.0007157421,6,1
9.182927e-05,-0.000618503,6,1
5.406805e-05,-0.0005013297,6,1
2.943412e-05,-0.0003849669,6,1
8.041497e-06,-0.0002869174,6,1
-1.805102e-05,-0.000216419,6,1
-4.592625e-05,-0.0001700683,6,1
-6.829127e-05,-0.0001332795,6,1
-7.007399e-05,-9.049421e-05,6,1
-3.701266e-05,-3.393342e-05,6,1
2.39239e-05,3.575467e-05,6,1
9.134307e-05,0.0001153287,6,1
0.0001419075,0.000200413,6,1
0.0001654069,0.0002806354,6,1
0.0001626518,0.0003475684,6,1
0.0001435281,0.0003982949,6,1
0.0001150046,0.0004365423,6,1
7.448828e-05,0.0004665244,6,1
1.663096e-05,0.0004880791,6,1
-5.257093e-05,0.0005031512,6,1
-0.0001208004,0.0005166026,6,1
-0.0001783336,0.0005334574,6,1
-0.0002094502,0.0005571189,6,1
-0.0001971332,0.0005887217,6,1
-0.0001357104,0.0006313449,6,1
-4.171256e-05,0.0006767232,6,1
3.98063e-05,0.0007042743,6,1
5.795762e-05,0.0006961711,6,1
-1.075808e-05,0.0006478756,6,1
-0.000149486,0.000567167,6,1
-0.0003105789,0.0004653899,6,1
-0.0004395829,0.0003519442,6,1
-0.0004993849,0.0002389846,6,1
-0.0004904714,0.0001367214,6,1
-0.000447362,5.082674e-05,6,1
-0.0004134903,-2.242678e-05,6,1
-0.0004112214,-8.741498e-05,6,1
-0.0004340726,-0.0001438137,6,1
-0.0004538446,-0.000184168,6,1
-0.0004369898,-0.0002026434,6,1
-0.0003527159,-0.000201671,6,1
-0.0001955125,-0.000191785,6,1
8.365628e-06,-0.0001870851,6,1
0.0001970097,-0.0001981056,6,1
0.0003081865,-0.0002254946,6,1
0.0003164518,-0.0002622834,6,1
0.0002368777,-0.0002963172,6,1
0.0001117633,-0.0003164132,6,1
-7.516774e-06,-0.0003110651,6,1
-8.44978e-05,-0.00027849,6,1
-0.0001054042,-0.0002259808,6,1
-7.931171e-05,-0.0001652063,6,1
-2.647842e-05,-0.0001094559,6,1
4.402e-05,-6.504996e-05,6,1
0.0001445005,-3.571614e-05,6,1
0.0002991108,-1.805102e-05,6,1
0.0005143337,-8.002969e-06,6,1
0.0007767176,-1.520357e-06,6,1
0.001060008,1.883015e-06,6,1
0.001328227,3.827799e-06,6,1
0.001533726,5.86492e-07,6,1
0.001636476,-1.221667e-05,6,1
0.001615407,-3.328516e-05,6,1
0.001478461,-6.116039e-05,6,1
0.001255459,-9.422172e-05,6,1
0.0009830269,-0.0001276072,6,1
0.0006943883,-0.0001567789,6,1
0.0004195254,-0.0001815749,6,1
0.0001830721,-0.0001976194,6,1
4.638125e-06,-0.0002021572,6,1
-0.0001013526,-0.0001924333,6,1
-0.0001384655,-0.0001582375,6,1
-0.0001285796,-8.984595e-05,6,1
-0.000107349,1.452411e-05,6,1
-0.0001044318,0.0001406109,6,1
-0.000134576,0.0002654013,6,1
-0.0001984297,0.000361506,6,1
-0.0002788141,0.0004102877,6,1
-0.000353202,0.0004049396,6,1
-0.0003914495,0.0003548613,6,1
-0.0003750809,0.0002829043,6,1
-0.0003087962,0.0002107852,6,1
-0.000216581,0.000155683,6,1
-0.0001258245,0.0001269974,6,1
-5.743289e-05,0.0001216493,6,1
-1.691656e-05,0.000128294,6,1
-6.058186e-06,0.0001273216,6,1
-2.745081e-05,0.0001047945,6,1
-8.060823e-05,5.552663e-05,6,1
-0.0001632615,-1.448558e-05,6,1
-0.0002780038,-9.081835e-05,6,1
-0.0004181903,-0.0001587237,6,1
-0.0005737729,-0.0002083157,6,1
-0.0007222248,-0.0002368392,6,1
-0.0008340498,-0.0002475355,6,1
-0.0008844521,-0.0002491561,6,1
-0.0008714869,-0.000251101,6,1
-0.0008162226,-0.0002585559,6,1
-0.0007520447,-0.0002635799,6,1
-0.0007043975,-0.0002515871,6,1
-0.0006812222,-0.0002159328,6,1
-0.000678305,-0.0001558065,6,1
-0.0006823567,-8.158062e-05,6,1
-0.000678143,-2.654814e-06,6,1
-0.0006565883,7.562274e-05,6,1
-0.0006144513,0.00015309,6,1
-0.0005535148,0.0002258573,6,1
-0.0004758855,0.0002877662,6,1
-0.0003873979,0.0003279585,6,1
-0.0002882139,0.0003357376,6,1
-0.0001690959,0.0003075383,6,1
-2.307504e-05,0.000254867,6,1
0.0001443384,0.0001986303,6,1
0.0003156415,0.000158114,6,1
0.0004696036,0.0001448246,6,1
0.0005921251,0.0001586002,6,1
0.000676237,0.0001937684,6,1
0.0007190223,0.0002383363,6,1
0.0007237222,0.0002793389,6,1
0.0006987641,0.0003052694,6,1
0.0006571133,0.0003081865,6,1
0.0006203245,0.000289549,6,1
0.0006221072,0.0002662116,6,1
0.000685961,0.0002550291,6,1
0.0008019998,0.0002579462,6,1
0.0009306798,0.0002686426,6,1
0.001018843,0.000279663,6,1
0.001020302,0.0002812837,6,1
0.0009126905,0.0002676702,6,1
0.0007063812,0.0002381743,6,1
0.0004360561,0.0001960373,6,1
0.0001443384,0.0001462832,6,1
-0.0001292278,8.810177e-05,6,1
-0.0003609812,1.711715e-05,6,1
-0.0005439529,-7.169464e-05,6,1
-0.000678143,-0.0001746061,6,1
-0.0007637134,-0.0002874036,6,1
-0.0007970989,-0.0004045768,6,1
-0.0007852681,-0.0005175362,6,1
-0.0007421587,-0.0006123445,6,1
-0.0006825188,-0.000675712,6,1
-0.0006149375,-0.0006987253,6,1
-0.0005356876,-0.0006768464,6,1
-0.0004331002,-0.0006157478,6,1
-0.000303286,-0.0005251534,6,1
-0.0001637477,-0.0004219178,6,1
-5.305713e-05,-0.0003219235,6,1
-6.220252e-06,-0.0002357047,6,1
-3.360929e-05,-0.0001702304,6,1
-0.0001191798,-0.0001279313,6,1
-0.0002222533,-0.0001063766,6,1
-0.0002980999,-0.0001029732,6,1
-0.0003194925,-0.0001128592,6,1
-0.0002922655,-0.0001277692,6,1
-0.0002425115,-0.0001386276,6,1
-0.0001977815,-0.0001383035,6,1
-0.00016942,-0.0001285796,6,1
-0.0001481895,-0.0001144799,6,1
-0.0001214487,-9.940781e-05,6,1
-8.093236e-05,-7.866345e-05,6,1
-2.89094e-05,-4.527799e-05,6,1
2.003433e-05,1.558884e-06,6,1
5.277153e-05,5.585077e-05,6,1
6.362991e-05,0.0001140322,6,1
5.050261e-05,0.0001714034,6,1
1.501031e-05,0.000222616,6,1
-4.187462e-05,0.0002621599,6,1
-0.0001084835,0.0002803113,6,1
-0.0001689338,0.0002728562,6,1
-0.000213988,0.0002453052,6,1
-0.000241377,0.0002054371,6,1
-0.0002540181,0.0001641104,6,1
-0.0002559629,0.0001289422,6,1
-0.0002494803,0.0001072255,6,1
-0.0002379736,0.0001043083,6,1
-0.0002290601,0.0001214872,6,1
-0.0002245222,0.0001561692,6,1
-0.0002232257,0.0001973338,6,1
-0.0002227395,0.0002333123,6,1
-0.0002232257,0.0002556773,6,1
-0.0002279256,0.0002645909,6,1
-0.0002391081,0.0002644289,6,1
-0.0002540181,0.0002576221,6,1
-0.0002630937,0.0002487085,6,1
-0.0002635799,0.0002333123,6,1
-0.0002556388,0.000202844,6,1
-0.000236353,0.0001535762,6,1
-0.0002011848,8.777764e-05,6,1
-0.0001473791,1.630683e-05,6,1
-8.336335e-05,-4.625038e-05,6,1
-2.89094e-05,-9.162867e-05,6,1
5.286387e-06,-0.0001182074,6,1
2.441009e-05,-0.0001308485,6,1
5.001642e-05,-0.0001302002,6,1
9.928428e-05,-0.0001235555,6,1
0.0001790204,-0.0001126972,6,1
0.0002911697,-9.616651e-05,6,1
0.0004373526,-7.542214e-05,6,1
0.000606711,-5.451572e-05,6,1
0.0007750969,-4.187462e-05,6,1
0.0009154457,-3.895745e-05,6,1
0.001006689,-4.527799e-05,6,1
0.00104607,-5.500191e-05,6,1
0.00104445,-6.245691e-05,6,1
