EMG1,EMG2,class,user
0.000225047,0.0004394595,6,1
0.0007447907,0.0004749518,6,1
0.00131121,0.0005107683,6,1
0.001803079,0.0005383193,6,1
0.002116677,0.0005542018,6,1
0.00219852,0.0005559844,6,1
0.002040344,0.0005464226,6,1
0.001669861,0.0005292437,6,1
0.001160003,0.0005091476,6,1
0.0006138419,0.0004893756,6,1
0.0001380179,0.0004749518,6,1
-0.0002039399,0.0004665244,6,1
-0.0004138145,0.0004598797,6,1
-0.0005437909,0.0004517764,6,1
-0.0006564262,0.000440756,6,1
-0.0007854302,0.000425846,6,1
-0.0009269132,0.0004081808,6,1
-0.001050083,0.0003905157,6,1
-0.001121229,0.0003767402,6,1
-0.001129981,0.0003675024,6,1
-0.001093678,0.0003608578,6,1
-0.001031769,0.0003519442,6,1
-0.0009598124,0.0003360618,6,1
-0.0008923933,0.0003146691,6,1
-0.0008476633,0.0002887387,6,1
-0.0008439358,0.0002626462,6,1
-0.0008838038,0.000235095,6,1
-0.0009528436,0.0001979821,6,1
-0.001034849,0.0001498487,6,1
-0.00111183,9.393612e-05,6,1
-0.001161098,4.061663e-05,6,1
-0.001159639,4.151929e-06,6,1
-0.001097568,-7.030578e-06,6,1
-0.0009881739,7.879432e-06,6,1
-0.0008593319,3.915804e-05,6,1
-0.0007287074,7.221937e-05,6,1
-0.0005995413,8.875003e-05,6,1
-0.0004695649,7.90261e-05,6,1
-0.0003481781,4.110282e-05,6,1
-0.0002630937,-1.772689e-05,6,1
-0.0002478596,-8.44978e-05,6,1
-0.0003055549,-0.0001465688,6,1
-0.0004060354,-0.000196647,6,1
-0.0005089468,-0.0002340841,6,1
-0.0005826865,-0.0002713591,6,1
-0.0006178547,-0.0003267854,6,1
-0.0006277406,-0.0004092767,6,1
-0.0006420024,-0.0005204534,6,1
-0.0006849497,-0.000650916,6,1
-0.0007554481,-0.0007865646,6,1
-0.0008131433,-0.00091411,6,1
-0.0007979092,-0.001019939,6,1
-0.0006698776,-0.001087034,6,1
-0.0004462276,-0.001099513,6,1
-0.0001961608,-0.00104279,6,1
7.555301e-06,-0.000911355,6,1
0.0001237561,-0.0007058561,6,1
0.0001428799,-0.0004486585,6,1
7.983644e-05,-0.0001831956,6,1
-3.296103e-05,4.256141e-05,6,1
-0.0001561307,0.00019782,6,1
-0.0002572594,0.0002676702,6,1
-0.0003164132,0.0002616738,6,1
-0.0003269475,0.0002107852,6,1
-0.0002828657,0.0001540623,6,1
-0.000171851,0.0001177597,6,1
9.824215e-06,0.0001145184,6,1
0.0002367157,0.0001391524,6,1
0.0004522626,0.0001796687,6,1
0.000599418,0.0002234263,6,1
0.0006469032,0.0002629703,6,1
0.0006073592,0.000294573,6,1
0.0005294057,0.0003187208,6,1
0.000467983,0.000341734,6,1
0.0004600418,0.0003720403,6,1
0.0005198439,0.0004166082,6,1
0.0006347483,0.000468145,6,1
0.0007692626,0.0005015305,6,1
0.0008862739,0.000490348,6,1
0.0009810822,0.0004182289,6,1
0.001077673,0.0002807975,6,1
0.001183502,8.518459e-05,6,1
0.001274097,-0.0001572651,6,1
0.001314613,-0.0004306693,6,1
0.001294193,-0.0007113663,6,1
0.001228232,-0.0009594883,6,1
0.001146227,-0.001131278,6,1
0.001064222,-0.001197886,6,1
0.0009968026,-0.001159477,6,1
0.0009681169,-0.001038738,6,1
0.001007175,-0.0008635456,6,1
0.001110897,-0.0006646916,6,1
0.001211864,-0.0004784786,6,1
0.001231149,-0.0003335922,6,1
0.001147686,-0.0002421874,6,1
0.001012523,-0.0001903264,6,1
0.0009045873,-0.0001535376,6,1
0.0008815739,-0.0001118868,6,1
0.0009502898,-4.981582e-05,6,1
0.001067463,3.575467e-05,6,1
0.00115741,0.0001441764,6,1
0.001159678,0.000262322,6,1
0.001053201,0.0003757678,6,1
0.0008511057,0.0004772207,6,1
0.0005911527,0.0005606844,6,1
0.000319369,0.0006212969,6,1
7.659513e-05,0.0006579236,6,1
-0.0001165867,0.0006721854,6,1
-0.0002653627,0.0006691061,6,1
-0.0003807532,0.0006527375,6,1
-0.0004710235,0.0006211348,6,1
-0.0005473563,0.0005734875,6,1
-0.0006262821,0.0005130371,6,1
-0.0007262764,0.0004415663,6,1
-0.0008507425,0.0003632887,6,1
-0.0009893083,0.0002853353,6,1
-0.001121229,0.0002138645,6,1
-0.001222196,0.0001542244,6,1
-0.001269519,0.0001078737,6,1
-0.001250234,7.011252e-05,6,1
-0.001167742,3.251336e-05,6,1
-0.001040683,-1.62683e-05,6,1
-0.0008967691,-7.850138e-05,6,1
-0.0007651721,-0.0001417068,6,1
-0.000673281,-0.0001830335,6,1
-0.0006395715,-0.0001906506,6,1
-0.0006620985,-0.0001645581,6,1
-0.0007090974,-0.0001086455,6,1
-0.0007374589,-3.296103e-05,6,1
-0.0007053699,4.45062e-05,6,1
-0.0005969483,0.0001078737,6,1
-0.0004439586,0.0001495245,6,1
-0.0003037722,0.0001686482,6,1
-0.0002211189,0.0001684862,6,1
-0.0002178775,0.0001516314,6,1
-0.0002857829,0.0001193804,6,1
-0.0003831841,7.173317e-05,6,1
-0.0004569239,9.824215e-06,6,1
-0.000474589,-6.116039e-05,6,1
-0.0004540067,-0.0001287416,6,1
-0.000439907,-0.0001765509,6,1
-0.0004645409,-0.0001964849,6,1
-0.0005280706,-0.0001909747,6,1
-0.0006044033,-0.0001642339,6,1
-0.000655778,-0.0001178833,6,1
-0.0006504298,-5.59743e-05,6,1
-0.000571504,1.079661e-05,6,1
-0.0004301831,6.46023e-05,6,1
-0.0002621213,9.523264e-05,6,1
-0.0001149661,0.0001033359,6,1
-2.761287e-05,9.928428e-05,6,1
-1.059602e-05,9.766362e-05,6,1
-5.548811e-05,0.0001098185,6,1
-0.0001402483,0.0001394765,6,1
-0.0002402425,0.0001832341,6,1
-0.0003251648,0.000232502,6,1
-0.0003728119,0.0002825802,6,1
-0.0003768636,0.0003289309,6,1
-0.0003418575,0.000368799,6,1
-0.0002814071,0.00040105,6,1
-0.0002086398,0.0004230909,6,1
-0.0001383035,0.000433301,6,1
-8.174268e-05,0.0004287631,6,1
-3.150244e-05,0.0004141773,6,1
3.462021e-05,0.0003892192,6,1
0.0001378558,0.0003577785,6,1
0.0002804733,0.0003188828,6,1
0.0004391353,0.000267346,6,1
0.0005802943,0.0002031682,6,1
0.0006768853,0.0001318594,6,1
0.0007263153,7.124698e-05,6,1
0.0007621317,4.256141e-05,6,1
0.0008264717,5.56887e-05,6,1
0.0009439692,0.0001047945,6,1
0.001103117,0.0001662173,6,1
0.001267776,0.0002164575,6,1
0.001403911,0.0002393087,6,1
0.001492075,0.0002331503,6,1
0.001526595,0.0002000889,6,1
0.001501151,0.0001401247,6,1
0.001407801,5.828175e-05,6,1
0.001250597,-3.360929e-05,6,1
0.001051419,-0.0001193418,6,1
0.0008438127,-0.0001807646,6,1
0.0006582477,-0.0002053985,6,1
0.0005102821,-0.000191785,6,1
0.000398619,-0.0001502963,6,1
0.0003175863,-9.503204e-05,6,1
0.0002642668,-3.960571e-05,6,1
0.0002342847,8.851824e-06,6,1
0.0002125679,4.483033e-05,6,1
0.0001890685,6.525056e-05,6,1
0.0001639484,6.703327e-05,6,1
0.0001483901,4.77475e-05,6,1
0.0001522796,1.387585e-05,6,1
0.0001689724,-2.42095e-05,6,1
0.0001908512,-6.06742e-05,6,1
0.0002153231,-9.308726e-05,6,1
0.0002224539,-0.0001259865,6,1
0.0001686482,-0.0001621271,6,1
2.959619e-05,-0.0002053985,6,1
-0.0001699062,-0.0002517492,6,1
-0.00036795,-0.0002916173,6,1
-0.0005157535,-0.0003168994,6,1
-0.0006131548,-0.0003300267,6,1
-0.0006927288,-0.0003416954,6,1
-0.0007936955,-0.0003611433,6,1
-0.0009345302,-0.0003893426,6,1
-0.00110875,-0.0004188385,6,1
-0.001290912,-0.000444931,6,1
-0.001443901,-0.0004726442,6,1
-0.001535631,-0.0005084606,6,1
-0.001546489,-0.0005494631,6,1
-0.001476639,-0.0005907898,6,1
-0.001342611,-0.0006280648,6,1
-0.001174873,-0.000653347,6,1
-0.001005515,-0.0006627468,6,1
-0.0008659766,-0.0006517263,6,1
-0.0007766787,-0.0006217443,6,1
-0.0007374589,-0.0005804176,6,1
-0.0007295177,-0.0005402254,6,1
-0.0007251419,-0.0005117019,6,1
-0.0007074767,-0.0004954954,6,1
-0.0006679329,-0.0004776682,6,1
-0.0005971103,-0.0004368278,6,1
-0.0004833405,-0.0003585502,6,1
-0.0003238683,-0.0002485079,6,1
-0.0001248521,-0.0001276072,6,1
0.0001073875,-2.161646e-05,6,1
0.0003666921,5.585077e-05,6,1
0.0006423654,0.0001041462,6,1
0.0009191732,0.000133318,6,1
0.001190471,0.0001543865,6,1
0.001466955,0.0001799928,6,1
0.001764345,0.0002154851,6,1
0.00207924,0.0002589186,6,1
0.002372579,0.0003051073,6,1
0.002586344,0.000344165,6,1
0.002669971,0.0003678266,6,1
0.002608871,0.0003717161,6,1
0.002413257,0.000356482,6,1
0.002108898,0.0003240689,6,1
0.001732743,0.0002838767,6,1
0.001334709,0.0002457913,6,1
0.000958231,0.0002180782,6,1
0.0006289139,0.000207706,6,1
0.0003561579,0.0002206712,6,1
0.0001347766,0.0002530843,6,1
-5.483985e-05,0.0002974902,6,1
-0.0002355427,0.0003454615,6,1
-0.0004207833,0.0003926226,6,1
-0.000606348,0.0004414042,6,1
-0.0007747339,0.0004909963,6,1
-0.0009047102,0.00053994,6,1
-0.0009878498,0.0005846701,6,1
-0.001033876,0.0006196762,6,1
-0.001068882,0.0006376655,6,1
-0.00111815,0.0006371793,6,1
-0.001185894,0.000624214,6,1
-0.001258175,0.0006131936,6,1
-0.001309063,0.0006185417,6,1
-0.001309063,0.0006430136,6,1
-0.00124051,0.0006729957,6,1
-0.001114261,0.0006890402,6,1
-0.0009656468,0.0006775336,6,1
-0.0008390738,0.0006287518,6,1
-0.0007645238,0.0005420469,6,1
-0.0007368106,0.0004156358,6,1
-0.0007295177,0.0002519498,6,1
-0.000715418,5.925414e-05,6,1
-0.000678143,-0.0001493239,6,1
-0.0006052136,-0.0003593606,6,1
-0.000489661,-0.0005577285,6,1
-0.0003525538,-0.0007248178,6,1
-0.0002337599,-0.0008428013,6,1
-0.0001747682,-0.0009021172,6,1
-0.0001870851,-0.0009100584,6,1
-0.0002494803,-0.0008813728,6,1
-0.0003178718,-0.0008348601,6,1
-0.0003535262,-0.0007901301,6,1
-0.0003412093,-0.00076501,6,1
-0.0002938862,-0.0007690616,6,1
-0.0002318152,-0.0007990437,6,1
-0.0001634236,-0.0008411807,6,1
-9.389759e-05,-0.0008740799,6,1
-3.425755e-05,-0.0008774833,6,1
-5.247859e-06,-0.0008381014,6,1
-2.0482e-05,-0.0007567446,6,1
-7.412562e-05,-0.0006387612,6,1
-0.0001421931,-0.0004988988,6,1
-0.0001984297,-0.0003533641,6,1
-0.000223874,-0.0002188499,6,1
-0.0002047502,-0.0001110765,6,1
-0.0001400862,-3.928157e-05,6,1
-4.462973e-05,-2.978945e-06,6,1
6.022653e-05,7.393236e-06,6,1
0.0001767515,3.341602e-06,6,1
0.0003109416,-2.81688e-06,6,1
0.0004545315,-5.247859e-06,6,1
0.0005846701,2.623614e-07,6,1
0.0006726716,1.403791e-05,6,1
0.0006917953,3.364782e-05,6,1
0.0006311828,5.974033e-05,6,1
0.0005005581,9.442231e-05,6,1
0.0003282826,0.0001376938,6,1
0.0001542244,0.000187772,6,1
1.744129e-05,0.0002373639,6,1
-6.521203e-05,0.0002806354,6,1
-9.973194e-05,0.0003132105,6,1
-9.519411e-05,0.0003344411,6,1
-6.521203e-05,0.000344165,6,1
-2.680255e-05,0.0003420582,6,1
9.986281e-06,0.0003342791,6,1
4.547859e-05,0.0003281205,6,1
7.448828e-05,0.0003261758,6,1
8.988449e-05,0.0003299033,6,1
8.875003e-05,0.0003349273,6,1
7.270556e-05,0.0003357376,6,1
4.239934e-05,0.0003303894,6,1
7.555301e-06,0.0003219621,6,1
-1.594417e-05,0.0003128864,6,1
-1.3027e-05,0.0003033245,6,1
1.290346e-05,0.0002955454,6,1
4.82337e-05,0.0002947351,6,1
7.740546e-05,0.0003051073,6,1
9.393612e-05,0.0003232586,6,1
9.344993e-05,0.0003435168,6,1
7.610894e-05,0.0003600474,6,1
4.628891e-05,0.0003658818,6,1
2.39239e-05,0.0003619922,6,1
4.953022e-05,0.0003483787,6,1
0.0001545486,0.0003247172,6,1
0.0003407616,0.0002892249,6,1
0.0005710566,0.0002461155,6,1
0.000779959,0.0002088404,6,1
0.0009034528,0.0001869616,6,1
0.0009050734,0.0001843686,6,1
0.0008007033,0.000195389,6,1
0.0006428516,0.0002132162,6,1
0.000482893,0.00022764,6,1
0.0003452995,0.0002359054,6,1
0.0002247229,0.0002383363,6,1
9.912221e-05,0.0002357433,6,1
-4.284701e-05,0.0002237505,6,1
-0.0002029675,0.0001981441,6,1
-0.0003739464,0.0001587623,6,1
-0.000539253,0.0001141943,6,1
-0.0006768464,7.173317e-05,6,1
-0.0007637134,3.364782e-05,6,1
-0.0007896438,1.072688e-06,6,1
-0.0007687375,-2.323711e-05,6,1
-0.0007291936,-3.571614e-05,6,1
-0.000688029,-3.539201e-05,6,1
-0.0006486471,-2.826114e-05,6,1
-0.000623689,-1.950961e-05,6,1
-0.0006497815,-1.3027e-05,6,1
-0.0007586894,-1.25408e-05,6,1
-0.0009367992,-1.869928e-05,6,1
-0.001117502,-3.328516e-05,6,1
-0.001214579,-5.2733e-05,6,1
-0.00118249,-7.120844e-05,6,1
-0.001045383,-8.044617e-05,6,1
-0.0008622491,-7.60704e-05,6,1
-0.0006825188,-6.294311e-05,6,1
-0.0005240189,-4.787104e-05,6,1
-0.0003716775,-4.138842e-05,6,1
-0.0002045882,-4.90055e-05,6,1
-2.323711e-05,-7.817725e-05,6,1
0.0001543865,-0.0001276072,6,1
0.0003274723,-0.0001912988,6,1
0.0005276231,-0.0002579077,6,1
0.0008096169,-0.0003089583,6,1
0.00121786,-0.0003262992,6,1
0.001757215,-0.0003052308,6,1
0.002376306,-0.0002626076,6,1
0.002974169,-0.0002290601,6,1
0.003430386,-0.000221605,6,1
0.003662952,-0.0002446183,6,1
0.00364707,-0.0002875656,6,1
0.003401862,-0.0003337542,6,1
0.002986,-0.0003732982,6,1
0.002479056,-0.0003985804,6,1
0.001948938,-0.0004113835,6,1
0.001441673,-0.0004178661,6,1
0.0009908061,-0.0004202971,6,1
0.0006198382,-0.0004154351,6,1
0.0003276344,-0.0003984183,6,1
8.826383e-05,-0.0003632501,6,1
-0.0001131834,-0.0003074997,6,1
-0.0002629317,-0.0002399184,6,1
-0.0003352128,-0.0001720131,6,1
-0.0003233821,-0.0001105903,6,1
-0.000263742,-5.386745e-05,6,1
-0.0002094502,2.369211e-06,6,1
-0.0002052365,5.747142e-05,6,1
-0.0002705488,0.000110953,6,1
-0.0004070078,0.0001568175,6,1
-0.0005975965,0.0001874478,6,1
-0.0008105503,0.0002046267,6,1
-0.0009966013,0.0002171058,6,1
-0.001115395,0.0002310434,6,1
-0.001159639,0.0002438466,6,1
-0.001146998,0.000252436,6,1
-0.001090113,0.0002592428,6,1
-0.001002922,0.0002751252,6,1
-0.0009061688,0.0003099692,6,1
-0.0008165467,0.0003605336,6,1
-0.0007398899,0.0004098015,6,1
-0.0006690673,0.0004420525,6,1
-0.0005975965,0.0004467524,6,1
-0.0005290429,0.0004263322,6,1
-0.0004664857,0.0003828986,6,1
-0.0004089525,0.0003180725,6,1
-0.0003588744,0.0002360674,6,1
-0.0003285682,0.0001454729,6,1
-0.0003314853,5.763349e-05,6,1
-0.0003707051,-1.529591e-05,6,1
-0.000430021,-6.699475e-05,6,1
-0.0004847991,-9.29252e-05,6,1
-0.0005212637,-9.162867e-05,6,1
-0.0005399013,-6.618442e-05,6,1
-0.0005499493,-3.101625e-05,6,1
-0.0005619422,-6.176923e-08,6,1
-0.0005781487,2.100672e-05,6,1
-0.0005964621,3.154097e-05,6,1
-0.0006052136,3.899597e-05,6,1
-0.0005893312,5.406805e-05,6,1
-0.0005460597,8.226741e-05,6,1
-0.0004935506,0.0001171115,6,1
-0.0004556273,0.0001500107,6,1
-0.0004413656,0.0001795066,6,1
-0.0004439586,0.0002143507,6,1
-0.0004544929,0.0002780424,6,1
-0.0004734545,0.0003765781,6,1
-0.0005065158,0.0004882411,6,1
-0.000559187,0.0005752703,6,1
-0.0006332509,0.0006091419,6,1
-0.0007188214,0.0005801322,6,1
-0.0007996919,0.0004905101,6,1
-0.0008581975,0.0003508097,6,1
-0.0008808867,0.0001832341,6,1
-0.0008656525,9.986281e-06,6,1
-0.0008141157,-0.0001536997,6,1
-0.0007282211,-0.0003002067,6,1
-0.0006099135,-0.0004326141,6,1
-0.0004634065,-0.0005561078,6,1
-0.0002987481,-0.0006672846,6,1
-0.0001363587,-0.0007577171,6,1
2.207145e-06,-0.0008210845,6,1
0.0001041462,-0.0008643559,6,1
0.0001691344,-0.0009043861,6,1
0.0002030061,-0.0009565711,6,1
0.0002171058,-0.001026259,6,1
0.0002224539,-0.001103564,6,1
0.000227478,-0.001171308,6,1
0.0002352571,-0.001215714,6,1
0.0002446569,-0.0012256,6,1
0.0002506533,-0.001192052,6,1
0.0002527602,-0.001113774,6,1
0.0002529222,-0.0009972495,6,1
0.0002584324,-0.0008573871,6,1
0.0002793389,-0.0007157421,6,1
0.0003188828,-0.000586414,6,1
0.0003710679,-0.0004710235,6,1
0.0004247115,-0.0003682741,6,1
0.0004660382,-0.0002770314,6,1
0.0004811103,-0.0001934057,6,1
0.0004639314,-0.0001159385,6,1
0.0004187151,-3.814712e-05,6,1
0.0003537269,4.758544e-05,6,1
0.0002777182,0.0001417454,6,1
0.0001987924,0.0002372019,6,1
0.0001195424,0.0003256896,6,1
4.110282e-05,0.0004039671,6,1
-3.798505e-05,0.0004660382,6,1
-0.0001245279,0.0005086614,6,1
-0.0002222533,0.0005313505,6,1
-0.0003274337,0.0005354022,6,1
-0.0004209454,0.0005284334,6,1
-0.000482044,0.0005221128,6,1
-0.0005032745,0.0005297299,6,1
-0.0004865818,0.0005563086,6,1
-0.0004266177,0.0006015248,6,1
-0.0003128478,0.0006575995,6,1
-0.0001467309,0.0007130259,6,1
4.45062e-05,0.0007540284,6,1
0.0002179161,0.000775259,6,1
0.0003370341,0.0007765555,6,1
0.0003969983,0.0007608352,6,1
0.000425846,0.0007250187,6,1
0.0004619866,0.000668782,6,1
0.0005174129,0.0005932595,6,1
0.0005726772,0.0004984512,6,1
0.0005942319,0.0003914881,6,1
0.0005603603,0.0002851732,6,1
0.0004662003,0.0001968476,6,1
0.0003271482,0.0001446626,6,1
0.0001817755,0.0001376938,6,1
7.140904e-05,0.0001707551,6,1
2.554455e-05,0.0002329882,6,1
5.260946e-05,0.0003023522,6,1
0.0001402868,0.0003579406,6,1
0.0002662116,0.0003877606,6,1
0.0004094774,0.0003880847,6,1
0.0005545259,0.0003576164,6,1
0.0006874196,0.0003008936,6,1
0.0008003792,0.0002269918,6,1
0.0008891911,0.0001537382,6,1
0.0009632549,9.604298e-05,6,1
0.001040884,6.379197e-05,6,1
0.00113002,5.244739e-05,6,1
0.001215591,5.649903e-05,6,1
0.001262104,6.849186e-05,6,1
0.001237956,7.999851e-05,6,1
0.001130993,8.939829e-05,6,1
0.0009514242,9.409818e-05,6,1
0.0007272876,9.26396e-05,6,1
0.000495372,8.761557e-05,6,1
0.0002882525,8.340187e-05,6,1
0.0001344524,7.805372e-05,6,1
5.001642e-05,6.735741e-05,6,1
2.943412e-05,5.034055e-05,6,1
5.552663e-05,2.716521e-05,6,1
0.0001140322,-4.599598e-06,6,1
0.0002000889,-4.527799e-05,6,1
0.0002989488,-8.773911e-05,6,1
0.0003676645,-0.0001191798,6,1
0.0003603715,-0.0001331174,6,1
0.0002652392,-0.0001302002,6,1
0.0001190562,-0.0001229073,6,1
-1.448558e-05,-0.0001235555,6,1
-7.104638e-05,-0.0001326312,6,1
-2.323711e-05,-0.0001442999,6,1
9.118101e-05,-0.000152079,6,1
0.0001971717,-0.0001566169,6,1
0.0002428742,-0.0001632615,6,1
0.0002334744,-0.0001741199,6,1
0.0001945787,-0.0001857886,6,1
0.0001472556,-0.0002024813,6,1
0.0001116012,-0.0002319772,6,1
0.00010366,-0.0002749245,6,1
0.0001479039,-0.0003164132,6,1
0.000274801,-0.0003348887,6,1
0.0004798138,-0.0003178718,6,1
0.0007041123,-0.000266173,6,1
0.0008554814,-0.0001909747,6,1
0.0008548332,-0.0001133454,6,1
0.0006716992,-5.2733e-05,6,1
0.0003446512,-1.805102e-05,6,1
-3.701266e-05,-7.678839e-06,6,1
-0.0003755671,-1.20546e-05,6,1
-0.0006123445,-1.902341e-05,6,1
-0.0007288694,-2.437157e-05,6,1
-0.0007364865,-2.874733e-05,6,1
-0.0006687432,-3.069211e-05,6,1
-0.0005758798,-3.053005e-05,6,1
-0.0005061917,-2.923353e-05,6,1
-0.0004911196,-2.42095e-05,6,1
-0.0005327704,-1.416145e-05,6,1
-0.0006173685,3.827799e-06,6,1
-0.0007172007,3.510641e-05,6,1
-0.0008087676,7.821578e-05,6,1
-0.0008800763,0.000125863,6,1
-0.0009369612,0.0001657311,6,1
-0.000990929,0.0001863134,6,1
-0.001046031,0.000185341,6,1
-0.001097082,0.0001642725,6,1
-0.001135329,0.0001313732,6,1
-0.001155101,9.960841e-05,6,1
-0.001153318,8.437427e-05,6,1
-0.00113144,9.53947e-05,6,1
-0.001114909,0.0001354248,6,1
-0.001141326,0.0001958752,6,1
-0.001233379,0.0002603772,6,1
-0.001374862,0.0003107795,6,1
-0.001513103,0.000334117,6,1
-0.001590085,0.0003289309,6,1
-0.001572257,0.0003054314,6,1
-0.001463836,0.000274801,6,1
-0.001305984,0.0002446569,6,1
-0.001151536,0.0002138645,6,1
-0.001041331,0.0001731861,6,1
-0.0009849326,0.0001122495,6,1
-0.0009602986,2.992031e-05,6,1
-0.0009283718,-6.796714e-05,6,1
-0.0008458805,-0.0001661787,6,1
-0.000683005,-0.0002454286,6,1
-0.0004462276,-0.0002946965,6,1
-0.0001733096,-0.0003079858,6,1
9.21534e-05,-0.0002841623,6,1
0.000321638,-0.0002329496,6,1
0.0005031512,-0.0001771992,6,1
0.0006370172,-0.0001438137,6,1
0.0007224257,-0.0001528894,6,1
0.0007692626,-0.0002053985,6,1
0.0008063756,-0.0002890242,6,1
0.0008665019,-0.0003765395,6,1
0.0009679549,-0.0004402311,6,1
0.001108304,-0.0004669719,6,1
0.001260969,-0.0004611376,6,1
0.001389812,-0.0004305072,6,1
0.0014689,-0.0003882082,6,1
0.001486079,-0.0003514194,6,1
0.001445886,-0.0003394265,6,1
0.001371012,-0.0003664914,6,1
0.001284955,-0.0004332623,6,1
0.001189174,-0.0005298533,6,1
0.00107038,-0.0006361681,6,1
0.0009172284,-0.0007282211,6,1
0.0007315014,-0.0007847819,6,1
0.00052503,-0.0007904542,6,1
0.0003208276,-0.0007437794,6,1
0.0001511452,-0.0006588572,6,1
3.640293e-05,-0.0005557837,6,1
-2.453363e-05,-0.0004507654,6,1
-5.727083e-05,-0.0003553089,6,1
-9.794922e-05,-0.000273628,6,1
-0.0001770371,-0.0002060468,6,1
-0.0002906449,-0.0001488377,6,1
-0.0004078181,-9.730096e-05,6,1
-0.0004979264,-4.770897e-05,6,1
-0.0005502735,2.531276e-06,6,1
-0.0005692351,5.260946e-05,6,1
-0.0005690731,0.0001012291,6,1
-0.0005669662,0.0001446626,6,1
-0.0005693972,0.0001809652,6,1
-0.0005640491,0.0002135403,6,1
-0.0005321222,0.0002462775,6,1
-0.00047232,0.0002795009,6,1
-0.000392746,0.0003112658,6,1
-0.0002993964,0.000339303,6,1
-0.0002045882,0.0003640991,6,1
-0.0001214487,0.000386302,6,1
-6.586029e-05,0.0004044533,6,1
-4.462973e-05,0.0004156358,6,1
-4.722278e-05,0.0004156358,6,1
-5.192267e-05,0.0004068843,6,1
-3.506788e-05,0.000393595,6,1
1.630683e-05,0.0003781987,6,1
9.21534e-05,0.0003629646,6,1
0.0001725378,0.0003477304,6,1
0.0002415777,0.000334117,6,1
0.0002900352,0.0003250413,6,1
0.0003086727,0.0003239069,6,1
0.0002999212,0.0003315239,6,1
0.0002701012,0.0003452995,6,1
0.0002232643,0.0003616681,6,1
0.000160707,0.0003791712,6,1
8.988449e-05,0.0003952156,6,1
2.181705e-05,0.0004123946,6,1
-4.462973e-05,0.0004289252,6,1
-0.0001250141,0.0004381629,6,1
-0.0002376495,0.0004360561,6,1
-0.0003885323,0.0004226047,6,1
-0.0005708557,0.0004046154,6,1
-0.0007663065,0.0003848434,6,1
-0.0009429576,0.0003613439,6,1
-0.001060455,0.0003313618,6,1
-0.001084603,0.0002991108,6,1
-0.0009891463,0.0002660495,6,1
-0.0007596618,0.0002331503,6,1
-0.0004271038,0.0002043026,6,1
-8.222889e-05,0.0001858272,6,1
0.0001689724,0.0001782101,6,1
0.0002718839,0.0001770756,6,1
0.0002378501,0.0001757791,6,1
0.0001281319,0.0001712413,6,1
2.052053e-05,0.0001597346,6,1
-2.761287e-05,0.0001433661,6,1
4.962256e-06,0.0001237561,6,1
0.0001030118,0.0001030118,6,1
0.0002487085,7.886404e-05,6,1
0.0004297355,5.001642e-05,6,1
0.0006503066,1.484824e-05,6,1
0.0009204697,-2.664048e-05,6,1
0.001251894,-7.120844e-05,6,1
0.001635341,-0.0001117248,6,1
0.002030944,-0.0001400862,6,1
0.002379872,-0.0001582375,6,1
0.002622323,-0.0001712027,6,1
0.002714863,-0.0001870851,6,1
0.002651495,-0.0002122053,6,1
0.002465605,-0.000246239,6,1
0.002219589,-0.0002801106,6,1
0.001965793,-0.0003036101,6,1
0.001729826,-0.0003128478,6,1
0.001511685,-0.0003068514,6,1
0.001290789,-0.0002937241,6,1
0.001048501,-0.0002823795,6,1
0.000770235,-0.0002780038,6,1
0.0004537212,-0.0002805968,6,1
0.0001229458,-0.0002872415,6,1
-0.00018433,-0.0002917793,6,1
-0.0004415277,-0.0002932379,6,1
-0.000643299,-0.0002895104,6,1
-0.0007956403,-0.0002796244,6,1
-0.0009076274,-0.0002652006,6,1
-0.0009922255,-0.0002506147,6,1
-0.001054945,-0.0002415391,6,1
-0.001083306,-0.0002436459,6,1
-0.001056079,-0.0002558008,6,1
-0.0009628917,-0.0002645523,6,1
-0.000829674,-0.0002533699,6,1
-0.0007197938,-0.0002159328,6,1
-0.0006974287,-0.0001614788,6,1
-0.000782513,-0.0001013526,6,1
-0.000931451,-4.527799e-05,6,1
-0.001068558,2.369211e-06,6,1
-0.001141001,4.337174e-05,6,1
-0.001145215,8.226741e-05,6,1
-0.001116692,0.000128294,6,1
-0.001100161,0.0001812893,6,1
-0.00111653,0.0002394708,6,1
-0.001148619,0.0003007315,6,1
-0.001148132,0.0003572923,6,1
-0.001070665,0.0004021844,6,1
-0.0009134618,0.0004354078,6,1
-0.0007220627,0.0004640934,6,1
-0.000561456,0.0004955341,6,1
-0.0004755614,0.000537347,6,1
-0.0004776682,0.0005942319,6,1
-0.0005454115,0.0006713751,6,1
-0.0006402197,0.0007640765,6,1
-0.0007283832,0.0008540229,6,1
-0.0007936955,0.000918849,6,1
-0.000839398,0.0009370004,6,1
-0.0008661387,0.0008959978,6,1
-0.0008539838,0.0007898449,6,1
-0.000777651,0.0006164349,6,1
-0.0006128307,0.0003751195,6,1
-0.0003493125,6.897806e-05,6,1
7.485573e-07,-0.0002932379,6,1
0.0003867882,-0.0006810602,6,1
0.0007331221,-0.001059483,6,1
0.000975572,-0.001397065,6,1
0.001080428,-0.001666903,6,1
0.001048339,-0.001839503,6,1
0.000913825,-0.001888609,6,1
0.0007347427,-0.001798176,6,1
0.0005666808,-0.001584412,6,1
0.000433301,-0.001296908,6,1
0.0003290929,-0.0009980599,6,1
0.000247412,-0.0007394037,6,1
0.0002023578,-0.0005452494,6,1
0.0002135403,-0.0004136524,6,1
0.0002876042,-0.000325813,6,1
0.0004057499,-0.0002627696,6,1
0.0005415607,-0.0002002124,6,1
0.0006631098,-0.000127283,6,1
0.0007373357,-4.592625e-05,6,1
0.0007444666,3.040651e-05,6,1
0.0006851507,8.907416e-05,6,1
0.0005751082,0.0001237561,6,1
0.000438325,0.0001380179,6,1
0.000294573,0.0001474177,6,1
0.0001535762,0.000170431,6,1
1.403791e-05,0.00021273,6,1
-0.0001209625,0.0002668598,6,1
-0.0002494803,0.0003140208,6,1
-0.0003744326,0.0003456236,6,1
-0.0004899852,0.0003652335,6,1
-0.0005830107,0.0003801436,6,1
-0.0006486471,0.0003942432,6,1
-0.0006967805,0.0004057499,6,1
-0.0007371347,0.0004091532,6,1
-0.0007687375,0.0004047775,6,1
-0.0007778131,0.000391164,6,1
-0.0007565826,0.0003670162,6,1
-0.000710556,0.0003425444,6,1
-0.0006467023,0.0003263378,6,1
-0.0005771763,0.0003240689,6,1
-0.0005078124,0.0003329825,6,1
-0.0004308313,0.0003462718,6,1
-0.0003324577,0.0003524304,6,1
-0.0001976194,0.0003370341,6,1
-1.967167e-05,0.0002906835,6,1
0.0001842065,0.0002229401,6,1
0.0003785229,0.0001543865,6,1
0.0005258403,0.0001000946,6,1
0.0006007145,6.298164e-05,6,1
0.0005940699,3.753739e-05,6,1
0.0005216266,1.387585e-05,6,1
0.0004177427,-2.404744e-05,6,1
0.0003255275,-8.871149e-05,6,1
0.0002707494,-0.0001741199,6,1
0.0002529222,-0.0002566112,6,1
0.0002560015,-0.0003062031,6,1
0.0002717218,-0.0002989102,6,1
0.0003154794,-0.0002305186,6,1
0.0004052637,-0.0001203142,6,1
0.0005409124,1.883015e-06,6,1
0.0007060571,0.000108522,6,1
0.0008739569,0.0001858272,6,1
0.001010578,0.0002389846,6,1
0.001081563,0.0002804733,6,1
0.00106017,0.0003195311,6,1
0.000943645,0.0003532407,6,1
0.0007577559,0.0003752816,6,1
0.0005460985,0.000381278,6,1
0.0003529166,0.0003678266,6,1
0.0002020337,0.0003404375,6,1
9.571884e-05,0.0003096451,6,1
2.197911e-05,0.0002897111,6,1
-3.911951e-05,0.0002884145,6,1
-0.0001126972,0.000304459,6,1
-0.000211557,0.0003308757,6,1
-0.0003274337,0.0003525924,6,1
-0.0004483344,0.0003555096,6,1
-0.0005619422,0.0003363859,6,1
-0.0006578848,0.0003002453,6,1
-0.000730328,0.0002543808,6,1
-0.0007833233,0.0002051129,6,1
-0.0008227052,0.0001527658,6,1
-0.0008513908,9.977047e-05,6,1
-0.0008729455,5.034055e-05,6,1
-0.0008855865,9.986281e-06,6,1
-0.0008898003,-1.367526e-05,6,1
-0.0008896381,-1.902341e-05,6,1
-0.0008876934,-6.058186e-06,6,1
-0.000879104,1.97102e-05,6,1
-0.0008616009,4.72613e-05,6,1
-0.0008330774,6.735741e-05,6,1
-0.000782351,7.562274e-05,6,1
-0.0007003459,7.740546e-05,6,1
-0.0005958138,8.145709e-05,6,1
-0.0004930644,9.118101e-05,6,1
-0.0004198109,0.0001023635,6,1
-0.0003920977,0.0001054428,6,1
-0.0003972838,9.53947e-05,6,1
-0.0003867496,6.638502e-05,6,1
-0.0003065273,2.116879e-05,6,1
-0.0001402483,-3.506788e-05,6,1
9.701536e-05,-0.0001018388,6,1
0.000368799,-0.0001771992,6,1
0.0006180556,-0.0002632558,6,1
0.0007827141,-0.0003595226,6,1
0.0008256614,-0.0004600031,6,1
0.0007561353,-0.00055157,6,1
0.0006201624,-0.0006189891,6,1
0.0004798138,-0.000650754,6,1
0.0003856538,-0.0006492953,6,1
0.0003559958,-0.0006227166,6,1
0.0003781987,-0.0005711799,6,1
0.0004292493,-0.0004930644,6,1
0.0004901859,-0.0003942046,6,1
0.0005504743,-0.0002914552,6,1
0.000621783,-0.0002062088,6,1
0.0007332841,-0.0001530514,6,1
0.0009099355,-0.0001293899,6,1
0.001154492,-0.0001227452,6,1
0.001438431,-0.0001201522,6,1
0.001700167,-0.000112373,6,1
0.001866447,-9.551824e-05,6,1
0.001870012,-7.039812e-05,6,1
0.001671806,-4.43056e-05,6,1
0.001288845,-2.583016e-05,6,1
0.0008143168,-1.578211e-05,6,1
0.0003733368,-1.043395e-05,6,1
7.027458e-05,-2.81688e-06,6,1
-6.861539e-05,6.420843e-06,6,1
-9.260107e-05,1.322759e-05,6,1
-8.968389e-05,1.711715e-05,6,1
-0.0001284175,1.760335e-05,6,1
-0.0002276015,1.290346e-05,6,1
-0.000355633,2.531276e-06,6,1
-0.0004734545,-1.399939e-05,6,1
-0.0005658317,-3.425755e-05,6,1
-0.0006415162,-5.143648e-05,6,1
-0.0007199558,-6.586029e-05,6,1
-0.0008092538,-8.287715e-05,6,1
-0.0009055205,-0.0001002181,6,1
-0.001001139,-0.0001057284,6,1
-0.001086223,-8.806324e-05,6,1
-0.001144243,-4.252288e-05,6,1
-0.001146025,2.781346e-05,6,1
-0.00106321,0.000111115,6,1
-0.0008719731,0.0001923098,6,1
-0.0005758798,0.0002569738,6,1
-0.0002149604,0.0002957075,6,1
0.0001436902,0.0003073762,6,1
0.0004436732,0.0002997591,6,1
0.0006734819,0.0002801492,6,1
0.0008447851,0.0002561635,6,1
0.0009767064,0.0002302331,6,1
0.001087721,0.0002036544,6,1
0.001188202,0.000180479,6,1
0.00127669,0.0001652449,6,1
0.001331792,0.0001602208,6,1
0.001319799,0.0001642725,6,1
0.001215591,0.0001748067,6,1
0.001021437,0.0001871237,6,1
0.0007668316,0.0001961994,6,1
0.0004880791,0.0001979821,6,1
0.0002125679,0.0001897167,6,1
-5.2733e-05,0.0001718896,6,1
-0.0003123616,0.0001527658,6,1
-0.0005685869,0.0001422316,6,1
-0.0008120089,0.0001441764,6,1
-0.001014428,0.0001568175,6,1
-0.001136788,0.0001761032,6,1
-0.001156884,0.0001974959,6,1
-0.001089465,0.0002119197,6,1
-0.0009705087,0.00021273,6,1
-0.0008475012,0.0001958752,6,1
-0.0007609584,0.0001639484,6,1
-0.0007251419,0.0001222976,6,1
-0.0007304901,7.724339e-05,6,1
-0.0007645238,3.591673e-05,6,1
-0.0008181673,7.069105e-06,6,1
-0.0008810487,-1.034161e-06,6,1
-0.000943768,1.371378e-05,6,1
-0.0009927117,4.628891e-05,6,1
-0.001009404,7.983644e-05,6,1
-0.0009752086,0.0001000946,6,1
-0.0008964449,0.000101067,6,1
-0.0008000161,8.84259e-05,6,1
-0.0007184973,6.897806e-05,6,1
-0.0006736051,4.645098e-05,6,1
-0.0006648536,2.165498e-05,6,1
-0.0006684191,-1.399939e-05,6,1
-0.0006505919,-7.18567e-05,6,1
-0.0005878726,-0.0001598582,6,1
-0.0004788027,-0.0002755728,6,1
-0.0003449367,-0.0004070078,6,1
-0.0002230636,-0.0005364979,6,1
-0.0001391138,-0.0006491333,6,1
-9.66527e-05,-0.0007381071,6,1
-7.282909e-05,-0.000802285,6,1
-3.085418e-05,-0.0008471771,6,1
5.277153e-05,-0.0008745661,6,1
0.0001662173,-0.0008763488,6,1
0.0002688046,-0.0008436117,6,1
0.0003149933,-0.0007735994,6,1
0.0002788527,-0.0006755499,6,1
0.0001748067,-0.0005655076,6,1
4.953022e-05,-0.0004625961,6,1
-5.402952e-05,-0.0003822118,6,1
-0.0001289037,-0.0003371576,6,1
-0.0002011848,-0.000328244,6,1
-0.0002966413,-0.0003403989,6,1
-0.0004131662,-0.0003499608,6,1
-0.0005196431,-0.0003334301,6,1
-0.0005800935,-0.0002778417,6,1
-0.0005726385,-0.0001844921,6,1
-0.0004933886,-6.81292e-05,6,1
-0.0003632501,5.082674e-05,6,1
-0.0002169052,0.0001522796,6,1
-8.384954e-05,0.0002253711,6,1
1.906194e-05,0.0002650771,6,1
8.810177e-05,0.0002736666,6,1
0.0001315353,0.0002569738,6,1
0.0001650828,0.0002232643,6,1
0.0002025199,0.0001806411,6,1
0.0002501671,0.0001415833,6,1
0.0002987867,0.0001174356,6,1
0.0003286068,0.0001116012,6,1
0.0003282826,0.0001214872,6,1
0.0003252034,0.0001414213,6,1
0.0003683128,0.0001668655,6,1
0.0004890515,0.000192958,6,1
0.0006695924,0.0002119197,6,1
0.0008567779,0.0002188885,6,1
0.001007013,0.0002104611,6,1
0.001112679,0.0001966855,6,1
0.00120214,0.00019782,6,1
0.001301162,0.0002266676,6,1
0.001407639,0.000284687,6,1
0.001500016,0.0003593992,6,1
0.001564032,0.0004321665,6,1
0.001600335,0.0004858102,6,1
0.001612814,0.0005117406,6,1
0.001600497,0.0005117406,6,1
0.001576187,0.0004955341,6,1
0.001558684,0.0004762483,6,1
0.001568246,0.0004616624,6,1
0.001602442,0.0004535592,6,1
0.001637772,0.0004530729,6,1
0.001652196,0.0004568005,6,1
0.00163291,0.0004574487,6,1
0.001570353,0.0004438352,6,1
0.001459338,0.0004091532,6,1
0.001313154,0.0003558337,6,1
0.001164865,0.0002948972,6,1
0.001037967,0.0002419018,6,1
0.0009250075,0.0002088404,6,1
0.0007898449,0.0001983062,6,1
0.0005971491,0.0002068957,6,1
0.0003321722,0.0002256952,6,1
5.934648e-06,0.0002448189,6,1
-0.0003509331,0.000254867,6,1
-0.0006987253,0.0002527602,6,1
-0.00100438,0.0002420638,6,1
-0.001247478,0.0002287745,6,1
-0.001416999,0.0002132162,6,1
-0.001506459,0.0001936063,6,1
-0.001521855,0.0001678379,6,1
-0.001472425,0.0001367214,6,1
-0.001381831,9.993253e-05,6,1
-0.001280702,5.94162e-05,6,1
-0.001198048,1.873781e-05,6,1
-0.001155263,-1.67545e-05,6,1
-0.001156236,-4.689865e-05,6,1
-0.001185894,-7.493595e-05,6,1
-0.001207772,-0.0001034594,6,1
-0.00118168,-0.0001306864,6,1
-0.00109222,-0.0001548341,6,1
-0.0009581918,-0.0001757406,6,1
-0.0008167088,-0.000194216,6,1
-0.0006878669,-0.000209126,6,1
-0.0005718282,-0.0002175534,6,1
-0.0004481723,-0.0002136638,6,1
-0.000285945,-0.0001972953,6,1
-7.137051e-05,-0.0001723372,6,1
0.0001822617,-0.000144624,6,1
0.0004345975,-0.0001214487,6,1
0.0006279415,-0.0001101041,6,1
0.0007050846,-0.0001125351,6,1
0.0006418792,-0.000122097,6,1
0.0004525868,-0.0001259865,6,1
0.0001782101,-0.0001102662,6,1
-0.0001293899,-6.780507e-05,6,1
-0.000420135,-2.81688e-06,6,1
-0.0006577228,6.995045e-05,6,1
-0.00082465,0.0001334801,6,1
-0.0009149204,0.000177886,6,1
-0.0009311269,0.0001987924,6,1
-0.0008873693,0.0001981441,6,1
-0.0008079573,0.000178048,6,1
-0.0007139594,0.0001430419,6,1
-0.0006146134,9.474644e-05,6,1
-0.0005131605,3.235129e-05,6,1
-0.0004110594,-4.074016e-05,6,1
-0.0003185201,-0.0001167488,6,1
-0.0002577456,-0.0001870851,6,1
-0.0002395943,-0.0002457528,6,1
-0.0002614731,-0.0002968033,6,1
-0.0003049066,-0.0003569296,6,1
-0.0003444506,-0.0004410415,6,1
-0.000360333,-0.0005520562,6,1
-0.0003467195,-0.0006760361,6,1
-0.0003152788,-0.0007933713,6,1
-0.0002822175,-0.0008828315,6,1
-0.0002626076,-0.0009259408,6,1
-0.0002656868,-0.0009100584,6,1
-0.0002934,-0.0008319429,6,1
-0.0003334301,-0.0007011562,6,1
-0.0003643846,-0.0005384427,6,1
-0.0003784843,-0.0003663294,6,1
-0.0003872358,-0.0002026434,6,1
-0.0004097628,-6.148453e-05,6,1
-0.0004403932,5.115087e-05,6,1
-0.0004507654,0.0001341283,6,1
-0.000415111,0.0001921477,6,1
-0.0003222476,0.000230071,6,1
-0.0001799543,0.000250005,6,1
-1.3027e-05,0.0002542187,6,1
0.0001501728,0.000247412,6,1
0.0002837146,0.0002383363,6,1
0.0003734989,0.0002287745,6,1
0.0004174185,0.0002169437,6,1
0.0004153117,0.00019782,6,1
0.0003712299,0.0001714034,6,1
0.0002955454,0.0001414213,6,1
0.0002068957,0.0001158149,6,1
0.0001325077,9.474644e-05,6,1
9.037068e-05,7.708133e-05,6,1
7.724339e-05,6.557468e-05,6,1
8.761557e-05,6.735741e-05,6,1
0.0001250527,8.04847e-05,6,1
0.0001966855,0.0001018773,6,1
0.0002981384,0.0001271595,6,1
0.0004034809,0.0001519555,6,1
0.0004728449,0.0001696206,6,1
0.0004709002,0.0001715654,6,1
0.0003867882,0.0001534141,6,1
0.0002386605,0.0001180839,6,1
7.270556e-05,7.384002e-05,6,1
-6.683268e-05,3.510641e-05,6,1
-0.0001522411,1.938607e-05,6,1
-0.0001723372,3.008238e-05,6,1
-0.0001255003,5.390598e-05,6,1
-1.724069e-05,7.951231e-05,6,1
0.0001365593,0.0001005808,6,1
0.0003010556,0.0001185701,6,1
0.0004313562,0.0001341283,6,1
0.0004935893,0.000143204,6,1
0.000482893,0.0001464453,6,1
0.0004157979,0.0001574657,6,1
0.0003172622,0.0001923098,6,1
0.0002161334,0.0002485465,6,1
0.0001339663,0.0003078624,6,1
7.935024e-05,0.0003452995,6,1
4.402e-05,0.0003456236,6,1
1.290346e-05,0.0003049452,6,1
-1.983374e-05,0.0002279642,6,1
-4.706071e-05,0.0001273216,6,1
-5.808115e-05,1.630683e-05,6,1
-4.268495e-05,-8.903562e-05,6,1
5.286387e-06,-0.0001760647,6,1
8.777764e-05,-0.0002431597,6,1
0.0001955511,-0.0002980999,6,1
0.0003096451,-0.0003497987,6,1
0.0004081808,-0.0003979321,6,1
0.0004773828,-0.0004355313,6,1
0.0005144958,-0.0004507654,6,1
0.0005272989,-0.0004318037,6,1
0.0005200059,-0.0003690845,6,1
0.0004921307,-0.0002627696,6,1
0.0004452938,-0.0001250141,6,1
0.0003882468,1.857574e-05,6,1
0.0003414099,0.0001445005,6,1
0.0003253654,0.0002336365,6,1
0.0003436788,0.0002744769,6,1
0.0003804677,0.0002621599,6,1
0.0004088291,0.0001984683,6,1
0.0004034809,9.733949e-05,6,1
0.0003561579,-2.194059e-05,6,1
0.000272208,-0.0001365208,6,1
0.0001801549,-0.0002301945,6,1
0.000128294,-0.0002950206,6,1
0.0001540623,-0.0003262992,6,1
0.0002645909,-0.0003162512,6,1
0.0004298976,-0.0002564491,6,1
0.000596987,-0.0001514308,6,1
0.0007021675,-2.226472e-05,6,1
0.0006982779,0.0001009049,6,1
0.0005739738,0.0001900409,6,1
0.0003632887,0.0002342847,6,1
0.0001300767,0.0002415777,6,1
-6.634648e-05,0.0002271538,6,1
-0.0001961608,0.000205275,6,1
-0.0002598524,0.0001816135,6,1
-0.0002754107,0.000150659,6,1
-0.0002780038,0.0001047945,6,1
-0.0003013411,4.418206e-05,6,1
-0.0003684362,-2.080613e-05,6,1
-0.000479613,-8.368748e-05,6,1
-0.0006081308,-0.0001378173,6,1
-0.0007139594,-0.0001789819,6,1
-0.000762579,-0.0002008607,6,1
-0.0007335693,-0.0001955125,6,1
-0.000623527,-0.000159372,6,1
-0.000444931,-9.438378e-05,6,1
-0.0002321393,-9.623623e-06,6,1
-3.539201e-05,7.57848e-05,6,1
0.0001064152,0.000140773,6,1
0.0001858272,0.0001733481,6,1
0.0002234263,0.0001738343,6,1
0.0002574601,0.0001477418,6,1
0.0003237448,0.000103498,6,1
0.0004370285,5.115087e-05,6,1
0.0005961767,4.47606e-06,6,1
0.0007822278,-2.064406e-05,6,1
0.0009771927,-2.080613e-05,6,1
0.001173616,3.503668e-06,6,1
0.00135124,5.163707e-05,6,1
0.001468251,0.0001190562,6,1
0.001486565,0.0001892305,6,1
0.001396942,0.0002459534,6,1
0.001221588,0.0002767458,6,1
0.001002799,0.0002807975,6,1
0.0007791486,0.0002694529,6,1
0.0005673291,0.0002514636,6,1
0.0003624784,0.0002265056,6,1
0.0001561692,0.0001939304,6,1
-4.706071e-05,0.0001613553,6,1
-0.0002277635,0.0001388282,6,1
-0.0003658432,0.0001278078,6,1
-0.0004549791,0.0001214872,6,1
-0.0005165638,0.0001062531,6,1
-0.0005953276,7.173317e-05,6,1
-0.0007290315,1.290346e-05,6,1
-0.0009194582,-7.120844e-05,6,1
-0.001134843,-0.0001723372,6,1
-0.001331752,-0.0002767073,6,1
-0.001479556,-0.0003734602,6,1
-0.001559616,-0.00046211,6,1
-0.001562857,-0.000544277,6,1
-0.001492845,-0.0006175305,6,1
-0.001375834,-0.0006700397,6,1
-0.001245534,-0.0006813843,6,1
-0.001114099,-0.0006348715,6,1
-0.0009716432,-0.0005300153,6,1
-0.0008107124,-0.000382698,6,1
-0.000646054,-0.0002209568,6,1
-0.0005078124,-7.056019e-05,6,1
-0.0004141386,5.228533e-05,6,1
-0.0003553089,0.0001410971,6,1
-0.0003063652,0.0001986303,6,1
-0.0002352185,0.0002352571,6,1
-0.0001230693,0.0002607014,6,1
2.424803e-05,0.000284687,6,1
0.0001757791,0.0003099692,6,1
0.0002911697,0.0003342791,6,1
0.0003456236,0.0003553475,6,1
0.000344165,0.0003726885,6,1
0.0003230965,0.0003867882,6,1
0.0003253654,0.0003942432,6,1
0.0003720403,0.0003927847,6,1
0.0004517764,0.0003825745,6,1
0.0005337815,0.0003671783,6,1
0.0005773771,0.0003425444,6,1
0.0005496639,0.0003051073,6,1
0.0004444835,0.0002587566,6,1
0.0002812837,0.0002128921,6,1
9.701536e-05,0.0001714034,6,1
-8.044617e-05,0.0001365593,6,1
-0.000236353,0.0001137081,6,1
-0.0003638984,0.000105929,6,1
-0.0004609755,0.0001103047,6,1
-0.0005309877,0.0001226217,6,1
-0.0005728005,0.0001394765,6,1
-0.0005802555,0.0001573037,6,1
-0.0005468701,0.0001657311,6,1
-0.0004713477,0.0001594105,6,1
-0.0003716775,0.0001401247,6,1
-0.0002793003,0.0001166253,6,1
-0.0002203085,9.652917e-05,6,1
-0.0002084778,8.323981e-05,6,1
-0.0002460769,7.805372e-05,6,1
-0.0003220855,8.161915e-05,6,1
-0.0004215936,9.182927e-05,6,1
-0.0005227224,0.0001083599,6,1
-0.0006022964,0.0001224596,6,1
-0.0006345474,0.0001248906,6,1
-0.0006022964,0.0001137081,6,1
-0.000512026,9.377406e-05,6,1
-0.0003989045,7.157111e-05,6,1
-0.0003099306,4.936815e-05,6,1
-0.0002775176,2.586868e-05,6,1
-0.000303286,2.855407e-06,6,1
-0.0003621157,-1.821308e-05,6,1
-0.0004167317,-3.733679e-05,6,1
-0.0004410415,-5.613637e-05,6,1
-0.0004358554,-7.477388e-05,6,1
-0.0004191627,-9.211487e-05,6,1
-0.0004040906,-0.0001067007,6,1
-0.0003919357,-0.000117235,6,1
-0.0003786463,-0.0001258245,6,1
-0.0003577399,-0.0001381414,6,1
-0.0003225718,-0.0001616409,6,1
-0.0002697385,-0.0001922712,6,1
-0.0001934057,-0.0002245222,6,1
-8.709085e-05,-0.000253694,6,1
4.547859e-05,-0.0002767073,6,1
0.0001819376,-0.0002888622,6,1
0.0002960316,-0.0002903207,6,1
0.0003747954,-0.0002844864,6,1
0.0004230909,-0.0002746004,6,1
0.0004477248,-0.000261311,6,1
0.0004538833,-0.0002412149,6,1
0.0004477248,-0.0002096122,6,1
0.0004417284,-0.0001648822,6,1
0.0004477248,-0.0001167488,6,1
0.0004642555,-8.012204e-05,6,1
0.0004887274,-6.407757e-05,6,1
0.0005219508,-7.428769e-05,6,1
0.0005704083,-0.0001092938,6,1
0.0006310208,-0.0001588858,6,1
0.0006802886,-0.0002131776,6,1
0.0006809369,-0.0002666592,6,1
0.0006123833,-0.0003138202,6,1
0.0004773828,-0.000358064,6,1
0.0003046211,-0.0003972838,6,1
0.0001326697,-0.0004206212,6,1
-4.113403e-06,-0.0004147869,6,1
-9.000802e-05,-0.0003718396,6,1
-0.0001242038,-0.0002955068,6,1
-0.0001209625,-0.0002032917,6,1
-8.806324e-05,-0.0001128592,6,1
-2.534396e-05,-3.701266e-05,6,1
6.055066e-05,1.825161e-05,6,1
0.0001558451,5.423012e-05,6,1
0.0002459534,7.610894e-05,6,1
0.0003180725,9.26396e-05,6,1
0.0003696093,0.0001091703,6,1
0.0003989431,0.0001253768,6,1
0.0004070464,0.0001362352,6,1
0.0004020224,0.000138342,6,1
0.0003991052,0.0001240803,6,1
0.0004136911,9.199134e-05,6,1
0.0004644175,5.61749e-05,6,1
0.000579484,3.18651e-05,6,1
0.0007639144,3.802358e-05,6,1
0.0009904819,7.740546e-05,6,1
0.001237632,0.0001402868,6,1
0.001510064,0.0002107852,6,1
0.001801459,0.0002798251,6,1
0.002073405,0.0003386548,6,1
0.002274529,0.0003783608,6,1
0.00236091,0.0003957018,6,1
0.002312128,0.0003942432,6,1
0.002135638,0.0003801436,6,1
0.001861909,0.0003584268,6,1
0.001540533,0.0003331446,6,1
0.001222074,0.0003088348,6,1
0.0009368383,0.0002879283,6,1
0.0006796404,0.0002733424,6,1
0.00043087,0.0002642668,6,1
0.0001837203,0.0002577842,6,1
-5.59743e-05,0.0002487085,6,1
-0.0002796244,0.0002258573,6,1
-0.000477182,0.0001830721,6,1
-0.0006445955,0.0001222976,6,1
-0.0007880232,5.244739e-05,6,1
-0.0009170272,-1.659243e-05,6,1
-0.001036469,-7.769106e-05,6,1
-0.001145053,-0.0001287416,6,1
-0.001238403,-0.0001650443,6,1
-0.001305822,-0.0001838438,6,1
-0.001334507,-0.0001878955,6,1
-0.001314249,-0.000184168,6,1
-0.00124294,-0.0001788198,6,1
-0.001137436,-0.0001736337,6,1
-0.001032742,-0.000171851,6,1
-0.0009568953,-0.0001721751,6,1
-0.0009184858,-0.0001733096,6,1
-0.0009069791,-0.000174282,6,1
-0.0009087619,-0.0001705545,6,1
-0.0009170272,-0.000161965,6,1
-0.0009277235,-0.0001535376,6,1
-0.0009283718,-0.0001459206,6,1
-0.0009121653,-0.0001379794,6,1
-0.0008638698,-0.0001300382,6,1
-0.000767603,-0.0001225832,6,1
-0.0006228787,-0.000112211,6,1
-0.0004541688,-9.730096e-05,6,1
-0.000300855,-8.336335e-05,6,1
-0.0002005366,-7.023606e-05,6,1
-0.0001794681,-5.662256e-05,6,1
-0.0002397564,-4.268495e-05,6,1
-0.0003566054,-3.360929e-05,6,1
-0.0004966299,-3.733679e-05,6,1
-0.0006193133,-5.548811e-05,6,1
-0.0006883531,-8.417367e-05,6,1
-0.0006823567,-0.0001165867,6,1
-0.0006056998,-0.0001473791,6,1
-0.000482044,-0.0001763888,6,1
-0.0003387782,-0.0002071812,6,1
-0.0001974573,-0.0002402425,6,1
-6.748094e-05,-0.0002721694,6,1
5.212327e-05,-0.0002976137,6,1
0.0001527658,-0.0003037722,6,1
0.0002104611,-0.000281083,6,1
0.0001963614,-0.0002334358,6,1
0.0001033359,-0.000174282,6,1
-3.847125e-05,-0.000114804,6,1
-0.0001796301,-5.937768e-05,6,1
-0.0002783279,-1.237873e-05,6,1
-0.0003123616,2.570662e-05,6,1
-0.0002895104,5.747142e-05,6,1
-0.0002251705,8.583286e-05,6,1
-0.0001339277,0.0001117633,6,1
-2.809907e-05,0.0001370455,6,1
8.502253e-05,0.0001610312,6,1
0.000195389,0.0001837203,6,1
0.0002879283,0.0002064095,6,1
0.0003503235,0.0002271538,6,1
0.0003723644,0.0002420638,6,1
0.0003543751,0.0002501671,6,1
0.0003008936,0.0002529222,6,1
0.0002227781,0.0002532463,6,1
0.0001355869,0.0002551911,6,1
5.860588e-05,0.0002636185,6,1
1.241726e-05,0.0002786906,6,1
7.069105e-06,0.0003004074,6,1
4.531652e-05,0.0003253654,6,1
0.0001143563,0.0003474063,6,1
0.0001905271,0.0003628026,6,1
0.0002448189,0.0003723644,6,1
0.000249843,0.0003781987,6,1
0.0001968476,0.000378685,6,1
9.896015e-05,0.0003726885,6,1
-1.25408e-05,0.0003584268,6,1
-9.470791e-05,0.0003355756,6,1
-0.0001162626,0.0003124002,6,1
-7.688073e-05,0.000294573,6,1
1.558884e-06,0.0002824181,6,1
8.567078e-05,0.0002739907,6,1
0.0001385041,0.0002655633,6,1
0.000138342,0.000252436,6,1
8.696731e-05,0.0002329882,6,1
4.80019e-06,0.0002078681,6,1
-7.931171e-05,0.0001777239,6,1
-0.0001587237,0.0001445005,6,1
-0.0002412149,0.0001125736,6,1
-0.0003288923,8.74535e-05,6,1
-0.0004081422,7.497447e-05,6,1
-0.0004595169,7.270556e-05,6,1
-0.0004713477,7.140904e-05,6,1
-0.0004347209,6.719535e-05,6,1
-0.0003543365,5.974033e-05,6,1
-0.0002540181,4.564065e-05,6,1
-0.0001637477,2.376183e-05,6,1
-0.0001058904,-6.058186e-06,6,1
-8.82253e-05,-4.284701e-05,6,1
-0.0001018388,-8.790117e-05,6,1
-0.0001303623,-0.0001480274,6,1
-0.0001603444,-0.0002219292,6,1
-0.0001862748,-0.0002997205,6,1
-0.0002097743,-0.0003711913,6,1
-0.0002332737,-0.0004222419,6,1
-0.0002514251,-0.0004433104,6,1
-0.0002561249,-0.0004321279,6,1
-0.0002436459,-0.0003974459,6,1
-0.0002083157,-0.0003535262,6,1
-0.0001436516,-0.0003173856,6,1
-4.625038e-05,-0.0002980999,6,1
7.384002e-05,-0.0002852967,6,1
0.0001991165,-0.0002630937,6,1
0.0003114278,-0.0002194982,6,1
0.0004051016,-0.0001548341,6,1
0.0004935893,-8.206682e-05,6,1
0.0005987698,-2.647842e-05,6,1
0.00072826,-1.497178e-05,6,1
0.0008707156,-6.0188e-05,6,1
0.001007985,-0.0001515928,6,1
0.001114624,-0.0002566112,6,1
0.001164216,-0.0003426678,6,1
0.001140717,-0.0003964735,6,1
0.001050122,-0.000420135,6,1
0.0009225765,-0.000430021,6,1
0.0007989206,-0.0004415277,6,1
0.0007169155,-0.0004611376,6,1
0.0006919574,-0.0004838267,6,1
0.0007120535,-0.0004980884,6,1
0.0007464114,-0.0004914437,6,1
0.000760349,-0.0004533584,6,1
0.0007334462,-0.0003822118,6,1
0.0006645683,-0.0002783279,6,1
0.000564736,-0.0001428413,6,1
0.0004436732,1.290346e-05,6,1
0.0003055935,0.000168162,6,1
0.0001475797,0.0002976523,6,1
-2.09682e-05,0.0003772264,6,1
-0.000181737,0.0004046154,6,1
-0.000303448,0.0003968363,6,1
-0.0003613053,0.0003778746,6,1
-0.0003501228,0.0003626405,6,1
-0.0002878898,0.0003559958,6,1
-0.0001953505,0.0003495132,6,1
-9.114248e-05,0.0003378445,6,1
1.047248e-05,0.0003229345,6,1
9.118101e-05,0.0003151553,6,1
0.0001378558,0.0003230965,6,1
0.0001475797,0.0003363859,6,1
0.0001222976,0.0003344411,6,1
7.059871e-05,0.000299435,6,1
1.436204e-05,0.0002268297,6,1
-4.923729e-06,0.0001226217,6,1
5.876794e-05,-8.813297e-06,6,1
0.0002245608,-0.0001571031,6,1
0.0004548557,-0.0002977757,6,1
0.0006733199,-0.0004006872,6,1
0.0008092928,-0.0004455793,6,1
0.0008195029,-0.0004280762,6,1
0.0006926056,-0.000362926,6,1
0.0004427008,-0.0002705488,6,1
0.0001154908,-0.0001707166,6,1
-0.0002287359,-8.320128e-05,6,1
-0.0005387668,-2.194059e-05,6,1
-0.0007940196,5.772582e-06,6,1
-0.0009975737,7.555301e-06,6,1
-0.001155749,-1.520357e-06,6,1
-0.001257526,-6.058186e-06,6,1
-0.001280378,1.883015e-06,6,1
-0.001204693,2.376183e-05,6,1
-0.001031445,5.244739e-05,6,1
-0.0007760304,7.772959e-05,6,1
-0.0004627582,9.053275e-05,6,1
-0.000127283,9.247754e-05,6,1
0.0001795066,8.777764e-05,6,1
0.0004044533,7.999851e-05,6,1
0.0005253541,7.108491e-05,6,1
0.0005606844,6.103686e-05,6,1
0.0005501501,5.455425e-05,6,1
0.0005383193,5.876794e-05,6,1
0.0005527431,7.562274e-05,6,1
0.0005838597,0.0001004187,6,1
0.0006023352,0.0001244044,6,1
0.0005786736,0.0001404489,6,1
0.0004934272,0.0001409351,6,1
0.0003433547,0.0001177597,6,1
0.0001401247,6.184718e-05,6,1
-8.611845e-05,-3.085418e-05,6,1
-0.0003062031,-0.0001567789,6,1
-0.0004977643,-0.0003023136,6,1
-0.0006447575,-0.0004439586,6,1
-0.0007408622,-0.0005471942,6,1
-0.000792561,-0.0005916001,6,1
-0.000812333,-0.0005804176,6,1
-0.0008158985,-0.000529205,6,1
-0.0008149261,-0.0004601652,6,1
-0.0008045539,-0.0003890185,6,1
-0.0007695478,-0.0003214373,6,1
-0.0006967805,-0.0002577456,6,1
-0.0005909518,-0.0001972953,6,1
-0.0004784786,-0.0001400862,6,1
-0.0003971218,-8.417367e-05,6,1
-0.0003660052,-2.307504e-05,6,1
-0.0003741085,4.807163e-05,6,1
-0.0004036044,0.0001240803,6,1
-0.0004402311,0.0001947408,6,1
-0.0004753993,0.0002532463,6,1
-0.0005024642,0.0003030004,6,1
-0.0005081365,0.0003521062,6,1
-0.0004779923,0.0004041292,6,1
-0.0004019837,0.0004525868,6,1
-0.0002880518,0.0004898618,6,1
-0.0001540238,0.0005128751,6,1
-1.967167e-05,0.0005221128,6,1
0.0001013911,0.0005172509,6,1
0.0002125679,0.000500396,6,1
0.0003213138,0.0004733311,6,1
0.0004328148,0.0004367043,6,1
0.0005410745,0.0003913261,6,1
0.000624214,0.0003381686,6,1
0.0006608408,0.0002783665,6,1
0.0006509548,0.0002169437,6,1
0.0006041179,0.0001615174,6,1
0.0005263265,0.0001219734,6,1
0.0004180668,0.000103498,6,1
0.0002877662,0.000110953,6,1
0.0001461212,0.0001469315,6,1
9.013889e-06,0.0002109473,6,1
-0.0001167488,0.0002961937,6,1
-0.0002287359,0.0003884089,6,1
-0.0003293785,0.0004704139,6,1
-0.000424997,0.0005298919,6,1
-0.000524343,0.0005634395,6,1
-0.0006347094,0.0005734875,6,1
-0.0007577171,0.0005678153,6,1
-0.0008807246,0.0005543638,6,1
-0.0009833119,0.0005376711,6,1
-0.0010483,0.0005140096,6,1
-0.001064507,0.0004794896,6,1
-0.001031769,0.0004316803,6,1
-0.0009617572,0.0003707437,6,1
-0.0008732696,0.0002965178,6,1
-0.000787375,0.0002107852,6,1
-0.0007165525,0.0001244044,6,1
-0.0006612882,5.131294e-05,6,1
-0.0006129927,-5.479652e-07,6,1
-0.000559187,-3.231277e-05,6,1
-0.0004929024,-5.111234e-05,6,1
-0.0004152731,-6.569822e-05,6,1
-0.0003245165,-8.628052e-05,6,1
-0.000216581,-0.0001162626,6,1
-9.308726e-05,-0.0001572651,6,1
4.369587e-05,-0.0002062088,6,1
0.0001984683,-0.0002532078,6,1
0.0003605336,-0.0002878898,6,1
0.00051012,-0.0003070135,6,1
0.0006379896,-0.0003097686,6,1
0.0007611593,-0.0003018274,6,1
0.0009256558,-0.0002878898,6,1
0.001172482,-0.0002733039,6,1
0.001491751,-0.0002616352,6,1
0.001823986,-0.0002595283,6,1
0.002098525,-0.0002705488,6,1
0.002268208,-0.0002937241,6,1
0.002321042,-0.0003237062,6,1
0.002263346,-0.0003535262,6,1
0.002097229,-0.0003779981,6,1
0.001828199,-0.0003917736,6,1
0.001470844,-0.0003908012,6,1
0.001065032,-0.000375405,6,1
0.0006674855,-0.0003512573,6,1
0.0003352514,-0.0003246786,6,1
9.458438e-05,-0.0002997205,6,1
-5.613637e-05,-0.0002746004,6,1
-0.0001468929,-0.0002507768,6,1
-0.0002219292,-0.0002263049,6,1
-0.0003138202,-0.0002037779,6,1
-0.0004298589,-0.0001869231,6,1
-0.0005458977,-0.0001812508,6,1
-0.0006107238,-0.000189192,6,1
-0.0005771763,-0.0002057227,6,1
-0.0004455793,-0.0002203085,6,1
-0.0002676316,-0.0002256567,6,1
-0.0001133454,-0.0002177155,6,1
-4.333321e-05,-0.0001982676,6,1
-7.736692e-05,-0.0001720131,6,1
-0.0001901644,-0.000142031,6,1
-0.0003347266,-0.0001112386,6,1
-0.0004600031,-7.817725e-05,6,1
-0.0005387668,-3.620233e-05,6,1
-0.0005729626,1.403791e-05,6,1
-0.0005749074,6.525056e-05,6,1
-0.0005525423,0.000110953,6,1
-0.0005016539,0.0001461212,6,1
-0.0004155972,0.0001676758,6,1
-0.0002987481,0.000178048,6,1
-0.0001686097,0.0001833962,6,1
-5.143648e-05,0.0001892305,6,1
3.543054e-05,0.0001999268,6,1
9.26396e-05,0.0002138645,6,1
0.0001342904,0.0002265056,6,1
0.0001871237,0.0002336365,6,1
0.0002718839,0.0002303951,6,1
0.0003875985,0.0002153231,6,1
0.0005167646,0.0001902029,6,1
0.0006391241,0.0001534141,6,1
0.0007360392,0.0001064152,6,1
0.0007929241,5.795762e-05,6,1
0.0007969757,2.01964e-05,6,1
0.000740577,4.313994e-06,6,1
0.0006318311,1.387585e-05,6,1
0.0004908342,4.272347e-05,6,1
0.000351458,7.853991e-05,6,1
0.0002352571,0.0001106288,6,1
0.0001334801,0.0001300767,6,1
2.003433e-05,0.0001342904,6,1
-0.0001190177,0.0001219734,6,1
-0.0002664971,8.956036e-05,6,1
-0.0003888564,3.413401e-05,6,1
-0.0004603272,-4.754691e-05,6,1
-0.0004781544,-0.0001507825,6,1
-0.0004604893,-0.0002585559,6,1
-0.0004233763,-0.0003509331,6,1
-0.0003720016,-0.0004147869,6,1
-0.0003160891,-0.0004428242,6,1
-0.0002729798,-0.0004361795,6,1
-0.0002556388,-0.0004013355,6,1
-0.0002603387,-0.0003486642,6,1
-0.0002820554,-0.0002848105,6,1
-0.0003084721,-0.0002178775,6,1
-0.000325651,-0.0001551583,6,1
-0.0003251648,-0.0001075111,6,1
-0.0003120375,-7.688073e-05,6,1
-0.0003005308,-6.294311e-05,6,1
-0.000303286,-5.840528e-05,6,1
-0.0003339163,-5.840528e-05,6,1
-0.0004037664,-6.132246e-05,6,1
-0.000511864,-6.618442e-05,6,1
-0.0006301716,-7.347736e-05,6,1
-0.0007207661,-8.320128e-05,6,1
-0.0007596618,-9.324933e-05,6,1
-0.0007492896,-0.0001008664,6,1
-0.0007052079,-0.0001003802,6,1
-0.0006455678,-8.44978e-05,6,1
-0.0005771763,-5.581224e-05,6,1
-0.0005045711,-2.777494e-05,6,1
-0.0004319658,-1.221667e-05,6,1
-0.0003638984,-1.092015e-05,6,1
-0.0002987481,-1.416145e-05,6,1
-0.0002277635,-1.335113e-05,6,1
-0.0001449482,-6.058186e-06,6,1
-4.997789e-05,3.341602e-06,6,1
4.82337e-05,1.063454e-05,6,1
0.0001294284,1.160693e-05,6,1
0.0001764274,6.90704e-06,6,1
0.0001856651,2.369211e-06,6,1
0.000165569,-7.100305e-07,6,1
0.0001247285,-6.220252e-06,6,1
6.897806e-05,-1.967167e-05,6,1
-2.330684e-06,-3.944364e-05,6,1
-8.384954e-05,-6.164659e-05,6,1
-0.0001661787,-7.882551e-05,6,1
-0.0002340841,-8.368748e-05,6,1
-0.0002715212,-7.218083e-05,6,1
-0.0002778417,-4.689865e-05,6,1
-0.0002585559,-1.221667e-05,6,1
-0.0002219292,2.34377e-05,6,1
-0.0001655305,5.228533e-05,6,1
-7.688073e-05,7.027458e-05,6,1
5.423012e-05,7.821578e-05,6,1
0.0002255332,8.194328e-05,6,1
0.000410936,8.858796e-05,6,1
0.0005793219,0.0001046324,6,1
0.0006964952,0.0001278078,6,1
0.0007336082,0.0001517934,6,1
0.0006807749,0.0001715654,6,1
0.0005529052,0.0001889064,6,1
0.0003866261,0.0002068957,6,1
0.0002292607,0.0002256952,6,1
0.0001200286,0.0002417397,6,1
7.286763e-05,0.0002542187,6,1
7.999851e-05,0.0002639427,6,1
0.0001237561,0.0002720459,6,1
0.0001824238,0.0002832284,6,1
0.0002373639,0.0002963557,6,1
0.0002780424,0.0003051073,6,1
0.0003017039,0.0003049452,6,1
0.0003089969,0.0002923041,6,1
0.0003052694,0.0002730183,6,1
0.0003046211,0.0002540567,6,1
0.0003235827,0.0002430362,6,1
0.0003754436,0.0002456293,6,1
0.000458259,0.0002626462,6,1
0.0005444778,0.0002908455,6,1
0.0006008766,0.0003213138,6,1
0.0006013628,0.0003487029,6,1
0.0005295678,0.0003710679,6,1
0.0003828986,0.0003901916,6,1
0.0001824238,0.0004029947,6,1
-2.777494e-05,0.0004075326,6,1
-0.0001938919,0.0004044533,6,1
-0.0002770314,0.0003901916,6,1
-0.000271197,0.0003649094,6,1
-0.0001959987,0.0003337929,6,1
-8.725291e-05,0.0003038107,6,1
2.732727e-05,0.0002799871,6,1
0.0001291043,0.0002621599,6,1
0.0002141886,0.0002472499,6,1
0.0002927903,0.0002328261,6,1
0.0003715541,0.0002162954,6,1
0.0004345975,0.0001950649,6,1
0.0004485351,0.0001697827,6,1
0.0003924605,0.0001372076,6,1
0.0002757735,9.182927e-05,6,1
0.0001419075,2.76514e-05,6,1
4.466826e-05,-5.208474e-05,6,1
1.663096e-05,-0.0001353863,6,1
5.471631e-05,-0.0002126914,6,1
0.0001300767,-0.0002812451,6,1
0.0002005751,-0.0003446126,6,1
0.000225209,-0.0004113835,6,1
0.0001733481,-0.0004886886,6,1
3.769945e-05,-0.000578959,6,1
-0.0001613168,-0.0006755499,6,1
-0.0003804291,-0.0007731132,6,1
-0.0005766901,-0.0008675972,6,1
-0.0007246558,-0.0009560849,6,1
-0.0008218948,-0.0010342,6,1
-0.0008698662,-0.001092868,6,1
-0.0008690559,-0.001115395,6,1
-0.0008176812,-0.001091734,6,1
-0.000712987,-0.001016049,6,1
-0.0005687489,-0.0008915829,6,1
-0.0004147869,-0.0007298418,6,1
-0.0002851347,-0.0005476804,6,1
-0.000209126,-0.0003666535,6,1
-0.000199078,-0.0002097743,6,1
-0.0002452666,-9.033215e-05,6,1
-0.00030831,-7.192643e-06,6,1
-0.00032322,4.985435e-05,6,1
-0.0002269532,8.939829e-05,6,1
4.80019e-06,0.0001151667,6,1
0.0003342791,0.0001226217,6,1
0.0006710509,0.0001043083,6,1
0.000913825,6.751948e-05,6,1
0.00100053,2.76514e-05,6,1
0.0009183628,-1.844488e-06,6,1
0.0007005468,-1.335113e-05,6,1
0.0004067223,-4.923729e-06,6,1
0.0001057669,1.468618e-05,6,1
-0.0001489998,3.688912e-05,6,1
-0.000325813,6.03886e-05,6,1
-0.0004248349,8.712937e-05,6,1
-0.000467134,0.0001145184,6,1
-0.0004776682,0.0001385041,6,1
-0.0004724821,0.0001566554,6,1
-0.0004585445,0.0001686482,6,1
-0.0004331002,0.0001751309,6,1
-0.0003919357,0.0001762653,6,1
-0.0003329439,0.0001756171,6,1
-0.0002609869,0.000180479,6,1
-0.0001771992,0.0001970097,6,1
-8.320128e-05,0.0002271538,6,1
2.197911e-05,0.0002699391,6,1
0.0001289422,0.000319207,6,1
0.0002196988,0.0003658818,6,1
0.0002780424,0.0004034809,6,1
0.0002936006,0.000428277,6,1
0.0002629703,0.0004389733,6,1
0.0001848548,0.0004402698,6,1
5.925414e-05,0.0004392974,6,1
-9.389759e-05,0.0004378388,6,1
-0.0002391081,0.0004315182,6,1
-0.0003339163,0.0004196875,6,1
-0.0003496366,0.0004033189,6,1
-0.000276059,0.0003853296,6,1
-0.0001305243,0.0003662059,6,1
5.163707e-05,0.0003480546,6,1
0.0002243987,0.0003313618,6,1
0.0003488649,0.0003209897,6,1
0.0003992672,0.0003172622,6,1
0.0003671783,0.0003130485,6,1
0.0002704253,0.0003073762,6,1
0.0001579519,0.0003051073,6,1
8.826383e-05,0.000309321,6,1
9.604298e-05,0.0003180725,6,1
0.0001845306,0.0003247172,6,1
0.000326824,0.0003209897,6,1
0.0004827309,0.0003018659,6,1
0.0006120591,0.0002688046,6,1
0.0006802886,0.0002269918,6,1
0.0006684579,0.0001793446,6,1
0.000579646,0.0001273216,6,1
0.0004311941,7.270556e-05,6,1
0.0002530843,2.01964e-05,6,1
7.221937e-05,-2.291298e-05,6,1
-8.903562e-05,-5.159854e-05,6,1
-0.0002183637,-6.667062e-05,6,1
-0.0003128478,-7.23429e-05,6,1
-0.0003664914,-7.801519e-05,6,1
-0.0003638984,-9.778715e-05,6,1
-0.000303286,-0.0001366828,6,1
-0.0002068571,-0.0001875713,6,1
-0.0001191798,-0.0002374874,6,1
-9.503204e-05,-0.000276059,6,1
-0.0001666649,-0.0002990722,6,1
-0.0003262992,-0.000305879,6,1
-0.0005258016,-0.0002995585,6,1
-0.0006962943,-0.0002883759,6,1
-0.0007744097,-0.0002804347,6,1
-0.0007293556,-0.0002781658,6,1
-0.000576528,-0.0002733039,6,1
-0.0003741085,-0.0002567732,6,1
-0.0001856265,-0.0002303566,6,1
-3.879538e-05,-0.0002021572,6,1
7.789165e-05,-0.000179306,6,1
0.0001796687,-0.0001621271,6,1
0.0002705873,-0.0001455964,6,1
0.0003380065,-0.0001258245,6,1
0.0003626405,-0.0001007043,6,1
0.0003350894,-7.33153e-05,6,1
0.0002705873,-4.916756e-05,6,1
0.0001960373,-3.360929e-05,6,1
0.0001368834,-3.004385e-05,6,1
0.0001104668,-3.474375e-05,6,1
0.0001141943,-4.641245e-05,6,1
0.0001222976,-6.083626e-05,6,1
0.0001072255,-7.444975e-05,6,1
5.56887e-05,-8.660465e-05,6,1
-1.367526e-05,-0.0001013526,6,1
-6.699475e-05,-0.000122097,6,1
-9.049421e-05,-0.000149486,6,1
-9.859748e-05,-0.0001908126,6,1
-0.0001143178,-0.0002520733,6,1
-0.0001525652,-0.0003238683,6,1
-0.0002136638,-0.0003906392,6,1
-0.000283514,-0.0004285624,6,1
-0.000343154,-0.0004190006,6,1
-0.0003788084,-0.0003561192,6,1
-0.0003890185,-0.0002532078,6,1
-0.0003805911,-0.0001365208,6,1
-0.000362926,-2.680255e-05,6,1
-0.0003450988,6.816773e-05,6,1
-0.0003339163,0.0001490383,6,1
-0.0003305129,0.0002195368,6,1
-0.000325813,0.0002838767,6,1
-0.0003074997,0.0003422202,6,1
-0.0002726556,0.0003893813,6,1
-0.0002198223,0.000420984,6,1
-0.0001501342,0.0004344354,6,1
-6.634648e-05,0.0004263322,6,1
3.478228e-05,0.0003984569,6,1
0.0001579519,0.0003551855,6,1
0.0003054314,0.0002989488,6,1
0.0004632831,0.0002287745,6,1
0.0006029835,0.0001404489,6,1
0.0006903367,3.510641e-05,6,1
0.0007029778,-7.914964e-05,6,1
0.0006378276,-0.0001893541,6,1
0.0005109303,-0.0002804347,6,1
0.0003529166,-0.0003468815,6,1
0.0002051129,-0.0003938804,6,1
0.0001046324,-0.0004237005,6,1
7.497447e-05,-0.0004378002,6,1
0.0001103047,-0.000432452,6,1
0.0001830721,-0.0004057112,6,1
0.0002482223,-0.0003569296,6,1
0.0002694529,-0.0002916173,6,1
0.000237526,-0.0002193361,6,1
0.0001709172,-0.000151917,6,1
0.0001052807,-9.519411e-05,6,1
7.935024e-05,-4.868137e-05,6,1
0.0001047945,-8.489166e-06,6,1
0.0001548727,1.954813e-05,6,1
0.0001814514,2.489629e-05,6,1
0.0001509831,3.017472e-06,6,1
5.552663e-05,-2.955766e-05,6,1
-9.179074e-05,-4.819517e-05,6,1
-0.0002622834,-3.911951e-05,6,1
-0.0004240246,-8.720959e-07,6,1
-0.0005462218,5.455425e-05,6,1
-0.0006113721,0.0001091703,6,1
-0.0006204477,0.0001511452,6,1
-0.0005961379,0.0001715654,6,1
-0.0005668041,0.0001670276,6,1
-0.0005507597,0.0001415833,6,1
-0.0005520562,0.0001067393,6,1
-0.000573935,7.140904e-05,6,1
-0.0006150996,4.126489e-05,6,1
-0.0006761982,1.582063e-05,6,1
-0.000757555,-7.516774e-06,6,1
-0.0008413427,-3.247483e-05,6,1
-0.0008881796,-5.516398e-05,6,1
-0.0008502563,-7.023606e-05,6,1
-0.000698077,-6.780507e-05,6,1
-0.0004439586,-4.009191e-05,6,1
-0.0001383035,1.209313e-05,6,1
0.0001579519,7.562274e-05,6,1
0.000406074,0.0001323456,6,1
0.0006070351,0.0001675138,6,1
0.0007840106,0.0001752929,6,1
0.0009562862,0.0001561692,6,1
0.001121269,0.0001166253,6,1
0.001254973,6.281957e-05,6,1
0.001324337,8.041497e-06,6,1
0.001308455,-3.198864e-05,6,1
0.001205705,-4.625038e-05,6,1
0.001038615,-3.231277e-05,6,1
0.0008386266,6.258778e-06,6,1
0.0006347483,6.298164e-05,6,1
0.0004483731,0.0001331559,6,1
0.0002908455,0.0002114335,6,1
0.0001660552,0.0002903593,6,1
7.124698e-05,0.0003577785,6,1
-8.720959e-07,0.0004028327,6,1
-5.759496e-05,0.0004140152,6,1
-0.0001067007,0.0003832228,6,1
-0.0001567789,0.0003088348,6,1
-0.0002156086,0.0001955511,6,1
-0.0002877277,5.309566e-05,6,1
-0.0003707051,-0.0001084835,6,1
-0.0004489826,-0.0002802727,6,1
-0.0005034366,-0.0004413656,6,1
-0.0005186707,-0.0005698834,6,1
-0.0004886886,-0.0006449196,6,1
-0.0004206212,-0.0006554538,6,1
-0.0003284061,-0.0006060239,6,1
-0.0002175534,-0.0005121881,6,1
-8.044617e-05,-0.0003880461,6,1
8.972242e-05,-0.0002486699,6,1
0.000274639,-0.0001112386,6,1
0.0004324906,1.306552e-05,6,1
0.0005235714,0.0001232699,6,1
0.0005310264,0.0002211574,6,1
0.0004725208,0.0003062417,6,1
0.0003927847,0.0003734989,6,1
0.0003428685,0.0004226047,6,1
0.0003464339,0.0004555039,6,1
0.0003880847,0.0004752759,6,1
0.0004222805,0.0004794896,6,1
0.0004057499,0.0004710622,6,1
0.0003313618,0.0004524247,6,1
0.0002297469,0.0004268184,6,1
0.0001425557,0.0003944053,6,1
0.0001051186,0.0003551855,6,1
0.0001347766,0.0003138588,6,1
0.0002258573,0.0002743149,6,1
0.0003587509,0.0002378501,6,1
0.0005096338,0.0001973338,6,1
0.0006498204,0.0001539003,6,1
0.0007519216,0.0001163011,6,1
0.000802324,9.361199e-05,6,1
0.0007969757,8.46984e-05,6,1
0.0007451148,8.486046e-05,6,1
0.0006639201,8.648112e-05,6,1
0.0005629533,8.226741e-05,6,1
0.0004391353,6.962632e-05,6,1
0.0002906835,4.369587e-05,6,1
0.0001240803,4.313994e-06,6,1
-5.046408e-05,-4.074016e-05,6,1
-0.000221443,-8.07703e-05,6,1
-0.000375405,-0.0001062146,6,1
-0.0004959816,-0.0001133454,6,1
-0.0005679386,-0.0001018388,6,1
-0.0005794452,-7.720486e-05,6,1
-0.0005373082,-5.078821e-05,6,1
-0.0004635685,-3.555408e-05,6,1
-0.0003911253,-3.798505e-05,6,1
-0.0003475298,-5.435365e-05,6,1
-0.000348016,-7.444975e-05,6,1
-0.0003895047,-9.19528e-05,6,1
-0.0004553032,-0.0001042698,6,1
-0.0005262878,-0.0001086455,6,1
-0.0005851175,-0.0001029732,6,1
-0.0006219063,-8.514606e-05,6,1
-0.0006384369,-5.678463e-05,6,1
-0.0006444334,-2.534396e-05,6,1
-0.000643461,-2.654814e-06,6,1
-0.0006426507,2.369211e-06,6,1
-0.0006505919,-1.221667e-05,6,1
-0.0006765223,-4.009191e-05,6,1
-0.0007230351,-7.218083e-05,6,1
-0.0007766787,-0.0001036215,6,1
-0.000812171,-0.0001311726,6,1
-0.0008060125,-0.0001512687,6,1
-0.0007588515,-0.0001592099,6,1
-0.0006875428,-0.0001509446,6,1
-0.000613641,-0.0001251762,6,1
-0.0005574043,-8.579432e-05,6,1
-0.0005275843,-3.944364e-05,6,1
-0.0005204534,7.555301e-06,6,1
-0.0005212637,4.564065e-05,6,1
-0.0005164018,6.735741e-05,6,1
-0.0004906334,7.027458e-05,6,1
-0.000435045,5.730935e-05,6,1
-0.0003491504,3.624086e-05,6,1
-0.0002425115,1.614476e-05,6,1
-0.0001368449,7.717366e-06,6,1
-4.592625e-05,2.262738e-05,6,1
3.332369e-05,5.893001e-05,6,1
0.0001047945,0.0001047945,6,1
0.0001595726,0.0001464453,6,1
0.0001717275,0.0001707551,6,1
0.0001232699,0.0001686482,6,1
2.878586e-05,0.0001391524,6,1
-8.044617e-05,8.664318e-05,6,1
-0.0001754164,1.97102e-05,6,1
-0.0002428356,-5.581224e-05,6,1
-0.0002831898,-0.0001397621,6,1
-0.0003057169,-0.0002306807,6,1
-0.0003206269,-0.0003199787,6,1
-0.0003287302,-0.0003898288,6,1
-0.0003267854,-0.0004262935,6,1
-0.000313334,-0.0004206212,6,1
-0.0002883759,-0.000372974,6,1
-0.0002566112,-0.0002943724,6,1
-0.0002167431,-0.0002070192,6,1
-0.0001613168,-0.0001324691,6,1
-8.417367e-05,-8.303922e-05,6,1
3.989864e-06,-6.456377e-05,6,1
7.935024e-05,-7.23429e-05,6,1
0.0001175977,-9.341139e-05,6,1
9.280167e-05,-0.0001139937,6,1
-4.923729e-06,-0.0001253383,6,1
-0.0001538618,-0.0001263107,6,1
-0.0003031239,-0.0001186936,6,1
-0.0003930701,-0.0001120489,6,1
-0.0003805911,-0.0001136696,6,1
-0.0002360289,-0.0001263107,6,1
6.249545e-05,-0.0001460826,6,1
0.0005144958,-0.0001583996,6,1
0.001086911,-0.0001459206,6,1
0.001706974,-9.989401e-05,6,1
0.00227615,-2.485776e-05,6,1
0.002692336,6.395404e-05,6,1
0.002872391,0.0001495245,6,1
0.002783254,0.0002145127,6,1
0.002460905,0.0002519498,6,1
0.001992372,0.0002624841,6,1
0.001476517,0.0002475741,6,1
0.0009969646,0.0002112714,6,1
0.000599256,0.000163138,6,1
0.0002958695,0.0001185701,6,1
7.481241e-05,8.372601e-05,6,1
-8.465986e-05,6.217132e-05,6,1
-0.0001998883,4.953022e-05,6,1
-0.0002801106,4.094075e-05,6,1
-0.0003329439,3.170304e-05,6,1
-0.0003692465,1.64689e-05,6,1
-0.0003956632,-4.275467e-06,6,1
-0.000415111,-2.664048e-05,6,1
-0.0004332623,-4.43056e-05,6,1
-0.0004556273,-5.905355e-05,6,1
-0.0004843129,-6.91016e-05,6,1
-0.0005146191,-7.039812e-05,6,1
-0.0005287188,-6.278104e-05,6,1
-0.0005061917,-4.868137e-05,6,1
-0.0004366657,-2.907146e-05,6,1
-0.0003204649,-6.220252e-06,6,1
-0.0001640719,1.582063e-05,6,1
2.39239e-05,3.073064e-05,6,1
0.0002265056,3.575467e-05,6,1
0.0004239012,3.283749e-05,6,1
0.0005866149,2.181705e-05,6,1
0.0006823955,1.720949e-06,6,1
0.0006986021,-2.437157e-05,6,1
0.0006371793,-5.127441e-05,6,1
0.0004990995,-6.845333e-05,6,1
0.0002965178,-6.893953e-05,6,1
5.244739e-05,-5.192267e-05,6,1
-0.0001974573,-2.275091e-05,6,1
-0.0004233763,6.582909e-06,6,1
-0.0006047274,2.651694e-05,6,1
-0.0007343796,3.18651e-05,6,1
-0.0008064987,2.165498e-05,6,1
-0.0008152502,5.86492e-07,6,1
-0.0007585274,-2.550602e-05,6,1
-0.0006420024,-4.949169e-05,6,1
-0.0004828543,-6.099833e-05,6,1
-0.0003031239,-5.483985e-05,6,1
-0.000132145,-2.907146e-05,6,1
-6.058186e-06,9.986281e-06,6,1
4.369587e-05,4.839576e-05,6,1
1.419998e-05,7.254349e-05,6,1
-6.634648e-05,7.594687e-05,6,1
-0.0001501342,6.346784e-05,6,1
-0.0002011848,5.163707e-05,6,1
-0.0002073433,5.277153e-05,6,1
-0.0001806025,7.319176e-05,6,1
-0.0001357104,0.0001140322,6,1
-8.40116e-05,0.0001667035,6,1
-2.550602e-05,0.0002184023,6,1
4.304761e-05,0.0002590807,6,1
0.0001248906,0.0002859836,6,1
0.0002261814,0.0002973281,6,1
0.0003524304,0.0002968419,6,1
0.0004900239,0.0002885766,6,1
0.0006084936,0.000277232,6,1
0.000673644,0.0002663737,6,1
0.000656303,0.000259729,6,1
0.0005558224,0.0002547049,6,1
0.0004046154,0.0002478982,6,1
0.000252274,0.0002388225,6,1
0.0001342904,0.0002297469,6,1
5.001642e-05,0.0002218057,6,1
-2.7937e-05,0.0002138645,6,1
-0.0001269589,0.0002007372,6,1
-0.0002583939,0.0001746447,6,1
-0.0004141386,0.0001354248,6,1
-0.0005719902,9.053275e-05,6,1
-0.0007066664,5.325772e-05,6,1
-0.0007990437,2.878586e-05,6,1
-0.0008455564,1.614476e-05,6,1
-0.0008606284,1.160693e-05,6,1
-0.0008616009,8.527692e-06,6,1
-0.0008549562,-3.858999e-07,6,1
-0.0008457185,-1.869928e-05,6,1
-0.0008374532,-4.446767e-05,6,1
-0.0008361567,-6.845333e-05,6,1
-0.0008343739,-8.465986e-05,6,1
-0.0008158985,-9.341139e-05,6,1
-0.0007721409,-9.989401e-05,6,1
-0.0006982391,-0.0001075111,6,1
-0.0005909518,-0.0001183694,6,1
-0.0004557894,-0.0001349001,6,1
-0.0003121996,-0.000159372,6,1
-0.0001887058,-0.0001862748,6,1
-0.0001010285,-0.0002083157,6,1
-4.38194e-05,-0.0002219292,6,1
6.90704e-06,-0.0002256567,6,1
8.988449e-05,-0.0002201465,6,1
0.0002365536,-0.0002099363,6,1
0.0004652279,-0.0001984297,6,1
0.0007647247,-0.0001838438,6,1
0.001092907,-0.0001642339,6,1
0.001387056,-0.0001423551,6,1
0.001593204,-0.0001240417,6,1
0.001677964,-0.0001175591,6,1
0.00163761,-0.0001229073,6,1
0.001501151,-0.0001340898,6,1
0.001315261,-0.0001404103,6,1
0.001134234,-0.0001378173,6,1
0.0009995577,-0.0001267968,6,1
0.0009099355,-0.0001164247,6,1
0.0008245269,-0.0001105903,6,1
0.000695847,-0.0001057284,6,1
0.0005068787,-9.940781e-05,6,1
0.0002806354,-8.790117e-05,6,1
5.309566e-05,-7.477388e-05,6,1
-0.0001402483,-6.375344e-05,6,1
-0.0002830278,-5.516398e-05,6,1
-0.0003734602,-4.560212e-05,6,1
-0.0004238625,-2.988179e-05,6,1
-0.0004431483,-8.813297e-06,6,1
-0.0004334244,1.355172e-05,6,1
-0.0003984183,3.380988e-05,6,1
-0.0003491504,5.066468e-05,6,1
-0.0002974516,6.622294e-05,6,1
-0.0002549905,8.307774e-05,6,1
-0.0002310048,0.0001009049,6,1
-0.0002305186,0.0001171115,6,1
-0.0002566112,0.0001278078,6,1
-0.0003049066,0.0001354248,6,1
-0.0003660052,0.0001398006,6,1
-0.0004264556,0.0001459591,6,1
-0.0004732924,0.0001561692,6,1
-0.0004932265,0.0001686482,6,1
-0.0004857715,0.0001765894,6,1
-0.0004663236,0.0001751309,6,1
-0.0004476861,0.0001603829,6,1
-0.0004331002,0.0001271595,6,1
-0.0004209454,7.724339e-05,6,1
-0.0004168937,2.084466e-05,6,1
-0.0004215936,-2.858527e-05,6,1
-0.000432452,-6.278104e-05,6,1
-0.0004429862,-8.563225e-05,6,1
-0.0004484965,-0.0001052422,6,1
-0.0004429862,-0.0001224211,6,1
-0.0004230522,-0.0001298761,6,1
-0.0003859393,-0.000117235,6,1
-0.0003337542,-7.785312e-05,6,1
-0.0002695764,-1.545797e-05,6,1
-0.0001969711,5.666109e-05,6,1
-0.0001169109,0.0001179218,6,1
-3.231277e-05,0.0001524417,6,1
3.202716e-05,0.0001558451,6,1
2.635488e-05,0.0001360731,6,1
-7.963584e-05,0.000106091,6,1
-0.0002658489,8.016057e-05,6,1
-0.000472158,6.330578e-05,6,1
-0.0006314681,5.19612e-05,6,1
-0.0007095836,3.818565e-05,6,1
-0.0007162283,1.760335e-05,6,1
-0.0006823567,-9.461558e-06,6,1
-0.0006361681,-3.798505e-05,6,1
-0.0005843072,-6.44017e-05,6,1
-0.0005066779,-8.530812e-05,6,1
-0.0003779981,-0.000102325,6,1
-0.0001856265,-0.0001190177,6,1
5.698522e-05,-0.0001363587,6,1
0.0003023522,-0.0001535376,6,1
0.0004911583,-0.0001653684,6,1
0.000579484,-0.0001666649,6,1
0.000567167,-0.0001541859,6,1
0.0004815964,-0.0001269589,6,1
0.000361506,-8.82253e-05,6,1
0.0002511395,-4.884343e-05,6,1
0.0001869616,-1.480971e-05,6,1
0.0001775618,9.500085e-06,6,1
0.0002106232,2.505836e-05,6,1
0.0002652392,4.288554e-05,6,1
0.0003310377,6.83298e-05,6,1
0.0004078567,9.944634e-05,6,1
0.0004939134,0.0001274836,6,1
0.000579646,0.0001423936,6,1
0.0006494962,0.0001386662,6,1
0.0006866092,0.0001205148,6,1
0.0006760749,9.393612e-05,6,1
0.000621621,6.995045e-05,6,1
0.0005378332,5.698522e-05,6,1
0.0004470765,5.860588e-05,6,1
0.0003684748,7.594687e-05,6,1
0.0003101313,0.0001049566,6,1
0.0002713977,0.0001342904,6,1
0.0002456293,0.0001551968,6,1
0.0002261814,0.0001590864,6,1
0.0002088404,0.0001414213,6,1
0.0001889064,0.0001070634,6,1
0.0001573037,6.525056e-05,6,1
0.0001018773,2.165498e-05,6,1
2.327564e-05,-2.647842e-05,6,1
-6.537409e-05,-8.060823e-05,6,1
-0.0001459206,-0.0001396,6,1
-0.0002011848,-0.0001987538,6,1
-0.0002225774,-0.0002523975,6,1
-0.0002109087,-0.0002995585,6,1
-0.0001759026,-0.0003416954,6,1
-0.000119828,-0.0003809152,6,1
-2.988179e-05,-0.0004083043,6,1
0.000113384,-0.0004160834,6,1
0.000316938,-0.0004014975,6,1
0.0005485295,-0.0003614674,6,1
0.0007475458,-0.0002997205,6,1
0.0008540229,-0.0002290601,6,1
0.0008227442,-0.0001655305,6,1
0.0006528996,-0.0001290658,6,1
0.0003991052,-0.0001327933,6,1
0.00015309,-0.0001759026,6,1
-7.840905e-06,-0.0002485079,6,1
-5.419158e-05,-0.0003301888,6,1
-1.124428e-05,-0.00039777,6,1
6.606088e-05,-0.0004269418,6,1
0.0001227837,-0.0004039285,6,1
0.0001265113,-0.0003326198,6,1
7.238143e-05,-0.0002266291,6,1
-2.372331e-05,-0.0001026491,6,1
-0.0001349001,2.262738e-05,6,1
-0.0002361909,0.0001362352,6,1
-0.0003130099,0.0002339606,6,1
-0.0003577399,0.000316776,6,1
-0.0003590364,0.0003918123,6,1
-0.0002948586,0.0004657141,6,1
-0.0001540238,0.000534916,6,1
5.649903e-05,0.0005935837,6,1
0.000316938,0.0006375034,6,1
0.0005965008,0.0006645683,6,1
0.0008517539,0.0006697544,6,1
0.00103424,0.0006512789,6,1
0.001110735,0.0006136798,6,1
0.001068922,0.0005708945,6,1
0.000913663,0.0005381573,6,1
0.000676237,0.0005221128,6,1
0.0004068843,0.0005166026,6,1
0.000158114,0.00051012,6,1
-3.620233e-05,0.0004939134,6,1
-0.0001705545,0.0004645796,6,1
-0.0002606628,0.000423415,6,1
-0.0003275957,0.000368961,6,1
-0.0003788084,0.0003047831,6,1
-0.0004108973,0.0002380122,6,1
-0.0004172179,0.0001665414,6,1
-0.0003984183,8.307774e-05,6,1
-0.0003658432,-1.707863e-05,6,1
-0.0003410472,-0.0001303623,6,1
-0.0003342404,-0.0002426735,6,1
-0.0003438023,-0.0003342404,6,1
-0.0003634122,-0.0003886944,6,1
-0.0003873979,-0.000405063,6,1
-0.0004131662,-0.0004006872,6,1
-0.0004413656,-0.000392746,6,1
-0.0004763717,-0.0003886944,6,1
-0.0005147812,-0.0003859393,6,1
-0.0005483287,-0.0003765395,6,1
-0.0005679386,-0.0003579019,6,1
-0.0005734488,-0.0003314853,6,1
-0.000571504,-0.0002946965,6,1
-0.0005617801,-0.0002499665,6,1
-0.0005369841,-0.0002071812,6,1
-0.0004943609,-0.0001741199,6,1
-0.000442338,-0.0001522411,6,1
-0.0003985804,-0.0001344139,6,1
-0.0003752429,-0.0001214487,6,1
-0.000370381,-0.0001183694,6,1
-0.0003720016,-0.0001310105,6,1
-0.0003673017,-0.0001554824,6,1
-0.0003497987,-0.0001796301,6,1
-0.0003188442,-0.0001940539,6,1
-0.0002846485,-0.0001959987,6,1
-0.0002700626,-0.0001922712,6,1
-0.0002934,-0.0001919471,6,1
-0.0003601709,-0.0002006986,6,1
-0.0004527101,-0.0002146363,6,1
-0.0005329325,-0.0002258187,6,1
-0.0005578905,-0.0002301945,6,1
-0.0005018159,-0.0002290601,6,1
-0.0003614674,-0.0002256567,6,1
-0.0001648822,-0.0002199844,6,1
3.737532e-05,-0.0002044261,6,1
0.0002000889,-0.0001703924,6,1
0.000304459,-0.0001133454,6,1
0.0003561579,-3.652646e-05,6,1
0.0003702575,4.758544e-05,6,1
0.000356482,0.0001240803,6,1
0.000319369,0.0001822617,6,1
0.0002626462,0.0002208333,6,1
0.0001921477,0.0002493568,6,1
0.0001127357,0.0002767458,6,1
4.110282e-05,0.0003098072,6,1
-1.221667e-05,0.0003474063,6,1
-4.608832e-05,0.0003840331,6,1
-7.23429e-05,0.0004141773,6,1
-0.0001021629,0.0004378388,6,1
-0.0001357104,0.0004593935,6,1
-0.000161965,0.0004796517,6,1
-0.0001712027,0.0004966686,6,1
-0.0001553203,0.0005068787,6,1
-0.000112211,0.0005055821,6,1
-4.689865e-05,0.0004935893,6,1
2.975825e-05,0.0004731691,6,1
0.0001093323,0.0004478869,6,1
0.0001863134,0.0004188772,6,1
0.0002517878,0.0003874365,6,1
0.0002918179,0.0003571303,6,1
0.0002947351,0.000329255,6,1
0.0002594049,0.0003038107,6,1
0.0001905271,0.0002756114,6,1
9.134307e-05,0.0002378501,6,1
-2.923353e-05,0.0001906891,6,1
-0.0001536997,0.0001440143,6,1
-0.000251263,0.0001057669,6,1
-0.0002953447,7.708133e-05,6,1
-0.0002904828,5.61749e-05,6,1
-0.0002648765,3.883391e-05,6,1
-0.0002515871,2.003433e-05,6,1
-0.0002658489,-5.085794e-06,6,1
-0.0003029619,-3.701266e-05,6,1
-0.000338292,-7.299116e-05,6,1
-0.0003446126,-0.0001063766,6,1
-0.0003110651,-0.000134738,6,1
-0.0002444563,-0.0001549962,6,1
-0.000161965,-0.000169258,6,1
-8.02841e-05,-0.0001844921,6,1
-5.57199e-06,-0.0002081536,6,1
6.816773e-05,-0.0002408908,6,1
0.0001474177,-0.0002773555,6,1
0.0002367157,-0.0003102548,6,1
0.0003362238,-0.0003318095,6,1
0.0004423766,-0.0003386162,6,1
0.0005452881,-0.0003379679,6,1
0.0006282657,-0.0003374817,6,1
0.0006817472,-0.0003436402,6,1
0.0007091364,-0.0003583881,6,1
0.0007130259,-0.0003797808,6,1
0.0006851507,-0.0004031182,6,1
0.0006214589,-0.0004224039,6,1
0.0005431813,-0.0004308313,6,1
0.0004866205,-0.0004248349,6,1
0.0004744656,-0.000400201,6,1
0.0005094717,-0.0003579019,6,1
0.000574622,-0.0003057169,6,1
0.0006494962,-0.0002523975,6,1
0.0007196706,-0.0002052365,6,1
0.0007710453,-0.0001666649,6,1
0.0007887104,-0.0001349001,6,1
0.0007618076,-0.0001092938,6,1
0.0006917953,-9.000802e-05,6,1
0.0005909906,-7.493595e-05,6,1
0.0004746277,-6.002594e-05,6,1
0.0003582647,-4.43056e-05,6,1
0.0002571359,-3.21507e-05,6,1
0.0001880961,-2.84232e-05,6,1
0.0001503349,-3.150244e-05,6,1
0.0001269974,-3.68506e-05,6,1
9.101894e-05,-4.106429e-05,6,1
2.619281e-05,-4.155049e-05,6,1
-6.180866e-05,-3.571614e-05,6,1
-0.0001439758,-2.226472e-05,6,1
-0.0001893541,-5.247859e-06,6,1
-0.0001788198,1.727922e-05,6,1
-0.0001165867,4.612685e-05,6,1
-2.696461e-05,7.951231e-05,6,1
5.828175e-05,0.0001124116,6,1
0.000113384,0.0001417454,6,1
0.0001229458,0.0001667035,6,1
9.069481e-05,0.0001846927,6,1
3.850978e-05,0.0001939304,6,1
-8.975362e-06,0.0001971717,6,1
-4.138842e-05,0.0001961994,6,1
-6.278104e-05,0.0001923098,6,1
-8.547019e-05,0.000185341,6,1
-0.0001164247,0.0001749688,6,1
-0.0001558065,0.0001634622,6,1
-0.00019924,0.000155683,6,1
-0.000231329,0.0001574657,6,1
-0.0002274394,0.000173024,6,1
-0.0001739578,0.0002000889,6,1
-8.757704e-05,0.0002295848,6,1
-1.358292e-06,0.0002485465,6,1
5.260946e-05,0.0002485465,6,1
4.969229e-05,0.0002337985,6,1
-2.145439e-05,0.0002128921,6,1
-0.0001622891,0.0001882582,6,1
-0.000360333,0.0001613553,6,1
-0.0005875485,0.0001315353,6,1
-0.0007938576,9.960841e-05,6,1
-0.0009278856,7.043665e-05,6,1
-0.0009543023,4.807163e-05,6,1
-0.0008700282,3.121684e-05,6,1
-0.0007125008,1.565857e-05,6,1
-0.0005489769,7.485573e-07,6,1
-0.0004392588,-1.464765e-05,6,1
-0.0004097628,-2.647842e-05,6,1
-0.0004488206,-3.101625e-05,6,1
-0.0005172121,-2.858527e-05,6,1
-0.0005734488,-2.46957e-05,6,1
-0.0005896553,-2.258885e-05,6,1
-0.0005535148,-2.275091e-05,6,1
-0.0004682684,-2.437157e-05,6,1
-0.0003527159,-2.566809e-05,6,1
-0.0002280877,-2.761287e-05,6,1
-0.0001083214,-3.458168e-05,6,1
1.883015e-06,-4.835724e-05,6,1
9.944634e-05,-6.81292e-05,6,1
0.0001812893,-8.854943e-05,6,1
0.0002451431,-0.0001018388,6,1
0.0002889007,-0.0001060525,6,1
0.000316776,-0.0001099421,6,1
0.0003273102,-0.000119828,6,1
0.0003117519,-0.000134738,6,1
0.0002616738,-0.0001524032,6,1
0.0001720516,-0.0001723372,6,1
4.709924e-05,-0.0001932436,6,1
-9.600444e-05,-0.0002109087,6,1
-0.0002248464,-0.0002233878,6,1
-0.0003130099,-0.0002280877,6,1
-0.0003515814,-0.0002224154,6,1
-0.00035304,-0.0002071812,6,1
-0.0003454229,-0.0001875713,6,1
-0.0003465574,-0.0001687718,6,1
-0.0003551469,-0.0001528894,6,1
-0.0003608192,-0.0001405724,6,1
-0.0003523917,-0.0001277692,6,1
-0.000328082,-0.0001084835,6,1
-0.0002961551,-8.692878e-05,6,1
-0.0002749245,-6.683268e-05,6,1
-0.0002791382,-4.981582e-05,6,1
-0.0003070135,-3.328516e-05,6,1
-0.0003374817,-1.448558e-05,6,1
-0.0003436402,5.772582e-06,6,1
-0.000310903,2.635488e-05,6,1
-0.000243808,4.920609e-05,6,1
-0.0001549962,7.286763e-05,6,1
-5.727083e-05,9.490851e-05,6,1
3.834771e-05,0.0001175977,6,1
0.0001261871,0.0001420695,6,1
0.000202844,0.0001645966,6,1
0.0002684805,0.0001812893,6,1
0.0003276344,0.0001884202,6,1
0.0003853296,0.0001910133,6,1
0.0004402698,0.0001940925,6,1
0.0004871067,0.0002030061,6,1
0.0005227611,0.0002192126,6,1
0.0005430193,0.0002419018,6,1
0.0005459364,0.0002658874,6,1
0.0005404262,0.0002859836,6,1
0.0005469088,0.0002950592,6,1
0.0005908285,0.0002867939,6,1
0.0006807749,0.0002605393,6,1
0.0008068618,0.000222616,6,1
0.0009433209,0.0001820997,6,1
0.001047529,0.0001517934,6,1
0.001082535,0.0001393144,6,1
0.001031647,0.0001420695,6,1
0.000901508,0.0001526038,6,1
0.0007170775,0.0001618415,6,1
0.0005213025,0.000165569,6,1
0.0003649094,0.0001610312,6,1
0.0002777182,0.0001539003,6,1
0.0002454672,0.0001423936,6,1
0.0002352571,0.0001250527,6,1
0.0002111094,9.798775e-05,6,1
0.0001618415,5.649903e-05,6,1
0.0001081979,7.485573e-07,6,1
7.983644e-05,-6.48879e-05,6,1
9.31258e-05,-0.0001378173,6,1
0.0001380179,-0.0002104225,6,1
0.0001835583,-0.0002750866,6,1
0.0001991165,-0.0003178718,6,1
0.0001714034,-0.000333106,6,1
0.0001195424,-0.0003188442,6,1
7.189524e-05,-0.0002791382,6,1
4.35338e-05,-0.000219012,6,1
2.700314e-05,-0.0001483515,6,1
2.04508e-06,-7.752899e-05,6,1
-4.608832e-05,-1.902341e-05,6,1
-0.0001157764,2.068259e-05,6,1
-0.000194216,4.142696e-05,6,1
-0.0002608248,4.499239e-05,6,1
-0.0003021515,3.575467e-05,6,1
-0.0003230579,1.760335e-05,6,1
-0.0003442885,-2.978945e-06,6,1
-0.0003932322,-2.339918e-05,6,1
-0.000482044,-4.560212e-05,6,1
-0.0005979206,-7.104638e-05,6,1
-0.0007121767,-9.843541e-05,6,1
-0.0007979092,-0.0001208004,6,1
-0.000842153,-0.0001357104,6,1
-0.0008405324,-0.0001462447,6,1
-0.0007975851,-0.0001579134,6,1
-0.0007227109,-0.0001731475,6,1
-0.0006343853,-0.0001874093,6,1
-0.0005502735,-0.0001914609,6,1
-0.0004857715,-0.0001827094,6,1
-0.0004491447,-0.0001616409,6,1
-0.0004342347,-0.0001316588,6,1
-0.000430021,-9.892161e-05,6,1
-0.0004243487,-6.81292e-05,6,1
-0.0004071698,-4.009191e-05,6,1
-0.0003736223,-1.513384e-05,6,1
-0.0003246786,6.420843e-06,6,1
-0.0002605007,2.619281e-05,6,1
-0.0001934057,4.191315e-05,6,1
-0.0001465688,5.358185e-05,6,1
-0.000144624,6.03886e-05,6,1
-0.0001921092,6.103686e-05,6,1
-0.0002763831,5.795762e-05,6,1
-0.0003687603,5.795762e-05,6,1
-0.0004347209,6.103686e-05,6,1
-0.0004442827,6.427817e-05,6,1
-0.0003859393,6.444023e-05,6,1
-0.0002758969,5.99024e-05,6,1
-0.0001467309,5.163707e-05,6,1
-2.712668e-05,4.158902e-05,6,1
6.735741e-05,2.992031e-05,6,1
0.0001344524,1.760335e-05,6,1
0.0001738343,4.151929e-06,6,1
0.0001908512,-1.351319e-05,6,1
0.0001992786,-3.944364e-05,6,1
0.0002148369,-7.299116e-05,6,1
0.0002488706,-0.0001015147,6,1
0.0002991108,-0.0001146419,6,1
0.0003487029,-0.0001101041,6,1
0.0003866261,-9.146661e-05,6,1
0.0004140152,-6.44017e-05,6,1
0.0004349216,-3.312309e-05,6,1
0.0004469145,1.234753e-06,6,1
0.0004414042,4.288554e-05,6,1
0.0004153117,9.717743e-05,6,1
0.0003722023,0.000160707,6,1
0.0003124002,0.0002229401,6,1
0.0002341226,0.0002710735,6,1
0.0001517934,0.0003034866,6,1
0.0001004187,0.0003219621,6,1
0.0001193804,0.0003273102,6,1
0.000230071,0.0003206656,6,1
0.0004211461,0.0003065659,6,1
0.0006580857,0.0002880904,6,1
0.0008932427,0.0002654013,6,1
0.001077025,0.0002378501,6,1
0.001161299,0.0002057612,6,1
0.001119324,0.0001665414,6,1
0.0009671446,0.0001187321,6,1
0.0007467355,6.330578e-05,6,1
0.0005063924,5.448452e-06,6,1
0.0002832284,-4.592625e-05,6,1
9.912221e-05,-8.255302e-05,6,1
-3.63644e-05,-9.827335e-05,6,1
-0.0001302002,-9.146661e-05,6,1
-0.0001961608,-6.715681e-05,6,1
-0.0002504527,-2.89094e-05,6,1
-0.0003036101,1.533444e-05,6,1
-0.0003523917,5.730935e-05,6,1
-0.0003864254,8.437427e-05,6,1
-0.0003919357,8.696731e-05,6,1
-0.0003642225,6.946425e-05,6,1
-0.000315765,4.483033e-05,6,1
-0.0002608248,2.295151e-05,6,1
-0.0002075054,8.041497e-06,6,1
-0.0001583996,-1.520357e-06,6,1
-0.0001067007,-8.165035e-06,6,1
-4.511593e-05,-1.237873e-05,6,1
2.76514e-05,-1.448558e-05,6,1
0.000101067,-1.545797e-05,6,1
0.0001466074,-1.886135e-05,6,1
0.0001328318,-2.307504e-05,6,1
4.709924e-05,-2.631635e-05,6,1
-9.098041e-05,-2.453363e-05,6,1
-0.0002347323,-1.140634e-05,6,1
-0.0003358611,1.776542e-05,6,1
-0.0003660052,5.455425e-05,6,1
-0.0003237062,8.340187e-05,6,1
-0.0002326255,9.31258e-05,6,1
-0.0001251762,7.30297e-05,6,1
-2.761287e-05,2.230325e-05,6,1
4.207521e-05,-4.787104e-05,6,1
8.016057e-05,-0.0001242038,6,1
9.101894e-05,-0.0001971332,6,1
8.486046e-05,-0.0002559629,6,1
7.270556e-05,-0.0002843243,6,1
5.893001e-05,-0.0002752487,6,1
4.207521e-05,-0.0002428356,6,1
1.873781e-05,-0.0002100984,6,1
-8.327101e-06,-0.0001934057,6,1
-3.425755e-05,-0.0001945401,6,1
-5.581224e-05,-0.000201671,6,1
-6.472583e-05,-0.0001979435,6,1
-5.208474e-05,-0.0001703924,6,1
-1.189254e-05,-0.0001195039,6,1
3.93201e-05,-5.872941e-05,6,1
7.432621e-05,-4.761664e-06,6,1
7.821578e-05,3.397195e-05,6,1
5.309566e-05,5.666109e-05,6,1
4.151929e-06,7.497447e-05,6,1
-7.120844e-05,0.0001041462,6,1
-0.000174282,0.0001422316,6,1
-0.0002956689,0.0001712413,6,1
-0.0004138145,0.0001761032,6,1
-0.0005021401,0.0001610312,6,1
-0.0005373082,0.0001386662,6,1
-0.0004907955,0.0001141943,6,1
-0.0003421817,8.648112e-05,6,1
-9.843541e-05,5.228533e-05,6,1
0.0001974959,7.069105e-06,6,1
0.0004747897,-5.451572e-05,6,1
0.0006669993,-0.0001326312,6,1
0.0007332841,-0.0002259808,6,1
0.0006665131,-0.0003314853,6,1
0.0005008822,-0.0004480103,6,1
0.0002926282,-0.0005642111,6,1
9.701536e-05,-0.0006627468,6,1
-5.22468e-05,-0.0007295177,6,1
-0.0001438137,-0.0007556102,6,1
-0.0001888679,-0.0007376209,6,1
-0.0002052365,-0.0006740913,6,1
-0.0002112329,-0.0005755557,6,1
-0.000224036,-0.000454817,6,1
-0.0002535319,-0.0003212752,6,1
-0.000295993,-0.0001846542,6,1
-0.0003389403,-5.22468e-05,6,1
-0.0003731361,7.221937e-05,6,1
-0.0003971218,0.0001817755,6,1
-0.000407656,0.0002715597,6,1
-0.0004066836,0.0003344411,6,1
-0.0003989045,0.0003692851,6,1
-0.0003844807,0.0003882468,6,1
-0.0003595226,0.0004065602,6,1
-0.0003227338,0.0004318424,6,1
-0.0002677937,0.0004710622,6,1
-0.0001861127,0.0005174129,6,1
-7.282909e-05,0.0005584154,6,1
6.055066e-05,0.0005801322,6,1
0.0001803169,0.0005739738,6,1
0.0002587566,0.0005431813,6,1
0.000289387,0.0004995857,6,1
0.0002783665,0.0004584211,6,1
0.000234933,0.0004300596,6,1
0.0001731861,0.0004204978,6,1
0.000110953,0.000425846,6,1
6.265751e-05,0.0004347596,6,1
3.510641e-05,0.0004331389,6,1
1.857574e-05,0.0004120704,6,1
2.04508e-06,0.0003681507,6,1
-2.485776e-05,0.0003034866,6,1
-5.953974e-05,0.000225209,6,1
-9.260107e-05,0.0001415833,6,1
-0.0001175591,5.131294e-05,6,1
-0.0001327933,-5.143648e-05,6,1
-0.0001425172,-0.0001663408,6,1
-0.0001567789,-0.0002914552,6,1
-0.000176713,-0.0004165696,6,1
-0.0001971332,-0.0005251534,6,1
-0.0002110708,-0.0006031067,6,1
-0.0002133397,-0.0006429748,6,1
-0.0002034537,-0.0006413542,6,1
-0.0001921092,-0.0006031067,6,1
-0.0001898403,-0.0005345531,6,1
-0.000206533,-0.0004433104,6,1
-0.000236353,-0.00033813,6,1
-0.0002645523,-0.0002295462,6,1
-0.0002747625,-0.0001251762,6,1
-0.0002522354,-3.571614e-05,6,1
-0.0001896782,2.943412e-05,6,1
-8.968389e-05,6.751948e-05,6,1
3.105477e-05,8.340187e-05,6,1
0.0001436902,8.907416e-05,6,1
0.000225209,9.588091e-05,6,1
0.0002670219,0.0001093323,6,1
0.0002736666,0.0001203528,6,1
0.0002654013,0.0001116012,6,1
0.0002639427,7.384002e-05,6,1
0.0002900352,1.014835e-05,6,1
0.0003496752,-6.926366e-05,6,1
0.0004250357,-0.0001473791,6,1
0.0004751139,-0.0002099363,6,1
0.000465552,-0.0002478596,6,1
0.0003901916,-0.0002549905,6,1
0.0002637806,-0.0002348944,6,1
0.0001107909,-0.0001906506,6,1
-4.495386e-05,-0.0001209625,6,1
-0.0001801163,-3.360929e-05,6,1
-0.0002770314,5.909208e-05,6,1
-0.0003175477,0.0001474177,6,1
-0.0002977757,0.0002247229,6,1
-0.000238946,0.0002882525,6,1
-0.0001689338,0.0003375204,6,1
-0.0001041077,0.0003730126,6,1
-3.085418e-05,0.0003997535,6,1
6.670914e-05,0.000425846,6,1
0.0001814514,0.0004504799,6,1
0.000282094,0.0004673347,6,1
0.0003307136,0.000470576,6,1
0.0003000832,0.0004637693,6,1
0.0001971717,0.0004495075,6,1
5.893001e-05,0.0004316803,6,1
-6.229485e-05,0.0004102877,6,1
-0.0001302002,0.0003874365,6,1
-0.000129714,0.0003634508,6,1
-6.699475e-05,0.0003427064,6,1
4.175109e-05,0.0003281205,6,1
0.0001822617,0.0003174242,6,1
0.0003469201,0.0003055935,6,1
0.0005391297,0.0002918179,6,1
0.0007621317,0.0002777182,6,1
0.001004096,0.0002628082,6,1
0.001231474,0.0002475741,6,1
0.001403263,0.0002313675,6,1
0.001486727,0.0002111094,6,1
0.00146501,0.0001874478,6,1
0.001347188,0.0001624898,6,1
0.001158058,0.0001365593,6,1
0.0009259799,0.0001114392,6,1
0.0006668373,8.712937e-05,6,1
0.0003922984,6.022653e-05,6,1
0.0001164632,3.073064e-05,6,1
-0.0001392759,3.503668e-06,6,1
-0.0003501228,-2.194059e-05,6,1
-0.0005006815,-4.787104e-05,6,1
-0.0005885208,-7.639453e-05,6,1
-0.0006314681,-0.0001092938,6,1
-0.0006573986,-0.0001412206,6,1
-0.0006937013,-0.0001660166,6,1
-0.0007488034,-0.0001838438,6,1
-0.0008102262,-0.0002006986,6,1
-0.0008517149,-0.0002227395,6,1
-0.000842153,-0.0002493182,6,1
-0.0007723029,-0.0002754107,6,1
-0.0006645294,-0.0002969654,6,1
-0.0005622663,-0.0003160891,6,1
-0.0004988988,-0.0003399127,6,1
-0.0004847991,-0.0003713534,6,1
-0.0005089468,-0.000410087,6,1
-0.000551732,-0.0004491447,6,1
-0.0005927345,-0.0004813957,6,1
-0.0006144513,-0.0005006815,6,1
-0.0005972724,-0.0005026262,6,1
-0.0005296912,-0.0004899852,6,1
-0.0004167317,-0.0004668098,6,1
-0.0002802727,-0.0004381243,6,1
-0.00015451,-0.0004074939,6,1
-7.153257e-05,-0.000372974,6,1
-4.608832e-05,-0.0003374817,6,1
-6.650855e-05,-0.0003037722,6,1
-0.0001058904,-0.0002758969,6,1
-0.0001405724,-0.0002533699,6,1
-0.0001571031,-0.0002303566,6,1
-0.00015451,-0.0002018331,6,1
-0.0001428413,-0.0001686097,6,1
-0.0001280934,-0.0001363587,6,1
-0.0001079973,-0.0001075111,6,1
-7.444975e-05,-8.498399e-05,6,1
-1.740276e-05,-6.683268e-05,6,1
6.314371e-05,-4.85193e-05,6,1
0.0001563313,-2.550602e-05,6,1
0.0002372019,-6.176923e-08,6,1
0.000282256,2.068259e-05,6,1
0.0002851732,3.332369e-05,6,1
0.0002736666,3.705119e-05,6,1
0.0002940868,3.60788e-05,6,1
0.00038614,3.656499e-05,6,1
0.0005589016,4.483033e-05,6,1
0.0007823899,6.233338e-05,6,1
0.0009938853,8.648112e-05,6,1
0.001118352,0.0001103047,6,1
0.001110735,0.0001271595,6,1
0.00097071,0.000135749,6,1
0.0007350668,0.0001406109,6,1
0.0004608521,0.0001461212,6,1
0.0001976579,0.0001529279,6,1
-2.339918e-05,0.0001615174,6,1
-0.0001963229,0.0001728619,6,1
-0.0003309991,0.0001833962,6,1
-0.0004365036,0.0001944166,6,1
-0.0005167259,0.0002093267,6,1
-0.0005716661,0.0002295848,6,1
-0.000591276,0.0002504913,6,1
-0.0005655076,0.0002649151,6,1
-0.0004890127,0.0002694529,6,1
-0.0003702189,0.000259891,6,1
-0.0002360289,0.0002337985,6,1
-0.0001298761,0.0001926339,6,1
-8.498399e-05,0.000145635,6,1
-0.0001083214,0.0001026876,6,1
-0.0001901644,6.427817e-05,6,1
-0.0003037722,2.619281e-05,6,1
-0.0004045768,-1.805102e-05,6,1
-0.0004509274,-6.569822e-05,6,1
-0.0004209454,-0.0001078352,6,1
-0.0003134961,-0.0001384655,6,1
-0.000142031,-0.0001535376,6,1
6.897806e-05,-0.0001504584,6,1
0.0002806354,-0.0001279313,6,1
0.0004480489,-9.098041e-05,6,1
0.0005311884,-4.268495e-05,6,1
0.0005187094,9.338019e-06,6,1
0.00043087,5.439218e-05,6,1
0.0002966799,8.161915e-05,6,1
0.0001312112,8.712937e-05,6,1
-7.363943e-05,7.367795e-05,6,1
-0.0003188442,4.564065e-05,6,1
-0.000581552,2.855407e-06,6,1
-0.0008236776,-5.483985e-05,6,1
-0.001010215,-0.0001191798,6,1
-0.001119123,-0.0001780095,6,1
-0.001145863,-0.0002193361,6,1
-0.001100971,-0.0002365151,6,1
-0.001004705,-0.0002272773,6,1
-0.0008860728,-0.0001951884,6,1
-0.0007757063,-0.0001488377,6,1
-0.0006933771,-9.956988e-05,6,1
-0.0006424887,-5.872941e-05,6,1
-0.0006199615,-3.344723e-05,6,1
-0.000616072,-2.583016e-05,6,1
-0.0006230408,-3.425755e-05,6,1
-0.0006308199,-5.22468e-05,6,1
-0.0006201236,-7.477388e-05,6,1
-0.0005752315,-9.843541e-05,6,1
-0.0004830164,-0.0001151281,6,1
-0.0003485022,-0.0001204763,6,1
-0.0001995642,-0.0001146419,6,1
-6.845333e-05,-9.859748e-05,6,1
2.34377e-05,-7.995997e-05,6,1
7.092284e-05,-6.796714e-05,6,1
9.604298e-05,-7.056019e-05,6,1
0.0001252147,-8.903562e-05,6,1
0.0001806411,-0.0001141558,6,1
0.000289387,-0.0001324691,6,1
0.0004835413,-0.0001316588,6,1
0.0007917897,-0.0001089697,6,1
0.001206678,-6.91016e-05,6,1
0.001673751,-2.583016e-05,6,1
0.00211457,8.851824e-06,6,1
0.00245345,2.959619e-05,6,1
0.002633019,4.175109e-05,6,1
0.002630912,5.61749e-05,6,1
0.00246836,8.04847e-05,6,1
0.002205651,0.0001182459,6,1
0.001910691,0.0001667035,6,1
0.0016321,0.0002195368,6,1
0.001384787,0.0002688046,6,1
0.001158544,0.0003128864,6,1
0.0009382969,0.0003535648,6,1
0.000718374,0.0003900295,6,1
0.0005050959,0.0004208219,6,1
0.0003098072,0.0004478869,6,1
0.0001487142,0.000473007,6,1
3.251336e-05,0.0004989374,6,1
-3.766092e-05,0.0005232473,6,1
-7.428769e-05,0.000539778,6,1
-9.827335e-05,0.00053994,6,1
-0.0001267968,0.0005200059,6,1
-0.000171851,0.0004824068,6,1
-0.0002392702,0.0004341113,6,1
-0.0003237062,0.0003846814,6,1
-0.0004128421,0.000339303,6,1
-0.0004906334,0.0002974902,6,1
-0.0005444391,0.0002527602,6,1
-0.0005687489,0.0001949028,6,1
-0.0005734488,0.0001145184,6,1
-0.0005856037,9.824215e-06,6,1
-0.0006275786,-0.0001161005,6,1
-0.0007066664,-0.0002494803,6,1
-0.0008086055,-0.0003742705,6,1
-0.0009021172,-0.0004718339,6,1
-0.0009593263,-0.0005249913,6,1
-0.0009701846,-0.0005290429,6,1
-0.0009335579,-0.0004933886,6,1
-0.0008475012,-0.0004339106,6,1
-0.0007199558,-0.0003640605,6,1
-0.0005732867,-0.0002925897,6,1
-0.0004394208,-0.0002243602,6,1
-0.0003485022,-0.0001635857,6,1
-0.0003164132,-0.000112373,6,1
-0.0003400748,-7.688073e-05,6,1
-0.0004031182,-6.375344e-05,6,1
-0.0004757234,-6.991193e-05,6,1
-0.0005363359,-8.352541e-05,6,1
-0.0005719902,-9.260107e-05,6,1
-0.000571504,-9.179074e-05,6,1
-0.0005298533,-8.563225e-05,6,1
-0.0004583824,-8.158062e-05,6,1
-0.0003796187,-8.07703e-05,6,1
-0.0003134961,-8.320128e-05,6,1
-0.0002731418,-8.611845e-05,6,1
-0.0002546664,-9.049421e-05,6,1
-0.0002370013,-9.503204e-05,6,1
-0.0002018331,-0.0001007043,6,1
-0.0001473791,-0.0001068628,6,1
-8.40116e-05,-0.0001115627,6,1
-2.0482e-05,-0.0001120489,6,1
4.936815e-05,-0.0001099421,6,1
0.0001271595,-0.0001079973,6,1
0.0001924718,-0.0001086455,6,1
0.0002128921,-0.0001110765,6,1
0.0001715654,-0.0001118868,6,1
7.853991e-05,-0.0001078352,6,1
-3.231277e-05,-9.616651e-05,6,1
-0.0001230693,-7.995997e-05,6,1
-0.0001741199,-6.586029e-05,6,1
-0.0001874093,-5.662256e-05,6,1
-0.0001713648,-5.127441e-05,6,1
-0.0001340898,-4.949169e-05,6,1
-8.433573e-05,-5.159854e-05,6,1
-3.020592e-05,-5.581224e-05,6,1
2.76514e-05,-5.759496e-05,6,1
8.826383e-05,-5.532604e-05,6,1
0.0001508211,-4.641245e-05,6,1
0.0002133783,-2.89094e-05,6,1
0.0002778803,-5.57199e-06,6,1
0.0003446512,1.889987e-05,6,1
0.0004025085,3.834771e-05,6,1
0.0004311941,4.920609e-05,6,1
0.0004106118,5.050261e-05,6,1
0.0003378445,5.050261e-05,6,1
0.0002292607,5.61749e-05,6,1
0.000110953,7.238143e-05,6,1
1.22552e-05,0.0001038221,6,1
-4.706071e-05,0.0001514693,6,1
-6.521203e-05,0.0002096508,6,1
-5.305713e-05,0.0002689667,6,1
-2.664048e-05,0.0003185587,6,1
-5.085794e-06,0.0003512959,6,1
-5.247859e-06,0.0003624784,6,1
-3.21507e-05,0.000353889,6,1
-7.65566e-05,0.0003287688,6,1
-0.0001144799,0.0002973281,6,1
-0.0001235555,0.0002691288,6,1
-8.82253e-05,0.0002568118,6,1
-3.627206e-06,0.0002663737,6,1
0.0001273216,0.0002923041,6,1
0.0002937627,0.0003245551,6,1
0.0004613383,0.0003584268,6,1
0.000577215,0.0003927847,6,1
0.0005930975,0.0004251977,6,1
0.0004950479,0.0004477248,6,1
0.0003132105,0.0004566384,6,1
0.000103498,0.0004566384,6,1
-7.979791e-05,0.0004490213,6,1
-0.000206695,0.0004329769,6,1
-0.0002794623,0.0004073705,6,1
-0.0003196545,0.0003697714,6,1
-0.0003523917,0.0003219621,6,1
-0.0003781601,0.0002658874,6,1
-0.0003744326,0.0002070577,6,1
-0.0003259751,0.0001462832,6,1
-0.0002295462,7.951231e-05,6,1
-8.871149e-05,-8.720959e-07,6,1
9.555677e-05,-9.341139e-05,6,1
0.0003049452,-0.0001838438,6,1
0.0004943996,-0.0002559629,6,1
0.0006151384,-0.0003018274,6,1
0.0006433378,-0.0003300267,6,1
0.0005901803,-0.0003574158,6,1
0.0004932652,-0.0003930701,6,1
0.0004068843,-0.0004365036,6,1
0.0003841952,-0.0004773441,6,1
0.0004478869,-0.0005082985,6,1
0.0005793219,-0.0005313118,6,1
0.0007318255,-0.0005530285,6,1
0.0008486747,-0.0005796073,6,1
0.0008843291,-0.0006157478,6,1
0.0008125341,-0.000658371,6,1
0.0006391241,-0.0006987253,6,1
0.0004018603,-0.0007196317,6,1
0.000160707,-0.0007053699,6,1
-1.918548e-05,-0.000650754,6,1
-9.600444e-05,-0.0005619422,6,1
-7.461182e-05,-0.000452386,6,1
2.369211e-06,-0.0003416954,6,1
8.275361e-05,-0.000248832,6,1
0.0001261871,-0.0001789819,6,1
0.0001107909,-0.0001300382,6,1
3.575467e-05,-9.681477e-05,6,1
-9.179074e-05,-7.704279e-05,6,1
-0.0002590421,-6.667062e-05,6,1
-0.000449955,-6.083626e-05,6,1
-0.0006394094,-5.386745e-05,6,1
-0.000804878,-4.722278e-05,6,1
-0.0009330717,-4.317115e-05,6,1
-0.001014266,-4.462973e-05,6,1
-0.001039386,-5.095028e-05,6,1
-0.001009242,-6.06742e-05,6,1
-0.0009325854,-6.974985e-05,6,1
-0.0008227052,-7.542214e-05,6,1
-0.000695646,-7.526008e-05,6,1
-0.0005638869,-6.926366e-05,6,1
-0.0004381243,-6.099833e-05,6,1
-0.0003254889,-5.338126e-05,6,1
-0.0002293842,-4.738484e-05,6,1
-0.0001465688,-4.398147e-05,6,1
-6.861539e-05,-4.219875e-05,6,1
1.663096e-05,-4.025397e-05,6,1
0.0001197045,-3.150244e-05,6,1
0.0002417397,-1.432352e-05,6,1
0.0003728506,6.90704e-06,6,1
0.0004940755,2.992031e-05,6,1
0.0005861287,5.309566e-05,6,1
0.0006443101,7.546067e-05,6,1
0.0006801266,9.507057e-05,6,1
0.0007161052,0.0001132219,6,1
0.000765373,0.000135749,6,1
0.0008235546,0.0001686482,6,1
0.0008760638,0.0002140265,6,1
0.0009071803,0.0002692908,6,1
0.0009068561,0.0003256896,6,1
0.0008652053,0.0003726885,6,1
0.0007734763,0.0004021844,6,1
0.0006331276,0.0004169324,6,1
0.0004524247,0.0004192013,6,1
0.0002487085,0.000411098,6,1
4.207521e-05,0.0003952156,6,1
-0.0001496481,0.0003772264,6,1
-0.0003126857,0.0003626405,6,1
-0.0004389346,0.0003593992,6,1
-0.0005321222,0.0003702575,6,1
-0.0006042412,0.0003919743,6,1
-0.0006653398,0.0004162841,6,1
-0.000715418,0.0004389733,6,1
-0.0007468587,0.0004530729,6,1
-0.000757555,0.0004545315,6,1
-0.0007483172,0.0004441593,6,1
-0.0007231971,0.0004224426,6,1
-0.0006915944,0.0003953777,6,1
-0.0006577228,0.0003694472,6,1
-0.0006233649,0.0003532407,6,1
-0.0005872243,0.0003431926,6,1
-0.0005478425,0.0003300653,6,1
-0.0005081365,0.0003088348,6,1
-0.0004750752,0.0002833905,6,1
-0.0004569239,0.0002619979,6,1
-0.0004544929,0.0002467637,6,1
-0.0004591928,0.000234933,6,1
-0.0004604893,0.0002242366,6,1
-0.0004475241,0.0002132162,6,1
-0.0004155972,0.0001968476,6,1
-0.0003669776,0.0001714034,6,1
-0.0003097686,0.0001389903,6,1
-0.0002498044,9.798775e-05,6,1
-0.000186761,4.742337e-05,6,1
-0.0001199901,-1.351319e-05,6,1
-5.192267e-05,-8.579432e-05,6,1
8.689758e-06,-0.0001686097,6,1
5.698522e-05,-0.0002658489,6,1
0.0001017153,-0.0003749188,6,1
0.0001553589,-0.0004789647,6,1
0.0002158093,-0.0005574043,6,1
0.0002675081,-0.000593869,6,1
0.0002961937,-0.0005881967,6,1
0.0002953834,-0.0005484907,6,1
0.000264753,-0.0004903093,6,1
0.0002078681,-0.0004271038,6,1
0.0001325077,-0.0003669776,6,1
4.790957e-05,-0.0003143064,6,1
-3.895745e-05,-0.0002720074,6,1
-0.0001212866,-0.0002418632,6,1
-0.0001901644,-0.0002201465,6,1
-0.0002425115,-0.0001984297,6,1
-0.0002791382,-0.0001712027,6,1
-0.0002976137,-0.0001434896,6,1
-0.0002815692,-0.000122097,6,1
-0.0002097743,-0.0001112386,6,1
-7.850138e-05,-0.0001112386,6,1
8.502253e-05,-0.0001243659,6,1
0.0002284504,-0.0001507825,6,1
0.0002999212,-0.0001896782,6,1
0.000282094,-0.0002399184,6,1
0.0001966855,-0.0002974516,6,1
8.664318e-05,-0.0003600088,6,1
-3.858999e-07,-0.0004209454,6,1
-1.594417e-05,-0.0004713477,6,1
7.238143e-05,-0.0004971161,6,1
0.0002657254,-0.0004873921,6,1
0.0005295678,-0.0004403932,6,1
0.0008057273,-0.0003614674,6,1
0.001030674,-0.0002606628,6,1
0.001160813,-0.000152079,6,1
0.001176371,-4.965376e-05,6,1
0.001071029,3.591673e-05,6,1
0.0008603434,9.960841e-05,6,1
0.0005885597,0.0001423936,6,1
0.0003187208,0.0001717275,6,1
0.000110953,0.0001947408,6,1
-5.57199e-06,0.0002180782,6,1
-3.63644e-05,0.0002389846,6,1
-1.221667e-05,0.0002540567,6,1
3.267542e-05,0.0002628082,6,1
6.978839e-05,0.000267184,6,1
8.226741e-05,0.000269777,6,1
6.330578e-05,0.0002752873,6,1
1.517237e-05,0.0002858215,6,1
-5.483985e-05,0.0003013798,6,1
-0.0001400862,0.0003187208,6,1
-0.0002415391,0.0003310377,6,1
-0.000350447,0.0003362238,6,1
-0.0004488206,0.0003342791,6,1
-0.0005151053,0.0003209897,6,1
-0.0005386047,0.0002965178,6,1
-0.0005175362,0.0002634565,6,1
-0.0004580583,0.0002242366,6,1
-0.0003664914,0.0001775618,6,1
-0.0002436459,0.0001257009,6,1
-9.568031e-05,7.6271e-05,6,1
6.751948e-05,3.591673e-05,6,1
0.0002268297,7.717366e-06,6,1
0.000356482,-7.354709e-06,6,1
0.0004311941,-1.010982e-05,6,1
0.0004310321,-4.275467e-06,6,1
0.000349027,7.555301e-06,6,1
0.0002039785,2.052053e-05,6,1
3.575467e-05,3.073064e-05,6,1
-0.0001096179,3.494434e-05,6,1
-0.0001987538,3.202716e-05,6,1
-0.0002209568,2.684107e-05,6,1
-0.0001914609,2.538249e-05,6,1
-0.0001465688,2.781346e-05,6,1
-0.0001186936,3.299956e-05,6,1
-0.0001206384,3.818565e-05,6,1
-0.0001410586,3.98063e-05,6,1
-0.0001605064,3.867184e-05,6,1
-0.0001608306,3.526847e-05,6,1
-0.0001363587,2.894792e-05,6,1
-9.098041e-05,1.727922e-05,6,1
-3.069211e-05,-7.100305e-07,6,1
3.705119e-05,-2.46957e-05,6,1
0.0001005808,-5.127441e-05,6,1
0.0001401247,-7.720486e-05,6,1
0.0001305629,-9.649064e-05,6,1
6.249545e-05,-0.0001091317,6,1
-4.738484e-05,-0.0001183694,6,1
-0.00015451,-0.0001285796,6,1
-0.0002076674,-0.0001423551,6,1
-0.0001802784,-0.0001559686,6,1
-7.720486e-05,-0.0001645581,6,1
8.04847e-05,-0.0001642339,6,1
0.0002757735,-0.0001556445,6,1
0.000500396,-0.0001438137,6,1
0.0007418735,-0.0001310105,6,1
0.0009783271,-0.0001169109,6,1
0.001182368,-0.0001016767,6,1
0.00132774,-8.984595e-05,6,1
0.001390298,-8.125649e-05,6,1
0.001358209,-7.412562e-05,6,1
0.001231474,-7.007399e-05,6,1
0.001013657,-7.120844e-05,6,1
0.0007237222,-7.623246e-05,6,1
0.0004025085,-7.995997e-05,6,1
9.733949e-05,-8.40116e-05,6,1
-0.0001572651,-8.806324e-05,6,1
-0.0003467195,-9.405965e-05,6,1
-0.0004710235,-9.989401e-05,6,1
-0.0005423322,-0.0001029732,6,1
-0.0005828486,-0.0001010285,6,1
-0.0006116962,-9.227693e-05,6,1
-0.000638599,-7.396356e-05,6,1
-0.0006622606,-4.446767e-05,6,1
-0.000675712,-1.027188e-05,6,1
-0.0006687432,1.906194e-05,6,1
-0.0006270924,3.299956e-05,6,1
-0.0005458977,2.457216e-05,6,1
-0.0004360174,-2.168618e-06,6,1
-0.0003237062,-3.587821e-05,6,1
-0.0002370013,-6.197072e-05,6,1
-0.0001924333,-6.81292e-05,6,1
-0.0001900023,-5.095028e-05,6,1
-0.0002248464,-1.383732e-05,6,1
-0.0002878898,3.348575e-05,6,1
-0.0003614674,7.740546e-05,6,1
-0.0004254832,0.0001051186,6,1
-0.0004668098,0.0001172735,6,1
-0.0004805854,0.0001232699,6,1
-0.0004690787,0.0001278078,6,1
-0.0004416897,0.0001310491,6,1
-0.0004060354,0.0001349386,6,1
-0.000365357,0.0001419075,6,1
-0.0003277578,0.0001571416,6,1
-0.0002974516,0.0001812893,6,1
-0.00027849,0.0002111094,6,1
-0.0002767073,0.0002435224,6,1
-0.0002968033,0.0002788527,6,1
-0.0003442885,0.0003127243,6,1
-0.0004215936,0.0003404375,6,1
-0.000524181,0.000356482,6,1
-0.0006390853,0.0003628026,6,1
-0.0007500999,0.000361506,6,1
-0.0008424772,0.000356482,6,1
-0.0009026034,0.0003532407,6,1
-0.0009202685,0.0003509718,6,1
-0.0008831556,0.0003459477,6,1
-0.000787375,0.0003344411,6,1
-0.0006402197,0.0003183966,6,1
-0.0004591928,0.0002978143,6,1
-0.0002566112,0.0002676702,6,1
-3.668853e-05,0.000225209,6,1
0.0002054371,0.0001717275,6,1
0.0004807861,0.0001120874,6,1
0.0007692626,5.358185e-05,6,1
0.001025002,3.017472e-06,6,1
0.001215915,-3.944364e-05,6,1
0.00135124,-7.493595e-05,6,1
0.001453017,-0.0001079973,6,1
0.001525136,-0.0001439758,6,1
0.001545233,-0.0001856265,6,1
0.001489158,-0.0002353806,6,1
0.001344271,-0.0002927517,6,1
0.001122241,-0.0003562813,6,1
0.0008632605,-0.0004185144,6,1
0.0006211348,-0.0004674581,6,1
0.0004373526,-0.0005040849,6,1
0.0003203414,-0.0005290429,6,1
0.0002490327,-0.000539091,6,1
0.0001843686,-0.0005300153,6,1
9.507057e-05,-0.0005006815,6,1
-3.020592e-05,-0.0004517378,6,1
-0.000176713,-0.0003899909,6,1
-0.0003146305,-0.000325651,6,1
-0.0004160834,-0.0002689281,6,1
-0.0004706994,-0.0002253326,6,1
-0.0004825302,-0.0001919471,6,1
-0.0004684305,-0.0001660166,6,1
-0.0004384484,-0.0001457585,6,1
-0.000397608,-0.0001323071,6,1
-0.0003452609,-0.0001331174,6,1
-0.000285945,-0.0001506204,6,1
-0.0002287359,-0.0001828714,6,1
-0.0001893541,-0.000221605,6,1
-0.0001828714,-0.0002554767,6,1
-0.0002147983,-0.0002718453,6,1
-0.0002780038,-0.0002668213,6,1
-0.0003557951,-0.0002373254,6,1
-0.0004196489,-0.0001851404,6,1
-0.0004436345,-0.0001120489,6,1
-0.0004136524,-2.907146e-05,6,1
-0.0003366714,4.807163e-05,6,1
-0.0002269532,0.0001088461,6,1
-0.0001099421,0.0001495245,6,1
-6.868513e-06,0.0001720516,6,1
7.173317e-05,0.0001830721,6,1
0.0001263492,0.0001913374,6,1
0.0001573037,0.000202844,6,1
0.0001699448,0.0002232643,6,1
0.0001772377,0.0002535705,6,1
0.0001981441,0.0002861456,6,1
0.0002367157,0.0003047831,6,1
0.0002811216,0.000299597,6,1
0.0003096451,0.0002707494,6,1
0.0003075383,0.0002261814,6,1
0.0002752873,0.0001756171,6,1
0.0002182402,0.0001276457,6,1
0.0001490383,8.891209e-05,6,1
8.064677e-05,6.427817e-05,6,1
1.825161e-05,5.358185e-05,6,1
-4.689865e-05,4.82337e-05,6,1
-0.0001203142,3.93201e-05,6,1
-0.0001964849,2.522042e-05,6,1
-0.0002590421,1.419998e-05,6,1
-0.0002924276,1.565857e-05,6,1
-0.0002864312,3.235129e-05,6,1
-0.0002423494,6.298164e-05,6,1
-0.0001737958,0.0001031738,6,1
-0.0001044318,0.000150659,6,1
-6.407757e-05,0.0001997648,6,1
-6.926366e-05,0.0002414156,6,1
-0.0001144799,0.0002637806,6,1
-0.0001760647,0.0002641047,6,1
-0.0002319772,0.0002478982,6,1
-0.0002673075,0.0002279642,6,1
-0.0002767073,0.0002164575,6,1
-0.0002616352,0.0002174299,6,1
-0.0002266291,0.000232502,6,1
-0.0001823853,0.0002547049,6,1
-0.0001378173,0.0002764217,6,1
-0.0001021629,0.0002906835,6,1
-7.639453e-05,0.0002966799,6,1
-5.937768e-05,0.0002944109,6,1
-4.625038e-05,0.0002838767,6,1
-3.377136e-05,0.0002668598,6,1
-1.967167e-05,0.0002514636,6,1
2.531276e-06,0.0002372019,6,1
3.154097e-05,0.0002167816,6,1
5.649903e-05,0.0001816135,6,1
6.330578e-05,0.0001242423,6,1
5.19612e-05,4.483033e-05,6,1
3.364782e-05,-5.32192e-05,6,1
1.987227e-05,-0.0001592099,6,1
2.311357e-05,-0.0002682799,6,1
5.747142e-05,-0.0003726499,6,1
0.0001346145,-0.0004645409,6,1
0.0002495189,-0.0005368221,6,1
0.0003765781,-0.0005849554,6,1
0.0004817585,-0.0006091032,6,1
0.0005433434,-0.000611048,6,1
0.0005558224,-0.0005925725,6,1
0.0005290816,-0.000554163,6,1
0.0004757621,-0.0004935506,6,1
0.0004062361,-0.000415111,6,1
0.0003290929,-0.0003292164,6,1
0.0002478982,-0.0002460769,6,1
0.0001701068,-0.0001775233,6,1
0.0001077117,-0.0001248521,6,1
7.238143e-05,-8.417367e-05,6,1
6.379197e-05,-5.435365e-05,6,1
7.027458e-05,-3.68506e-05,6,1
7.951231e-05,-2.777494e-05,6,1
7.643307e-05,-1.983374e-05,6,1
5.552663e-05,-8.327101e-06,6,1
2.619281e-05,5.124321e-06,6,1
-2.238346e-07,2.246531e-05,6,1
-2.0482e-05,4.304761e-05,6,1
-2.874733e-05,6.541262e-05,6,1
-1.335113e-05,8.016057e-05,6,1
3.267542e-05,8.518459e-05,6,1
0.000103498,8.46984e-05,6,1
0.000180479,8.226741e-05,6,1
0.0002397949,7.967438e-05,6,1
0.0002610255,7.90261e-05,6,1
0.0002352571,8.291568e-05,6,1
0.0001707551,9.296373e-05,6,1
8.534666e-05,0.0001093323,6,1
2.531276e-06,0.0001281319,6,1
-5.208474e-05,0.0001469315,6,1
-5.386745e-05,0.0001678379,6,1
6.258778e-06,0.0001944166,6,1
0.0001098185,0.000225047,6,1
0.0002205092,0.0002521119,6,1
0.0003064038,0.0002696149,6,1
0.0003487029,0.0002782044,6,1
0.0003404375,0.0002832284,6,1
0.0002856594,0.0002905214,6,1
0.0001984683,0.0003033245,6,1
8.972242e-05,0.0003200173,6,1
-3.344723e-05,0.000339303,6,1
-0.0001614788,0.0003632887,6,1
-0.0002862691,0.0003955397,6,1
-0.0004014975,0.0004367043,6,1
-0.0004930644,0.0004798138,6,1
-0.0005455735,0.0005135234,6,1
-0.0005468701,0.0005321609,6,1
-0.0004925782,0.0005439916,6,1
-0.0003950149,0.0005618189,6,1
-0.0002744383,0.0005888838,6,1
-0.0001517549,0.0006136798,6,1
-4.560212e-05,0.0006222692,6,1
2.81376e-05,0.0006046041,6,1
5.876794e-05,0.00055955,6,1
4.483033e-05,0.0004911583,6,1
-3.14101e-06,0.0004031568,6,1
-6.926366e-05,0.0003030004,6,1
-0.0001366828,0.0001939304,6,1
-0.0001820611,8.04847e-05,6,1
-0.0001759026,-3.571614e-05,6,1
-9.908367e-05,-0.0001553203,6,1
3.786152e-05,-0.0002822175,6,1
0.0001984683,-0.0004181903,6,1
0.000341572,-0.0005564319,6,1
0.0004287631,-0.0006821946,6,1
0.0004427008,-0.0007867267,6,1
0.0003877606,-0.0008646801,6,1
0.0002887387,-0.0009126515,6,1
0.0001739964,-0.0009259408,6,1
6.606088e-05,-0.0009097343,6,1
-2.275091e-05,-0.0008708386,6,1
-8.741498e-05,-0.0008163847,6,1
-0.0001303623,-0.000752693,6,1
-0.0001567789,-0.000685436,6,1
-0.000166989,-0.0006175305,6,1
-0.0001673132,-0.0005502735,6,1
-0.0001671511,-0.0004867439,6,1
-0.0001770371,-0.0004298589,6,1
-0.000206695,-0.0003844807,6,1
-0.0002570974,-0.0003481781,6,1
-0.0003267854,-0.0003167374,6,1
-0.0004204592,-0.0002877277,6,1
-0.0005394151,-0.0002601766,6,1
-0.0006716604,-0.0002340841,6,1
-0.0007833233,-0.0002136638,6,1
-0.0008405324,-0.0002002124,6,1
-0.0008353463,-0.0001872472,6,1
-0.0007883473,-0.0001666649,6,1
-0.0007309763,-0.0001396,6,1
-0.000690622,-0.0001110765,6,1
-0.0006760361,-8.352541e-05,6,1
-0.0006763602,-5.759496e-05,6,1
-0.0006750637,-3.782299e-05,6,1
-0.0006637191,-3.247483e-05,6,1
-0.0006398956,-4.300908e-05,6,1
-0.0005980827,-6.521203e-05,6,1
-0.0005347152,-8.206682e-05,6,1
-0.000449793,-7.526008e-05,6,1
-0.0003499608,-4.090223e-05,6,1
-0.0002431597,1.857574e-05,6,1
-0.0001308485,9.296373e-05,6,1
-1.092015e-05,0.0001683241,6,1
0.0001143563,0.0002344468,6,1
0.0002410915,0.0002825802,6,1
0.0003584268,0.0003106175,6,1
0.0004493454,0.0003226103,6,1
0.0004952099,0.0003180725,6,1
0.0004961824,0.0002971661,6,1
0.0004699278,0.000264753,6,1
0.0004443214,0.0002282883,6,1
0.0004452938,0.0001981441,6,1
0.0004867825,0.0001820997,6,1
0.0005704083,0.0001869616,6,1
0.000690985,0.0002161334,6,1
0.0008340888,0.000262322,6,1
0.0009752478,0.000321638,6,1
0.001092583,0.0003892192,6,1
0.001171833,0.0004558281,6,1
0.001202464,0.0005089855,6,1
0.001178316,0.0005389676,6,1
0.001097121,0.0005426951,6,1
0.0009613102,0.0005222749,6,1
0.0007802831,0.0004799758,6,1
0.0005674912,0.0004141773,6,1
0.0003474063,0.0003234207,6,1
0.0001566554,0.0002112714,6,1
4.239934e-05,8.74535e-05,6,1
3.299956e-05,-3.344723e-05,6,1
0.0001138702,-0.0001313347,6,1
0.0002352571,-0.0001883817,6,1
0.0003347652,-0.0001979435,6,1
0.000363937,-0.0001697442,6,1
0.0003039728,-0.0001240417,6,1
0.0001678379,-8.174268e-05,6,1
5.86492e-07,-6.002594e-05,6,1
-0.0001439758,-6.132246e-05,6,1
-0.0002279256,-7.299116e-05,6,1
-0.0002420253,-7.574627e-05,6,1
-0.0001938919,-5.613637e-05,6,1
-9.908367e-05,-1.25408e-05,6,1
2.376183e-05,4.466826e-05,6,1
0.0001516314,9.588091e-05,6,1
0.0002616738,0.0001239182,6,1
0.0003362238,0.0001265113,6,1
0.0003644232,0.0001116012,6,1
0.0003444891,9.134307e-05,6,1
0.0002816078,8.210535e-05,6,1
0.0001892305,9.393612e-05,6,1
8.631905e-05,0.0001247285,6,1
-1.351319e-05,0.0001615174,6,1
-0.0001020008,0.0001918236,6,1
-0.0001733096,0.0002091646,6,1
-0.0002285739,0.0002133783,6,1
-0.0002713591,0.0002054371,6,1
-0.0003045825,0.0001863134,6,1
-0.0003329439,0.0001582761,6,1
-0.0003567675,0.0001205148,6,1
-0.0003747568,7.384002e-05,6,1
-0.0003791325,1.614476e-05,6,1
-0.0003614674,-5.629844e-05,6,1
-0.0003209511,-0.0001415448,6,1
-0.0002664971,-0.0002366771,6,1
-0.000208964,-0.0003399127,6,1
-0.000161965,-0.0004480103,6,1
-0.000142031,-0.0005478425,6,1
-0.0001721751,-0.0006207718,6,1
-0.0002629317,-0.0006522125,6,1
-0.00039777,-0.0006394094,6,1
-0.0005399013,-0.0005899795,6,1
-0.0006629088,-0.0005157535,6,1
-0.0007598239,-0.0004298589,6,1
-0.0008363187,-0.0003416954,6,1
-0.0008930415,-0.0002595283,6,1
-0.0009154066,-0.0001906506,6,1
-0.0008907726,-0.0001405724,6,1
-0.0008149261,-0.0001089697,6,1
-0.0007026148,-9.081835e-05,6,1
-0.0005841451,-7.817725e-05,6,1
-0.0004830164,-6.715681e-05,6,1
-0.0003979321,-5.548811e-05,6,1
-0.0003065273,-4.365734e-05,6,1
-0.000191623,-3.117831e-05,6,1
-6.132246e-05,-1.578211e-05,6,1
5.56887e-05,1.558884e-06,6,1
0.000128456,2.181705e-05,6,1
0.0001490383,4.612685e-05,6,1
0.000128294,8.097089e-05,6,1
8.567078e-05,0.0001261871,6,1
4.402e-05,0.0001783722,6,1
2.084466e-05,0.0002320158,6,1
2.327564e-05,0.0002801492,6,1
5.260946e-05,0.0003164518,6,1
0.0001174356,0.000336548,6,1
0.0002242366,0.0003405996,6,1
0.0003642611,0.0003308757,6,1
0.0005136854,0.0003065659,6,1
0.0006477135,0.0002684805,6,1
0.0007522457,0.0002158093,6,1
0.0008199891,0.0001467694,6,1
0.0008412196,6.622294e-05,6,1
0.00080751,-1.594417e-05,6,1
0.000715619,-8.887356e-05,6,1
0.0005718669,-0.0001447861,6,1
0.0004000776,-0.0001814128,6,1
0.0002307193,-0.0001909747,6,1
9.231547e-05,-0.0001679614,6,1
5.610517e-06,-0.0001135075,6,1
-2.0482e-05,-3.863332e-05,6,1
-2.81688e-06,4.094075e-05,6,1
2.894792e-05,0.0001163011,6,1
4.013043e-05,0.0001822617,6,1
1.274139e-05,0.0002376881,6,1
-4.884343e-05,0.0002838767,6,1
-0.0001357104,0.0003222862,6,1
-0.0002344082,0.000351458,6,1
-0.0003352128,0.0003709058,6,1
-0.0004279142,0.0003832228,6,1
-0.0005042469,0.0003905157,6,1
-0.0005556216,0.0003973225,6,1
-0.0005726385,0.0004029947,6,1
-0.0005510838,0.0003991052,6,1
-0.0004982505,0.0003807918,6,1
-0.0004256453,0.000346596,6,1
-0.000340561,0.0003025142,6,1
-0.0002431597,0.0002540567,6,1
-0.0001373311,0.0002025199,6,1
-3.879538e-05,0.0001527658,6,1
2.684107e-05,0.0001107909,6,1
3.883391e-05,8.129502e-05,6,1
-4.113403e-06,6.314371e-05,6,1
-8.44978e-05,5.358185e-05,6,1
-0.0001794681,4.580272e-05,6,1
-0.0002635799,3.18651e-05,6,1
-0.0003188442,9.175954e-06,6,1
-0.0003423437,-1.788895e-05,6,1
-0.0003450988,-4.414354e-05,6,1
-0.0003412093,-6.504996e-05,6,1
-0.000325813,-8.044617e-05,6,1
-0.0002789762,-9.130454e-05,6,1
-0.0001877334,-0.0001032974,6,1
-5.192267e-05,-0.0001201522,6,1
0.0001261871,-0.0001431655,6,1
0.0003321722,-0.0001754164,6,1
0.0005315126,-0.0002182017,6,1
0.0006768853,-0.0002682799,6,1
0.0007345806,-0.0003159271,6,1
0.0007021675,-0.0003569296,6,1
0.0006083316,-0.0003896668,6,1
0.0004987754,-0.0004133283,6,1
0.0004172565,-0.0004269418,6,1
0.0003845193,-0.0004271038,6,1
0.0003940812,-0.0004138145,6,1
0.0004190393,-0.0003901529,6,1
0.0004313562,-0.0003601709,6,1
0.0004120704,-0.0003318095,6,1
0.0003576164,-0.0003105789,6,1
0.0002801492,-0.0002958309,6,1
0.0002043026,-0.0002841623,6,1
0.0001529279,-0.0002689281,6,1
0.0001399627,-0.0002473734,6,1
0.0001675138,-0.0002204706,6,1
0.000225209,-0.0001938919,6,1
0.0002840388,-0.0001716889,6,1
0.0003218,-0.00015451,6,1
0.0003277964,-0.0001425172,6,1
0.0003107795,-0.0001280934,6,1
0.0002901973,-0.0001044318,6,1
0.0002906835,-6.456377e-05,6,1
0.0003279585,-1.25408e-05,6,1
0.0003945674,4.531652e-05,6,1
0.0004566384,9.912221e-05,6,1
0.0004752759,0.0001467694,6,1
0.0004389733,0.0001866375,6,1
0.0003671783,0.000217754,6,1
0.000292142,0.0002396328,6,1
0.0002409294,0.0002551911,6,1
0.0002184023,0.0002681563,6,1
0.0002091646,0.0002809595,6,1
0.0001906891,0.0002934386,6,1
0.0001352628,0.0003004074,6,1
2.975825e-05,0.0002973281,6,1
-0.0001170729,0.0002838767,6,1
-0.0002684419,0.0002660495,6,1
-0.0003596847,0.0002514636,6,1
-0.0003327818,0.0002409294,6,1
-0.0001562927,0.0002320158,6,1
0.0001391524,0.0002222919,6,1
0.0004576108,0.0002137024,6,1
0.000688554,0.0002081922,6,1
0.0007679661,0.0002020337,6,1
0.0006945504,0.0001902029,6,1
0.00051012,0.0001723757,6,1
0.0002713977,0.0001500107,6,1
3.299956e-05,0.0001253768,6,1
-0.000169258,0.0001000946,6,1
-0.0003215994,7.90261e-05,6,1
-0.000434883,6.589881e-05,6,1
-0.0005283947,6.119892e-05,6,1
-0.0006225546,6.233338e-05,6,1
-0.0007238454,6.525056e-05,6,1
-0.0008220569,6.444023e-05,6,1
-0.0009014689,5.747142e-05,6,1
-0.0009508989,4.434413e-05,6,1
-0.0009680777,2.133085e-05,6,1
-0.0009544643,-1.124428e-05,6,1
-0.0009123273,-4.738484e-05,6,1
-0.0008400462,-8.044617e-05,6,1
-0.0007423208,-0.0001081593,6,1
-0.0006337371,-0.0001258245,6,1
-0.0005363359,-0.0001305243,6,1
-0.0004627582,-0.0001276072,6,1
-0.0004099249,-0.0001263107,6,1
-0.0003582261,-0.0001314967,6,1
-0.0002937241,-0.0001459206,6,1
-0.0002219292,-0.0001708786,6,1
-0.0001671511,-0.0002086398,6,1
-0.0001481895,-0.0002598524,6,1
-0.0001720131,-0.0003217614,6,1
-0.0002246843,-0.0003870737,6,1
-0.0002702246,-0.0004457413,6,1
-0.0002755728,-0.0004899852,6,1
-0.0002350565,-0.0005154294,6,1
-0.0001760647,-0.000516888,6,1
-0.0001360346,-0.0004946851,6,1
-0.0001397621,-0.0004494688,6,1
-0.0001854645,-0.0003843186,6,1
-0.0002522354,-0.0003097686,6,1
-0.0003225718,-0.0002384598,6,1
-0.0003946908,-0.0001783336,6,1
-0.0004695649,-0.0001349001,6,1
-0.0005403875,-0.0001086455,6,1
-0.0005941931,-9.357346e-05,6,1
-0.0006257959,-8.530812e-05,6,1
-0.0006371404,-7.704279e-05,6,1
-0.0006326026,-6.504996e-05,6,1
-0.0006209339,-5.030202e-05,6,1
-0.0006108859,-3.328516e-05,6,1
-0.0006056998,-1.270286e-05,6,1
-0.0006000275,1.274139e-05,6,1
-0.0005791211,4.013043e-05,6,1
-0.000526774,6.670914e-05,6,1
-0.000435045,9.458438e-05,6,1
-0.0003128478,0.0001193804,6,1
-0.0001799543,0.0001349386,6,1
-5.467778e-05,0.0001385041,6,1
4.434413e-05,0.0001273216,6,1
0.0001098185,0.0001054428,6,1
0.0001462832,7.935024e-05,6,1
0.0001590864,6.152305e-05,6,1
0.0001495245,5.876794e-05,6,1
0.000125863,7.853991e-05,6,1
9.68533e-05,0.0001229458,6,1
8.567078e-05,0.0001846927,6,1
0.0001227837,0.0002517878,6,1
0.0002359054,0.0003085106,6,1
0.0004388112,0.0003456236,6,1
0.0007240463,0.0003683128,6,1
0.001069732,0.0003853296,6,1
0.001439566,0.0004049396,6,1
0.001787035,0.0004292493,6,1
0.002070488,0.0004521006,6,1
0.002268695,0.0004627969,6,1
0.002374362,0.0004546936,6,1
0.00238522,0.0004274666,6,1
0.002300784,0.0003830607,6,1
0.002127049,0.0003258516,6,1
0.001882491,0.0002621599,6,1
0.001594825,0.000195389,6,1
0.001291762,0.0001286181,6,1
0.0009974508,6.492643e-05,6,1
0.0007292324,7.393236e-06,6,1
0.0004981271,-3.506788e-05,6,1
0.0003086727,-5.386745e-05,6,1
0.0001597346,-4.722278e-05,6,1
4.061663e-05,-2.583016e-05,6,1
-7.137051e-05,-8.651231e-06,6,1
-0.0001887058,-6.382317e-06,6,1
-0.0002951827,-1.950961e-05,6,1
-0.0003671397,-3.879538e-05,6,1
-0.0004024699,-5.305713e-05,6,1
-0.0004212695,-5.095028e-05,6,1
-0.0004384484,-3.117831e-05,6,1
-0.0004494688,1.002961e-07,6,1
-0.0004480103,3.283749e-05,6,1
-0.0004322899,5.860588e-05,6,1
-0.0004152731,7.238143e-05,6,1
-0.00041268,7.67572e-05,6,1
-0.000430021,7.221937e-05,6,1
-0.0004595169,5.763349e-05,6,1
-0.0004898231,3.462021e-05,6,1
-0.0005157535,7.555301e-06,6,1
-0.0005411978,-1.853722e-05,6,1
-0.0005676145,-3.895745e-05,6,1
-0.0005959758,-4.511593e-05,6,1
-0.000628551,-4.090223e-05,6,1
-0.000665826,-3.539201e-05,6,1
-0.0007058561,-4.106429e-05,6,1
-0.0007421587,-5.889148e-05,6,1
-0.0007692237,-8.806324e-05,6,1
-0.0007760304,-0.0001267968,6,1
-0.0007596618,-0.0001700683,6,1
-0.000725304,-0.00021415,6,1
-0.0006815463,-0.0002501286,6,1
-0.0006358439,-0.0002705488,6,1
-0.0005940311,-0.0002742763,6,1
-0.0005572423,-0.0002664971,6,1
-0.0005175362,-0.0002561249,6,1
-0.0004689167,-0.0002543422,6,1
-0.0004139766,-0.0002663351,6,1
-0.0003515814,-0.0002883759,6,1
-0.0002757348,-0.0003144685,6,1
-0.0001822232,-0.0003412093,6,1
-7.65566e-05,-0.0003651949,6,1
4.288554e-05,-0.0003768636,6,1
0.0001799928,-0.0003692465,6,1
0.0003299033,-0.0003438023,6,1
0.0004700898,-0.0003053928,6,1
0.0005674912,-0.0002619593,6,1
0.0005948802,-0.0002156086,6,1
0.0005504743,-0.0001676373,6,1
0.0004514523,-0.0001191798,6,1
0.000321638,-6.926366e-05,6,1
0.0001803169,-1.902341e-05,6,1
4.499239e-05,2.862379e-05,6,1
-6.829127e-05,6.525056e-05,6,1
-0.0001436516,8.696731e-05,6,1
-0.0001702304,9.750156e-05,6,1
-0.0001543479,0.0001120874,6,1
-0.0001214487,0.0001425557,6,1
-9.908367e-05,0.0001911753,6,1
-0.0001015147,0.0002485465,6,1
-0.0001255003,0.0003015418,6,1
-0.0001551583,0.000341734,6,1
-0.0001687718,0.0003715541,6,1
-0.0001473791,0.0003960259,6,1
-8.498399e-05,0.0004172565,6,1
7.393236e-06,0.0004384871,6,1
0.0001075496,0.0004577728,6,1
0.0001887444,0.0004741415,6,1
0.0002326641,0.0004838654,6,1
0.0002430362,0.000480462,6,1
0.0002396328,0.0004644175,6,1
0.0002372019,0.0004448076,6,1
0.0002402811,0.0004305459,6,1
0.0002383363,0.0004201737,6,1
0.000225047,0.0004098015,6,1
0.0002140265,0.0003893813,6,1
0.0002344468,0.0003548613,6,1
0.0002968419,0.0003046211,6,1
0.0003851676,0.0002402811,6,1
0.0004728449,0.0001657311,6,1
0.0005431813,8.388807e-05,6,1
0.0005871011,-1.844488e-06,6,1
0.0005940699,-8.222889e-05,6,1
0.0005593878,-0.0001394379,6,1
0.0004884033,-0.0001632615,6,1
0.0003931088,-0.0001541859,6,1
0.0002825802,-0.0001216107,6,1
0.0001628139,-7.33153e-05,6,1
4.402e-05,-2.064406e-05,6,1
-6.456377e-05,2.76514e-05,6,1
-0.0001515928,6.735741e-05,6,1
-0.0002088019,9.571884e-05,6,1
-0.000241377,0.0001062531,6,1
-0.0002653627,9.766362e-05,6,1
-0.0002880518,7.286763e-05,6,1
-0.0003068514,3.721326e-05,6,1
-0.0003118754,-3.951337e-06,6,1
-0.0002946965,-4.43056e-05,6,1
-0.0002475355,-8.40116e-05,6,1
-0.0001760647,-0.0001250141,6,1
-9.956988e-05,-0.0001700683,6,1
-4.414354e-05,-0.0002123673,6,1
-2.631635e-05,-0.0002378116,6,1
-4.284701e-05,-0.0002342462,6,1
-7.315322e-05,-0.0001981056,6,1
-9.324933e-05,-0.0001402483,6,1
-9.179074e-05,-7.542214e-05,6,1
-6.780507e-05,-1.497178e-05,6,1
-2.955766e-05,3.105477e-05,6,1
8.041497e-06,5.536457e-05,6,1
2.554455e-05,5.504044e-05,6,1
1.501031e-05,2.927205e-05,6,1
-2.728874e-05,-2.599222e-05,6,1
-9.681477e-05,-0.0001146419,6,1
-0.0001776853,-0.0002334358,6,1
-0.0002519113,-0.0003789705,6,1
-0.0003113892,-0.0005481666,6,1
-0.0003642225,-0.0007321107,6,1
-0.0004194868,-0.0009071412,6,1
-0.0004739407,-0.001041817,6,1
-0.000501978,-0.001114423,6,1
-0.0004726442,-0.001119933,6,1
-0.0003745947,-0.001070341,6,1
-0.0002191741,-0.0009794224,6,1
-3.004385e-05,-0.0008617629,6,1
0.0001709172,-0.0007269246,6,1
0.0003632887,-0.0005856037,6,1
0.0005279472,-0.0004480103,6,1
0.0006506307,-0.0003243544,6,1
0.0007235601,-0.0002198223,6,1
0.000745439,-0.0001342519,6,1
0.000715619,-6.48879e-05,6,1
0.0006387999,-5.409925e-06,6,1
0.0005272989,4.936815e-05,6,1
0.0003991052,0.000103498,6,1
0.0002704253,0.0001509831,6,1
0.0001451488,0.0001856651,6,1
2.586868e-05,0.0002068957,6,1
-8.514606e-05,0.0002255332,6,1
-0.0001853024,0.0002521119,6,1
-0.0002674695,0.0002953834,6,1
-0.0003295405,0.0003581026,6,1
-0.0003848048,0.0004321665,6,1
-0.0004462276,0.0005023408,6,1
-0.0005151053,0.0005545259,6,1
-0.0005792832,0.0005851563,6,1
-0.0006172064,0.0005961767,6,1
-0.0006118583,0.000596825,6,1
-0.0005625904,0.0005955285,6,1
-0.0004888507,0.0005981215,6,1
-0.0004136524,0.0006047662,6,1
-0.0003501228,0.0006106006,6,1
-0.0003000446,0.000609466,6,1
-0.000248832,0.0006005525,6,1
-0.0001818991,0.0005846701,6,1
-9.19528e-05,0.0005627912,6,1
1.160693e-05,0.0005357263,6,1
0.000111115,0.0005059062,6,1
0.0001895547,0.0004733311,6,1
0.0002334744,0.0004384871,6,1
0.0002289366,0.0004020224,6,1
0.0001699448,0.0003610198,6,1
6.492643e-05,0.0003141829,6,1
-6.650855e-05,0.000264753,6,1
-0.000208964,0.0002130541,6,1
-0.0003674638,0.0001563313,6,1
-0.000544115,9.296373e-05,6,1
-0.0007150938,2.603075e-05,6,1
-0.0008457185,-4.38194e-05,6,1
-0.000909248,-0.0001110765,6,1
-0.0008982276,-0.0001702304,6,1
-0.0008236776,-0.0002212809,6,1
-0.0007045596,-0.0002652006,6,1
-0.0005632387,-0.0003029619,6,1
-0.0004121938,-0.0003287302,6,1
-0.000258718,-0.0003334301,6,1
-0.0001152902,-0.0003100927,6,1
-5.479652e-07,-0.0002606628,6,1
7.594687e-05,-0.0001951884,6,1
0.0001124116,-0.0001277692,6,1
0.0001182459,-6.991193e-05,6,1
0.0001046324,-3.21507e-05,6,1
8.988449e-05,-1.529591e-05,6,1
9.701536e-05,-1.416145e-05,6,1
0.0001391524,-1.67545e-05,6,1
0.0002073819,-1.480971e-05,6,1
0.0002882525,-5.409925e-06,6,1
0.0003645853,6.90704e-06,6,1
0.0004242253,1.322759e-05,6,1
0.0004574487,9.338019e-06,6,1
0.0004618245,-1.196227e-06,6,1
0.0004527488,-1.399939e-05,6,1
0.0004558281,-2.356124e-05,6,1
0.0004942376,-2.404744e-05,6,1
0.0005755944,-1.578211e-05,6,1
0.0007041123,-6.868513e-06,6,1
0.0008731466,-1.682422e-06,6,1
0.001044936,-3.465141e-06,6,1
0.001169564,-7.192643e-06,6,1
0.001210891,-9.299493e-06,6,1
0.001166161,-1.25408e-05,6,1
0.001058225,-1.788895e-05,6,1
0.000921118,-2.501983e-05,6,1
0.0007913035,-3.506788e-05,6,1
0.0006927677,-5.59743e-05,6,1
0.0006245382,-9.227693e-05,6,1
0.0005700842,-0.0001342519,6,1
0.0005039615,-0.0001690959,6,1
0.000411098,-0.000189192,6,1
0.0002913317,-0.000194216,6,1
0.0001573037,-0.0001909747,6,1
2.376183e-05,-0.0001862748,6,1
-8.320128e-05,-0.000186761,6,1
