EMG1,EMG2,class,user
-0.0001509446,-0.0001042698,6,1
-0.000189192,-0.0001125351,6,1
-0.0002502906,-0.0001225832,6,1
-0.000315765,-0.0001310105,6,1
-0.0003674638,-0.0001363587,6,1
-0.0003948528,-0.0001400862,6,1
-0.0003938804,-0.0001477033,6,1
-0.0003627639,-0.0001613168,6,1
-0.0003027998,-0.0001788198,6,1
-0.000206533,-0.000201671,6,1
-6.683268e-05,-0.000231329,6,1
0.0001069013,-0.0002663351,6,1
0.0002807975,-0.0003066893,6,1
0.0004112601,-0.0003514194,6,1
0.0004663623,-0.0004010113,6,1
0.0004370285,-0.0004551412,6,1
0.0003409237,-0.0005121881,6,1
0.0002145127,-0.0005658317,6,1
9.701536e-05,-0.0006056998,6,1
1.630683e-05,-0.0006197995,6,1
-2.356124e-05,-0.0005997034,6,1
-3.26369e-05,-0.0005437909,6,1
-2.566809e-05,-0.0004569239,6,1
-1.156841e-05,-0.0003494746,6,1
1.720949e-06,-0.0002399184,6,1
8.689758e-06,-0.0001387897,6,1
2.531276e-06,-5.402952e-05,6,1
-2.113026e-05,1.274139e-05,6,1
-6.083626e-05,6.427817e-05,6,1
-0.0001060525,0.0001062531,6,1
-0.0001449482,0.0001394765,6,1
-0.0001705545,0.0001652449,6,1
-0.0001760647,0.0001843686,6,1
-0.0001648822,0.0001989545,6,1
-0.0001462447,0.0002112714,6,1
-0.0001284175,0.000225209,6,1
-0.0001170729,0.0002412535,6,1
-0.0001078352,0.0002553532,6,1
-9.535618e-05,0.0002571359,6,1
-8.514606e-05,0.0002396328,6,1
-8.968389e-05,0.000205275,6,1
-0.0001243659,0.0001623277,6,1
-0.0001935677,0.0001188942,6,1
-0.0002901587,7.497447e-05,6,1
-0.0003880461,2.619281e-05,6,1
-0.0004588687,-2.907146e-05,6,1
-0.0004831784,-8.060823e-05,6,1
-0.0004601652,-0.0001185315,6,1
-0.0004060354,-0.0001417068,6,1
-0.0003416954,-0.0001515928,6,1
-0.0002805968,-0.0001457585,6,1
-0.0002250084,-0.0001201522,6,1
-0.000169258,-7.752899e-05,6,1
-0.0001096179,-2.291298e-05,6,1
-4.122636e-05,3.413401e-05,6,1
4.175109e-05,8.356394e-05,6,1
0.0001517934,0.0001200286,6,1
0.0002952213,0.0001420695,6,1
0.0004645796,0.000155521,6,1
0.0006394482,0.0001691344,6,1
0.0008010275,0.0001869616,6,1
0.0009306798,0.0002043026,6,1
0.001014468,0.0002195368,6,1
0.001044126,0.0002323399,6,1
0.001018681,0.0002404432,6,1
0.0009451036,0.0002419018,6,1
0.0008332785,0.0002370398,6,1
0.0006956849,0.0002308813,6,1
0.0005507984,0.0002260194,6,1
0.0004114222,0.000225209,6,1
0.0002806354,0.0002273159,6,1
0.0001584381,0.0002295848,6,1
4.904402e-05,0.0002341226,6,1
-4.576419e-05,0.0002391467,6,1
-0.0001300382,0.0002381743,6,1
-0.0002005366,0.0002239125,6,1
-0.0002509389,0.0001984683,6,1
-0.0002820554,0.0001649207,6,1
-0.0002977757,0.0001294284,6,1
-0.0002961551,9.960841e-05,6,1
-0.0002702246,7.789165e-05,6,1
-0.0002198223,6.379197e-05,6,1
-0.0001624512,5.844381e-05,6,1
-0.000127283,6.103686e-05,6,1
-0.0001303623,6.330578e-05,6,1
-0.000166989,5.552663e-05,6,1
-0.000221605,2.473423e-05,6,1
-0.0002802727,-3.522994e-05,6,1
-0.0003423437,-0.0001259865,6,1
-0.0004018217,-0.0002379736,6,1
-0.0004433104,-0.00035304,6,1
-0.0004517378,-0.0004535205,6,1
-0.0004233763,-0.0005235327,6,1
-0.0003690845,-0.0005559457,6,1
-0.0003045825,-0.0005501114,6,1
-0.0002421874,-0.0005172121,6,1
-0.0001937298,-0.0004711856,6,1
-0.0001695821,-0.0004211074,6,1
-0.000164396,-0.0003715154,6,1
-0.0001647201,-0.0003204649,6,1
-0.0001645581,-0.0002689281,6,1
-0.0001695821,-0.0002209568,6,1
-0.0001788198,-0.0001781716,6,1
-0.0001810887,-0.0001392759,6,1
-0.0001642339,-0.0001003802,6,1
-0.0001235555,-6.148453e-05,6,1
-5.937768e-05,-2.858527e-05,6,1
2.035846e-05,-6.706447e-06,6,1
9.604298e-05,5.610517e-06,6,1
0.0001469315,1.209313e-05,6,1
0.0001683241,1.857574e-05,6,1
0.0001667035,2.894792e-05,6,1
0.0001657311,4.547859e-05,6,1
0.0001825859,7.076078e-05,6,1
0.0002193747,9.977047e-05,6,1
0.0002666978,0.0001240803,6,1
0.0003174242,0.0001362352,6,1
0.0003660439,0.0001362352,6,1
0.0004217943,0.0001257009,6,1
0.0004934272,0.0001119254,6,1
0.0005840218,0.00010366,6,1
0.0006971435,0.0001081979,6,1
0.0008306854,0.0001269974,6,1
0.0009648756,0.0001582761,6,1
0.001063087,0.0001976579,6,1
0.001092097,0.0002412535,6,1
0.001032943,0.0002859836,6,1
0.0008861118,0.0003269861,6,1
0.0006744543,0.0003632887,6,1
0.0004384871,0.0003901916,6,1
0.0002232643,0.000408505,6,1
5.779555e-05,0.0004190393,6,1
-5.208474e-05,0.0004264942,6,1
-0.0001233935,0.0004318424,6,1
-0.0001715269,0.0004342734,6,1
-0.0002029675,0.0004313562,6,1
-0.0002235498,0.000418391,6,1
-0.0002429977,0.0003950536,6,1
-0.0002724935,0.0003595612,6,1
-0.0003220855,0.0003128864,6,1
-0.0003964735,0.0002534084,6,1
-0.0004836646,0.0001782101,6,1
-0.0005643732,9.247754e-05,6,1
-0.0006168823,7.393236e-06,6,1
-0.0006270924,-6.780507e-05,6,1
-0.0005937069,-0.0001302002,6,1
-0.0005340669,-0.0001848162,6,1
-0.0004776682,-0.0002350565,6,1
-0.0004460655,-0.000276059,6,1
-0.0004444448,-0.000303286,6,1
-0.0004689167,-0.0003121996,6,1
-0.000509433,-0.0003019894,6,1
-0.0005552975,-0.0002723315,6,1
-0.0005958138,-0.0002308428,6,1
-0.0006202856,-0.0001900023,6,1
-0.0006167202,-0.0001618029,6,1
-0.0005834968,-0.0001480274,6,1
-0.0005324463,-0.0001426792,6,1
-0.0004739407,-0.0001378173,6,1
-0.0004168937,-0.0001263107,6,1
-0.0003723258,-0.0001091317,6,1
-0.000350609,-9.033215e-05,6,1
-0.000358064,-7.752899e-05,6,1
-0.0003932322,-7.542214e-05,6,1
-0.0004467137,-8.141856e-05,6,1
-0.0005125122,-9.179074e-05,6,1
-0.00058139,-0.0001045939,6,1
-0.0006473506,-0.0001191798,6,1
-0.0007042355,-0.0001404103,6,1
-0.0007431312,-0.0001673132,6,1
-0.0007560964,-0.0001929195,6,1
-0.0007364865,-0.0002120432,6,1
-0.0006797637,-0.0002211189,6,1
-0.000583821,-0.0002194982,6,1
-0.0004465517,-0.0002013469,6,1
-0.0002724935,-0.0001682856,6,1
-7.088431e-05,-0.0001248521,6,1
0.0001406109,-7.55842e-05,6,1
0.0003342791,-1.837515e-05,6,1
0.0004884033,4.434413e-05,6,1
0.0005973112,0.0001081979,6,1
0.0006867713,0.0001676758,6,1
0.00077769,0.0002158093,6,1
0.0008655295,0.000247412,6,1
0.0009216042,0.0002636185,6,1
0.0009206317,0.0002705873,6,1
0.0008549952,0.000274801,6,1
0.0007305289,0.0002795009,6,1
0.0005644119,0.0002867939,6,1
0.0003778746,0.0002966799,6,1
0.0001973338,0.0003052694,6,1
4.369587e-05,0.00030689,6,1
-6.958779e-05,0.0002997591,6,1
-0.0001433275,0.0002807975,6,1
-0.0001901644,0.000247412,6,1
-0.0002206326,0.0001963614,6,1
-0.0002324634,0.0001271595,6,1
-0.0002175534,4.110282e-05,6,1
-0.0001810887,-5.451572e-05,6,1
-0.0001332795,-0.0001481895,6,1
-7.850138e-05,-0.0002316531,6,1
-1.643037e-05,-0.0003040963,6,1
5.1475e-05,-0.0003685983,6,1
0.0001213252,-0.0004193247,6,1
0.0001905271,-0.0004488206,6,1
0.0002587566,-0.0004481723,6,1
0.000324393,-0.0004136524,6,1
0.0003765781,-0.0003481781,6,1
0.0004055878,-0.0002606628,6,1
0.0004101256,-0.0001658546,6,1
0.0004034809,-7.493595e-05,6,1
0.0004075326,7.069105e-06,6,1
0.0004428628,7.999851e-05,6,1
0.0005261644,0.0001394765,6,1
0.0006721854,0.0001812893,6,1
0.0008872462,0.0002093267,6,1
0.001161461,0.0002295848,6,1
0.001454314,0.0002444948,6,1
0.001707622,0.0002543808,6,1
0.001867905,0.000257298,6,1
0.001899508,0.0002514636,6,1
0.001794166,0.0002409294,6,1
0.001578456,0.00022764,6,1
0.001302458,0.0002120818,6,1
0.001023219,0.0001974959,6,1
0.0007783383,0.0001832341,6,1
0.0005736496,0.000165569,6,1
0.000393757,0.0001438522,6,1
0.0002278021,0.0001171115,6,1
7.189524e-05,8.486046e-05,6,1
-7.688073e-05,5.228533e-05,6,1
-0.0002250084,2.149292e-05,6,1
-0.0003805911,-7.030578e-06,6,1
-0.0005356876,-3.296103e-05,6,1
-0.0006705259,-5.483985e-05,6,1
-0.00076501,-7.039812e-05,6,1
-0.0008157364,-7.947377e-05,6,1
-0.0008332395,-8.611845e-05,6,1
-0.000832267,-9.211487e-05,6,1
-0.0008256224,-9.584238e-05,6,1
-0.0008158985,-9.989401e-05,6,1
-0.00079483,-0.000107349,6,1
-0.0007549619,-0.0001173971,6,1
-0.0006987253,-0.0001238797,6,1
-0.0006332509,-0.0001256624,6,1
-0.0005702075,-0.0001219349,6,1
-0.000514457,-0.0001141558,6,1
-0.0004661616,-0.0001052422,6,1
-0.0004282383,-9.66527e-05,6,1
-0.0004057112,-9.486997e-05,6,1
-0.0004031182,-0.0001002181,6,1
-0.0004139766,-0.0001110765,6,1
-0.0004211074,-0.0001208004,6,1
-0.0004057112,-0.0001242038,6,1
-0.0003564434,-0.000122097,6,1
-0.0002744383,-0.0001191798,6,1
-0.0001763888,-0.0001173971,6,1
-9.341139e-05,-0.0001120489,6,1
-5.483985e-05,-9.908367e-05,6,1
-7.380149e-05,-8.206682e-05,6,1
-0.0001410586,-6.407757e-05,6,1
-0.0002295462,-4.868137e-05,6,1
-0.0003055549,-4.05781e-05,6,1
-0.0003462333,-3.733679e-05,6,1
-0.000355633,-3.766092e-05,6,1
-0.0003519055,-4.041603e-05,6,1
-0.0003501228,-4.300908e-05,6,1
-0.0003577399,-4.171256e-05,6,1
-0.0003711913,-3.474375e-05,6,1
-0.0003839945,-2.534396e-05,6,1
-0.0003929081,-1.967167e-05,6,1
-0.0003982562,-2.242678e-05,6,1
-0.0004006872,-3.101625e-05,6,1
-0.0004099249,-3.425755e-05,6,1
-0.0004369898,-1.934754e-05,6,1
-0.0004828543,1.274139e-05,6,1
-0.0005353634,5.19612e-05,6,1
-0.0005731247,8.696731e-05,6,1
-0.0005732867,0.0001103047,6,1
-0.0005248293,0.0001244044,6,1
-0.0004352071,0.0001373696,6,1
-0.0003259751,0.0001564933,6,1
-0.0002199844,0.0001811273,6,1
-0.0001332795,0.0002098128,6,1
-7.444975e-05,0.0002415777,6,1
-4.414354e-05,0.0002757735,6,1
-3.830919e-05,0.0003122381,6,1
-4.576419e-05,0.0003477304,6,1
-5.046408e-05,0.0003825745,6,1
-4.009191e-05,0.0004162841,6,1
-1.351319e-05,0.000443349,6,1
1.954813e-05,0.000455666,6,1
4.337174e-05,0.0004483731,6,1
5.115087e-05,0.0004245494,6,1
4.564065e-05,0.0003882468,6,1
3.996837e-05,0.0003433547,6,1
4.612685e-05,0.0002927903,6,1
6.557468e-05,0.0002297469,6,1
9.16672e-05,0.0001440143,6,1
0.0001182459,2.505836e-05,6,1
0.0001469315,-0.0001342519,6,1
0.0001843686,-0.0003285682,6,1
0.0002368777,-0.000541846,6,1
0.0002913317,-0.0007486413,6,1
0.0003196932,-0.0009173513,6,1
0.0002944109,-0.001021559,6,1
0.0002149989,-0.00105219,6,1
0.0001054428,-0.001018156,6,1
-5.479652e-07,-0.0009424714,6,1
-7.444975e-05,-0.0008458805,6,1
-0.0001016767,-0.0007415105,6,1
-8.482193e-05,-0.0006340612,6,1
-4.333321e-05,-0.0005258016,6,1
-7.840905e-06,-0.0004220798,6,1
9.106227e-07,-0.0003279199,6,1
-2.161646e-05,-0.0002494803,6,1
-6.245691e-05,-0.0001898403,6,1
-0.0001037836,-0.000147055,6,1
-0.0001391138,-0.0001128592,6,1
-0.0001697442,-7.736692e-05,6,1
-0.0001997262,-3.490581e-05,6,1
-0.0002206326,1.403791e-05,6,1
-0.0002123673,6.606088e-05,6,1
-0.0001588858,0.0001175977,6,1
-6.132246e-05,0.0001688103,6,1
6.379197e-05,0.0002193747,6,1
0.0002012234,0.0002666978,6,1
0.0003401134,0.0003049452,6,1
0.0004736553,0.0003328204,6,1
0.0005960147,0.0003512959,6,1
0.0007081639,0.0003662059,6,1
0.0008138306,0.00038614,6,1
0.0009057217,0.0004143393,6,1
0.0009590413,0.0004480489,6,1
0.0009504518,0.0004824068,6,1
0.0008815739,0.0005106062,6,1
0.0007750969,0.0005289196,6,1
0.0006592202,0.0005365367,6,1
0.0005561466,0.0005337815,6,1
0.0004723587,0.0005193577,6,1
0.0004153117,0.0004961824,6,1
0.0003929467,0.0004717105,6,1
0.0004021844,0.0004493454,6,1
0.0004237391,0.0004217943,6,1
0.0004287631,0.0003785229,6,1
0.0003939191,0.0003114278,6,1
0.0003153174,0.0002132162,6,1
0.0002099749,8.340187e-05,6,1
0.0001080358,-7.833932e-05,6,1
4.499239e-05,-0.0002666592,6,1
4.790957e-05,-0.000467134,6,1
0.0001218114,-0.0006586951,6,1
0.0002435224,-0.0008133054,6,1
0.0003783608,-0.0009105446,6,1
0.0004822447,-0.0009453886,6,1
0.0005172509,-0.0009231857,6,1
0.0004660382,-0.0008517149,6,1
0.000341572,-0.0007390795,6,1
0.0001764274,-0.0005906277,6,1
9.338019e-06,-0.0004173799,6,1
-0.0001329553,-0.0002412149,6,1
-0.0002399184,-8.190475e-05,6,1
-0.0003099306,4.807163e-05,6,1
-0.0003476919,0.0001467694,6,1
-0.0003638984,0.0002196988,6,1
-0.0003690845,0.0002775562,6,1
-0.0003676259,0.0003247172,6,1
-0.0003544986,0.0003652335,6,1
-0.000320789,0.0004029947,6,1
-0.0002572594,0.0004367043,6,1
-0.0001614788,0.000465552,6,1
-4.80331e-05,0.000487917,6,1
6.816773e-05,0.0005031512,6,1
0.0001803169,0.0005141716,6,1
0.0002853353,0.0005217887,6,1
0.0003725265,0.0005311884,6,1
0.000428277,0.000544964,6,1
0.0004323286,0.0005587396,6,1
0.0003772264,0.0005660325,6,1
0.0002744769,0.0005619809,6,1
0.0001427178,0.0005433434,6,1
-6.176923e-08,0.0005133613,6,1
-0.0001394379,0.0004793275,6,1
-0.0002580697,0.0004483731,6,1
-0.0003371576,0.0004203358,6,1
-0.0003801049,0.0003916502,6,1
-0.0003987424,0.0003574544,6,1
-0.0004032803,0.0003120761,6,1
-0.0004031182,0.0002538946,6,1
-0.0003938804,0.000180479,6,1
-0.0003608192,8.810177e-05,6,1
-0.000298424,-2.226472e-05,6,1
-0.0002229016,-0.000144624,6,1
-0.0001627754,-0.0002690902,6,1
-0.0001457585,-0.0003809152,6,1
-0.0001904885,-0.0004651892,6,1
-0.0002969654,-0.0005099192,6,1
-0.0004415277,-0.0005136467,6,1
-0.0005834968,-0.0004825302,6,1
-0.0006815463,-0.0004290486,6,1
-0.0007103939,-0.0003666535,6,1
-0.0006664743,-0.0003047445,6,1
-0.0005716661,-0.0002480217,6,1
-0.0004650271,-0.0002019951,6,1
-0.0003773498,-0.0001687718,6,1
-0.0003261372,-0.0001485136,6,1
-0.0003164132,-0.0001397621,6,1
-0.0003446126,-0.0001365208,6,1
-0.0003885323,-0.0001337657,6,1
-0.0004204592,-0.0001267968,6,1
-0.0004222419,-0.0001141558,6,1
-0.0003909633,-9.681477e-05,6,1
-0.0003395886,-7.785312e-05,6,1
-0.0002822175,-6.294311e-05,6,1
-0.0002267911,-5.338126e-05,6,1
-0.0001752544,-5.078821e-05,6,1
-0.0001280934,-5.710876e-05,6,1
-8.287715e-05,-7.299116e-05,6,1
-3.63644e-05,-9.697683e-05,6,1
1.64689e-05,-0.0001255003,6,1
7.67572e-05,-0.0001527273,6,1
0.0001376938,-0.0001749302,6,1
0.0001861513,-0.0001883817,6,1
0.0002161334,-0.0001924333,6,1
0.0002260194,-0.0001865989,6,1
0.0002292607,-0.00016942,6,1
0.000249843,-0.000142031,6,1
0.0003049452,-0.0001060525,6,1
0.0003944053,-6.634648e-05,6,1
0.0004984512,-3.020592e-05,6,1
0.0005862907,-8.720959e-07,6,1
0.0006308587,2.586868e-05,6,1
0.0006138419,5.52025e-05,6,1
0.000532647,8.988449e-05,6,1
0.0003991052,0.0001300767,6,1
0.0002368777,0.0001723757,6,1
7.481241e-05,0.0002143507,6,1
-5.840528e-05,0.0002527602,6,1
-0.0001464067,0.0002799871,6,1
-0.0001924333,0.0002934386,6,1
-0.0002097743,0.0002908455,6,1
-0.0002097743,0.0002769079,6,1
-0.0001963229,0.0002569738,6,1
-0.0001629374,0.0002380122,6,1
-0.000104756,0.0002261814,6,1
-2.631635e-05,0.0002243987,6,1
4.790957e-05,0.0002328261,6,1
8.858796e-05,0.0002478982,6,1
8.567078e-05,0.0002610255,6,1
5.277153e-05,0.0002657254,6,1
1.257933e-05,0.0002607014,6,1
-2.518189e-05,0.000247412,6,1
-5.354332e-05,0.0002271538,6,1
-6.845333e-05,0.0001974959,6,1
-5.953974e-05,0.0001560072,6,1
-4.923729e-06,0.0001054428,6,1
0.000111115,5.034055e-05,6,1
0.0002879283,-6.176923e-08,6,1
0.0004990995,-4.041603e-05,6,1
0.0006969814,-7.088431e-05,6,1
0.0008282544,-9.568031e-05,6,1
0.0008535367,-0.0001115627,6,1
0.00076278,-0.0001154523,6,1
0.0005871011,-0.0001058904,6,1
0.0003801436,-8.871149e-05,6,1
0.0001892305,-6.748094e-05,6,1
2.846173e-05,-5.159854e-05,6,1
-0.0001075111,-4.754691e-05,6,1
-0.0002258187,-6.06742e-05,6,1
-0.0003230579,-9.276313e-05,6,1
-0.0003883702,-0.0001334415,6,1
-0.0004155972,-0.0001716889,6,1
-0.0004091146,-0.0002047502,6,1
-0.0003857772,-0.0002282497,6,1
-0.0003600088,-0.0002392702,6,1
-0.0003358611,-0.0002371633,6,1
-0.0003029619,-0.0002219292,6,1
-0.0002520733,-0.0001985918,6,1
-0.0001776853,-0.0001760647,6,1
-8.482193e-05,-0.0001598582,6,1
1.938607e-05,-0.0001546721,6,1
0.0001299146,-0.0001582375,6,1
0.0002401191,-0.0001629374,6,1
0.0003470822,-0.0001640719,6,1
0.0004427008,-0.0001611547,6,1
0.0005206542,-0.0001502963,6,1
0.0005718669,-0.0001326312,6,1
0.0005845079,-0.0001115627,6,1
0.0005391297,-9.357346e-05,6,1
0.0004235771,-8.320128e-05,6,1
0.00024255,-8.07703e-05,6,1
2.781346e-05,-8.854943e-05,6,1
-0.0001783336,-0.0001071869,6,1
-0.0003478539,-0.0001363587,6,1
-0.0004681064,-0.0001729855,6,1
-0.0005394151,-0.0002109087,6,1
-0.000571504,-0.0002418632,6,1
-0.0005854416,-0.0002588801,6,1
-0.000603593,-0.0002647144,6,1
-0.0006376266,-0.0002630937,6,1
-0.0006875428,-0.000261311,6,1
-0.0007494517,-0.000263742,6,1
-0.000819788,-0.0002684419,6,1
-0.0008927174,-0.0002682799,6,1
-0.0009635399,-0.0002580697,6,1
-0.001021235,-0.0002368392,6,1
-0.0010436,-0.00019924,6,1
-0.001012484,-0.000144624,6,1
-0.0009218892,-7.931171e-05,6,1
-0.000785106,-1.740276e-05,6,1
-0.0006347094,3.170304e-05,6,1
-0.0004907955,5.876794e-05,6,1
-0.0003493125,5.974033e-05,6,1
-0.0002036158,3.591673e-05,6,1
-6.845333e-05,-4.275467e-06,6,1
2.554455e-05,-5.22468e-05,6,1
6.670914e-05,-9.681477e-05,6,1
7.367795e-05,-0.0001295519,6,1
6.946425e-05,-0.0001431655,6,1
5.649903e-05,-0.0001365208,6,1
1.112074e-05,-0.0001149661,6,1
-9.341139e-05,-8.417367e-05,6,1
-0.0002606628,-4.932962e-05,6,1
-0.0004565997,-1.092015e-05,6,1
-0.0006157478,3.218923e-05,6,1
-0.0006766844,8.064677e-05,6,1
-0.0006176926,0.0001323456,6,1
-0.0004565997,0.0001859892,6,1
-0.0002357047,0.0002407673,6,1
7.879432e-06,0.0002914938,6,1
0.0002568118,0.0003311998,6,1
0.000517575,0.000356482,6,1
0.0008011895,0.0003700955,6,1
0.001104576,0.0003785229,6,1
0.001403425,0.0003858158,6,1
0.001660137,0.0003882468,6,1
0.001841651,0.0003794953,6,1
0.00194278,0.0003551855,6,1
0.001987348,0.0003130485,6,1
0.002011496,0.0002605393,6,1
0.002035968,0.0002062474,6,1
0.00205023,0.000160707,6,1
0.002012955,0.0001271595,6,1
0.001877143,0.0001054428,6,1
0.001624483,9.134307e-05,6,1
0.001281228,8.858796e-05,6,1
0.0008935668,0.0001015532,6,1
0.0005059062,0.0001300767,6,1
0.0001521176,0.0001649207,6,1
-0.0001376552,0.0001983062,6,1
-0.0003439643,0.000225209,6,1
-0.000459841,0.0002457913,6,1
-0.0004997091,0.0002584324,6,1
-0.0004984126,0.000262322,6,1
-0.0004998712,0.0002611876,6,1
-0.0005264499,0.000254867,6,1
-0.0005697213,0.0002433604,6,1
-0.0006048895,0.0002279642,6,1
-0.0006147755,0.0002109473,6,1
-0.0006008379,0.0001968476,6,1
-0.0005750695,0.0001866375,6,1
-0.0005473563,0.0001799928,6,1
-0.0005245051,0.0001736723,6,1
-0.000512026,0.0001662173,6,1
-0.0005108916,0.0001603829,6,1
-0.0005121881,0.0001566554,6,1
-0.0005060296,0.0001539003,6,1
-0.0004805854,0.000148228,6,1
-0.0004217557,0.0001360731,6,1
-0.0003284061,0.0001172735,6,1
-0.0002219292,9.344993e-05,6,1
-0.0001344139,7.124698e-05,6,1
-9.211487e-05,5.098881e-05,6,1
-0.0001060525,2.992031e-05,6,1
-0.0001726613,1.234753e-06,6,1
-0.0002747625,-3.441962e-05,6,1
-0.0003883702,-7.882551e-05,6,1
-0.0004919299,-0.0001308485,6,1
-0.0005676145,-0.0001912988,6,1
-0.0005979206,-0.0002666592,6,1
-0.0005716661,-0.0003609812,6,1
-0.0004958195,-0.000472158,6,1
-0.0003901529,-0.0005904656,6,1
-0.0002739521,-0.0006998597,6,1
-0.0001690959,-0.0007834854,6,1
-9.973194e-05,-0.0008254603,6,1
-8.190475e-05,-0.000814602,6,1
-0.0001138316,-0.0007564205,6,1
-0.000176875,-0.0006667984,6,1
-0.0002381357,-0.0005672903,6,1
-0.0002655248,-0.0004716718,6,1
-0.000236353,-0.0003909633,6,1
-0.0001524032,-0.0003321336,6,1
-4.349527e-05,-0.0002895104,6,1
5.131294e-05,-0.0002548284,6,1
0.0001080358,-0.0002146363,6,1
0.0001250527,-0.0001632615,6,1
0.0001137081,-9.681477e-05,6,1
8.080883e-05,-1.724069e-05,6,1
1.776542e-05,6.914012e-05,6,1
-8.417367e-05,0.0001524417,6,1
-0.000216581,0.0002248849,6,1
-0.0003528779,0.000284525,6,1
-0.0004616237,0.0003302274,6,1
-0.0005126743,0.000361506,6,1
-0.0004878783,0.0003790091,6,1
-0.0003906392,0.0003919743,6,1
-0.0002370013,0.0004102877,6,1
-4.85193e-05,0.000438325,6,1
0.0001535762,0.0004728449,6,1
0.0003459477,0.0005031512,6,1
0.000509958,0.000520168,6,1
0.0006328035,0.0005213025,6,1
0.0007096225,0.000507527,6,1
0.0007371737,0.0004864584,6,1
0.000718374,0.000463121,6,1
0.000666189,0.0004373526,6,1
0.0005937457,0.0004096394,6,1
0.0005141716,0.000378847,6,1
0.0004501558,0.0003491891,6,1
0.0004279528,0.000324393,6,1
0.0004670106,0.0003036487,6,1
0.0005613327,0.0002854973,6,1
0.0006832058,0.0002666978,6,1
0.0007930862,0.0002428742,6,1
0.0008622882,0.0002059233,6,1
0.0008877325,0.0001539003,6,1
0.0008895152,8.79397e-05,6,1
0.0008856256,1.063454e-05,6,1
0.0008804395,-7.704279e-05,6,1
0.0008703915,-0.0001663408,6,1
0.0008559676,-0.0002400805,6,1
0.0008379783,-0.0002825416,6,1
0.0008044308,-0.0002869174,6,1
0.0007272876,-0.0002596904,6,1
0.0005849942,-0.0002175534,6,1
0.0003793332,-0.0001750923,6,1
0.000130887,-0.0001407345,6,1
-0.0001285796,-0.000112211,6,1
-0.0003643846,-8.368748e-05,6,1
-0.0005564319,-5.143648e-05,6,1
-0.0007021286,-1.286493e-05,6,1
-0.0008110365,3.170304e-05,6,1
-0.0008949863,7.967438e-05,6,1
-0.0009583539,0.0001292664,6,1
-0.000998384,0.0001759412,6,1
-0.001013294,0.0002124059,6,1
-0.00100908,0.0002359054,6,1
-0.0009936841,0.0002503292,6,1
-0.0009698605,0.0002527602,6,1
-0.0009358267,0.0002297469,6,1
-0.0008940139,0.0001709172,6,1
-0.0008471771,7.967438e-05,6,1
-0.0007765166,-2.777494e-05,6,1
-0.0006565883,-0.000137169,6,1
-0.0004681064,-0.0002421874,6,1
-0.000206533,-0.0003408851,6,1
0.0001106288,-0.0004394208,6,1
0.0004378388,-0.0005431426,6,1
0.000720805,-0.0006536711,6,1
0.0009057217,-0.0007632272,6,1
0.0009525587,-0.0008603043,6,1
0.0008524022,-0.0009327476,6,1
0.0006431757,-0.0009774775,6,1
0.0003858158,-0.000995953,6,1
0.0001404489,-0.0009813671,6,1
-5.240886e-05,-0.0009267511,6,1
-0.0001783336,-0.0008291878,6,1
-0.0002455907,-0.0006985632,6,1
-0.0002741142,-0.0005522182,6,1
-0.0002836761,-0.0004065215,6,1
-0.0002911311,-0.000278652,6,1
-0.0003076617,-0.0001799543,6,1
-0.0003342404,-0.000114804,6,1
-0.0003572537,-7.979791e-05,6,1
-0.0003574158,-7.120844e-05,6,1
-0.0003238683,-8.384954e-05,6,1
-0.0002650386,-0.0001146419,6,1
-0.0001969711,-0.0001541859,6,1
-0.0001295519,-0.0001909747,6,1
-6.359137e-05,-0.000216581,6,1
-1.059602e-05,-0.0002219292,6,1
1.727922e-05,-0.0001998883,6,1
2.100672e-05,-0.0001442999,6,1
9.013889e-06,-5.338126e-05,6,1
-1.691656e-05,6.379197e-05,6,1
-5.840528e-05,0.0001936063,6,1
-0.000112211,0.0003221241,6,1
-0.0001686097,0.0004349216,6,1
-0.0002125294,0.0005251921,6,1
-0.0002342462,0.0005867769,6,1
-0.0002303566,0.0006182176,6,1
-0.0002047502,0.0006258347,6,1
-0.0001689338,0.0006182176,6,1
-0.0001374932,0.0006010387,6,1
-0.0001227452,0.0005806184,6,1
-0.0001305243,0.0005600362,6,1
-0.000156941,0.0005410745,6,1
-0.0001929195,0.0005263265,6,1
-0.0002310048,0.0005136854,6,1
-0.0002600145,0.0005049339,6,1
-0.00027849,0.0004992616,6,1
-0.0002869174,0.000487755,6,1
-0.0002815692,0.0004621486,6,1
-0.000263742,0.0004195254,6,1
-0.0002376495,0.0003637749,6,1
-0.0002047502,0.000299597,6,1
-0.0001682856,0.0002404432,6,1
-0.0001336036,0.0002005751,6,1
-0.0001088076,0.000192958,6,1
-0.0001071869,0.0002146748,6,1
-0.0001284175,0.0002493568,6,1
-0.0001580754,0.0002786906,6,1
-0.00018433,0.0002900352,6,1
-0.0002086398,0.0002814457,6,1
-0.0002371633,0.000259729,6,1
-0.0002724935,0.000235095,6,1
-0.0003076617,0.0002169437,6,1
-0.0003366714,0.0002064095,6,1
-0.0003536883,0.0001981441,6,1
-0.0003562813,0.0001846927,6,1
-0.0003522297,0.0001620036,6,1
-0.0003519055,0.0001279698,6,1
-0.0003579019,8.194328e-05,6,1
-0.00036795,2.878586e-05,6,1
-0.0003707051,-2.534396e-05,6,1
-0.0003499608,-7.396356e-05,6,1
-0.0002929138,-0.0001130213,6,1
-0.0002021572,-0.0001387897,6,1
-9.422172e-05,-0.000152079,6,1
6.258778e-06,-0.0001566169,6,1
7.789165e-05,-0.0001614788,6,1
0.000108522,-0.0001705545,6,1
9.896015e-05,-0.00018433,6,1
5.99024e-05,-0.0002029675,6,1
8.365628e-06,-0.0002250084,6,1
-4.317115e-05,-0.0002472114,6,1
-8.871149e-05,-0.0002621213,6,1
-0.0001232314,-0.0002668213,6,1
-0.000142031,-0.000261149,6,1
-0.0001361966,-0.0002470493,6,1
-0.000102325,-0.0002274394,6,1
-4.155049e-05,-0.000206533,6,1
5.277153e-05,-0.0001861127,6,1
0.0001947408,-0.0001663408,6,1
0.0003833848,-0.0001468929,6,1
0.0005900182,-0.0001292278,6,1
0.0007691005,-0.0001154523,6,1
0.0008874084,-0.0001070249,6,1
0.0009429968,-0.0001039456,6,1
0.0009595275,-0.0001007043,6,1
0.0009598516,-9.535618e-05,6,1
0.0009598516,-9.017008e-05,6,1
0.000975734,-8.628052e-05,6,1
0.001019816,-8.093236e-05,6,1
0.001090801,-6.845333e-05,6,1
0.00117783,-4.495386e-05,6,1
0.001251732,-1.075808e-05,6,1
0.001286252,3.13789e-05,6,1
0.001274421,7.416415e-05,6,1
0.001226612,0.0001101427,6,1
0.001154979,0.0001354248,6,1
0.001070866,0.0001483901,6,1
0.0009828649,0.0001459591,6,1
0.0009011839,0.0001265113,6,1
0.0008277682,9.199134e-05,6,1
0.0007597008,5.277153e-05,6,1
0.0006930918,1.825161e-05,6,1
0.0006170832,-6.220252e-06,6,1
0.000515144,-2.42095e-05,6,1
0.0003806297,-3.604027e-05,6,1
0.0002185644,-4.171256e-05,6,1
4.580272e-05,-3.814712e-05,6,1
-0.0001157764,-2.372331e-05,6,1
-0.0002498044,1.720949e-06,6,1
-0.000355633,3.705119e-05,6,1
-0.000432452,7.497447e-05,6,1
-0.0004792889,0.0001075496,6,1
-0.0004984126,0.0001325077,6,1
-0.0004982505,0.0001480659,6,1
-0.0004883645,0.0001594105,6,1
-0.0004760476,0.0001670276,6,1
-0.0004600031,0.0001688103,6,1
-0.000437476,0.0001623277,6,1
-0.0004115456,0.0001487142,6,1
-0.0003919357,0.0001323456,6,1
-0.0003922598,0.0001137081,6,1
-0.0004214316,9.555677e-05,6,1
-0.0004794509,7.983644e-05,6,1
-0.0005585388,6.670914e-05,6,1
-0.0006471885,5.747142e-05,6,1
-0.0007338934,5.423012e-05,6,1
-0.0008052022,5.487838e-05,6,1
-0.0008442599,5.552663e-05,6,1
-0.0008458805,5.649903e-05,6,1
-0.0008157364,5.423012e-05,6,1
-0.0007697099,4.612685e-05,6,1
-0.000722873,3.13789e-05,6,1
-0.0006954839,1.095867e-05,6,1
-0.0007011562,-1.173047e-05,6,1
-0.0007288694,-3.296103e-05,6,1
-0.0007462104,-5.532604e-05,6,1
-0.0007183352,-7.898758e-05,6,1
-0.0006266062,-0.0001021629,6,1
-0.00047702,-0.0001235555,6,1
-0.0002898345,-0.0001439758,6,1
-9.308726e-05,-0.0001681235,6,1
9.63671e-05,-0.0001977815,6,1
0.0002780424,-0.0002310048,6,1
0.0004459421,-0.0002673075,6,1
0.0005830494,-0.0003037722,6,1
0.0006669993,-0.0003363473,6,1
0.0006841783,-0.0003651949,6,1
0.0006391241,-0.0003908012,6,1
0.0005535535,-0.0004143007,6,1
0.0004624728,-0.0004337485,6,1
0.0003905157,-0.0004439586,6,1
0.0003420582,-0.0004395829,6,1
0.0003060797,-0.000417542,6,1
0.0002723701,-0.0003747568,6,1
0.0002362295,-0.0003162512,6,1
0.0001973338,-0.0002527216,6,1
0.0001582761,-0.0001925954,6,1
0.0001273216,-0.0001428413,6,1
0.0001124116,-0.0001054042,6,1
0.0001141943,-7.931171e-05,6,1
0.000135911,-6.132246e-05,6,1
0.0001846927,-4.819517e-05,6,1
0.0002694529,-3.749886e-05,6,1
0.0003916502,-2.42095e-05,6,1
0.0005253541,-3.465141e-06,6,1
0.0006341,2.716521e-05,6,1
0.0006819093,6.41161e-05,6,1
0.0006402585,9.782569e-05,6,1
0.0005031512,0.000121001,6,1
0.0003002453,0.0001336421,6,1
8.178122e-05,0.0001394765,6,1
-9.697683e-05,0.0001477418,6,1
-0.0002002124,0.0001652449,6,1
-0.0002327876,0.0001936063,6,1
-0.0002358668,0.0002258573,6,1
-0.0002588801,0.0002509774,6,1
-0.0003394265,0.0002632944,6,1
-0.0004869059,0.0002666978,6,1
-0.0006727948,0.0002605393,6,1
-0.0008449082,0.0002406053,6,1
-0.0009483058,0.0002067336,6,1
-0.0009492782,0.0001663793,6,1
-0.0008476633,0.0001323456,6,1
-0.0006713362,0.0001137081,6,1
-0.0004690787,0.0001140322,6,1
-0.0002948586,0.0001263492,6,1
-0.0001835197,0.0001385041,6,1
-0.000142031,0.0001441764,6,1
-0.0001558065,0.0001423936,6,1
-0.000199078,0.00013818,6,1
-0.0002496423,0.0001338042,6,1
-0.0002927517,0.0001316974,6,1
-0.0003233821,0.0001312112,6,1
-0.0003421817,0.0001281319,6,1
-0.0003514194,0.000120839,6,1
-0.0003450988,0.000110953,6,1
-0.0003112272,0.0001065772,6,1
-0.0002491561,0.0001112771,6,1
-0.0001783336,0.0001248906,6,1
-0.0001340898,0.0001368834,6,1
-0.0001477033,0.0001396385,6,1
-0.0002152845,0.0001349386,6,1
-0.000300855,0.0001260251,6,1
-0.000362926,0.0001153287,6,1
-0.0003742705,0.0001047945,6,1
-0.0003266234,9.669123e-05,6,1
-0.0002254946,9.085688e-05,6,1
-8.320128e-05,8.956036e-05,6,1
9.101894e-05,9.328786e-05,6,1
0.0002874421,9.782569e-05,6,1
0.0004837033,9.733949e-05,6,1
0.0006430136,9.150514e-05,6,1
0.0007300428,7.999851e-05,6,1
0.0007308531,6.395404e-05,6,1
0.000648848,4.628891e-05,6,1
0.000507527,2.975825e-05,6,1
0.0003401134,1.808955e-05,6,1
0.0001769136,1.306552e-05,6,1
3.494434e-05,1.193106e-05,6,1
-8.709085e-05,9.175954e-06,6,1
-0.0001895161,1.558884e-06,6,1
-0.0002681178,-6.058186e-06,6,1
-0.0003156029,-9.461558e-06,6,1
-0.0003300267,-9.947754e-06,6,1
-0.0003134961,-9.785688e-06,6,1
-0.0002793003,-9.461558e-06,6,1
-0.0002449425,-7.516774e-06,6,1
-0.0002235498,-7.030578e-06,6,1
-0.0002157707,-1.221667e-05,6,1
-0.0002105846,-2.42095e-05,6,1
-0.0001938919,-3.976777e-05,6,1
-0.0001564548,-5.22468e-05,6,1
-9.778715e-05,-6.06742e-05,6,1
-2.955766e-05,-7.088431e-05,6,1
2.81376e-05,-9.454585e-05,6,1
6.103686e-05,-0.0001396,6,1
7.57848e-05,-0.0002081536,6,1
9.361199e-05,-0.0002992343,6,1
0.0001291043,-0.0004091146,6,1
0.0001812893,-0.0005209396,6,1
0.0002383363,-0.0006042412,6,1
0.0002913317,-0.0006322784,6,1
0.0003399513,-0.0006000275,6,1
0.0003872744,-0.0005225603,6,1
0.0004342734,-0.0004238625,6,1
0.0004812723,-0.0003228959,6,1
0.000522599,-0.0002334358,6,1
0.0005467468,-0.0001656925,6,1
0.0005486915,-0.000132145,6,1
0.0005370228,-0.0001368449,6,1
0.0005154681,-0.0001760647,6,1
0.0004757621,-0.0002357047,6,1
0.0003974845,-0.0002961551,6,1
0.0002683184,-0.0003412093,6,1
0.0001026876,-0.0003611433,6,1
-5.953974e-05,-0.0003522297,6,1
-0.0001629374,-0.0003160891,6,1
-0.0001733096,-0.0002532078,6,1
-9.811128e-05,-0.000164396,6,1
2.943412e-05,-5.824322e-05,6,1
0.000177886,5.066468e-05,6,1
0.0003188828,0.0001504969,6,1
0.0004274666,0.0002347709,6,1
0.0004882411,0.0003025142,6,1
0.0004987754,0.0003571303,6,1
0.0004678209,0.0004039671,6,1
0.0004127187,0.0004461041,6,1
0.0003546993,0.0004791655,6,1
0.0003038107,0.0004971547,6,1
0.0002611876,0.0004986133,6,1
0.0002237505,0.0004872688,6,1
0.0001945787,0.0004678209,6,1
0.0001798307,0.0004425387,6,1
0.0001856651,0.0004080188,6,1
0.0002007372,0.0003600474,6,1
0.000202844,0.0002984626,6,1
0.0001820997,0.0002273159,6,1
0.0001480659,0.0001542244,6,1
0.0001240803,8.858796e-05,6,1
0.0001367214,4.02925e-05,6,1
0.0001987924,1.727922e-05,6,1
0.0002879283,1.987227e-05,6,1
0.0003597233,4.304761e-05,6,1
0.000378847,7.643307e-05,6,1
0.0003311998,0.0001072255,6,1
0.0002318537,0.0001260251,6,1
0.0001057669,0.0001291043,6,1
-3.231277e-05,0.0001174356,6,1
-0.0001818991,9.944634e-05,6,1
-0.0003410472,8.210535e-05,6,1
-0.0004941989,6.881599e-05,6,1
-0.0006246614,5.56887e-05,6,1
-0.0007277349,3.915804e-05,6,1
-0.0008107124,1.938607e-05,6,1
-0.0008834797,-2.654814e-06,6,1
-0.0009546264,-2.437157e-05,6,1
-0.001025125,-4.365734e-05,6,1
-0.001090761,-6.002594e-05,6,1
-0.001137112,-6.893953e-05,6,1
-0.001142136,-6.748094e-05,6,1
-0.001085251,-5.872941e-05,6,1
-0.0009599745,-4.527799e-05,6,1
-0.0007805682,-3.21507e-05,6,1
-0.000581552,-2.031993e-05,6,1
-0.000402794,-7.840905e-06,6,1
-0.0002721694,8.203562e-06,6,1
-0.0002055606,2.570662e-05,6,1
-0.0001981056,4.239934e-05,6,1
-0.0002110708,5.471631e-05,6,1
-0.0001914609,6.217132e-05,6,1
-0.0001070249,6.492643e-05,6,1
3.299956e-05,6.184718e-05,6,1
0.0001872858,5.325772e-05,6,1
0.000304297,4.142696e-05,6,1
0.0003482167,2.862379e-05,6,1
0.0003151553,2.181705e-05,6,1
0.0002256952,2.295151e-05,6,1
0.0001237561,2.975825e-05,6,1
5.779555e-05,4.158902e-05,6,1
5.390598e-05,6.314371e-05,6,1
9.798775e-05,9.26396e-05,6,1
0.0001537382,0.0001260251,6,1
0.0001931201,0.0001576278,6,1
0.0002104611,0.0001859892,6,1
0.0002179161,0.0002055991,6,1
0.0002278021,0.000207706,6,1
0.0002579462,0.0001842065,6,1
0.0003158036,0.0001386662,6,1
0.0003952156,7.821578e-05,6,1
0.0004757621,1.355172e-05,6,1
0.0005337815,-4.074016e-05,6,1
0.0005496639,-7.104638e-05,6,1
0.0005136854,-7.250496e-05,6,1
0.0004292493,-5.2733e-05,6,1
0.0003250413,-2.566809e-05,6,1
0.0002305572,-7.678839e-06,6,1
0.0001637863,-7.192643e-06,6,1
0.0001245665,-1.983374e-05,6,1
0.0001025256,-3.231277e-05,6,1
7.805372e-05,-3.296103e-05,6,1
3.251336e-05,-2.194059e-05,6,1
-4.252288e-05,-4.761664e-06,6,1
-0.0001399241,1.306552e-05,6,1
-0.000238946,2.457216e-05,6,1
-0.0003186821,3.073064e-05,6,1
-0.0003758912,3.462021e-05,6,1
-0.0004181903,3.672706e-05,6,1
-0.0004504412,3.445814e-05,6,1
-0.0004726442,3.008238e-05,6,1
-0.0004805854,3.413401e-05,6,1
-0.0004755614,5.423012e-05,6,1
-0.0004577342,9.085688e-05,6,1
-0.0004185144,0.0001376938,6,1
-0.000340561,0.0001825859,6,1
-0.000209126,0.0002172679,6,1
-3.101625e-05,0.0002397949,6,1
0.0001576278,0.0002530843,6,1
0.0003140208,0.0002577842,6,1
0.000398619,0.0002501671,6,1
0.0003957018,0.0002281262,6,1
0.0003080245,0.0001921477,6,1
0.0001589243,0.0001453108,6,1
-1.075808e-05,9.231547e-05,6,1
-0.0001522411,3.462021e-05,6,1
-0.0002209568,-2.194059e-05,6,1
-0.0002005366,-6.958779e-05,6,1
-0.0001032974,-0.0001094559,6,1
3.705119e-05,-0.0001517549,6,1
0.0001889064,-0.0002053985,6,1
0.0003300653,-0.0002773555,6,1
0.0004509661,-0.0003674638,6,1
0.000542209,-0.0004679443,6,1
0.0005875872,-0.0005648594,6,1
0.0005762426,-0.0006479988,6,1
0.0005097958,-0.0007048837,6,1
0.0004020224,-0.0007272488,6,1
0.0002718839,-0.000705532,6,1
0.0001399627,-0.0006405439,6,1
2.878586e-05,-0.000544277,6,1
-3.895745e-05,-0.0004392588,6,1
-5.532604e-05,-0.0003473677,6,1
-2.453363e-05,-0.0002767073,6,1
3.040651e-05,-0.0002295462,6,1
7.562274e-05,-0.0002006986,6,1
8.113296e-05,-0.0001861127,6,1
3.60788e-05,-0.0001840059,6,1
-4.300908e-05,-0.0001901644,6,1
-0.0001206384,-0.0001968091,6,1
-0.0001679614,-0.000194216,6,1
-0.0001754164,-0.0001720131,6,1
-0.0001421931,-0.0001267968,6,1
-7.769106e-05,-6.456377e-05,6,1
-2.006553e-06,3.827799e-06,6,1
5.909208e-05,7.400208e-05,6,1
8.74535e-05,0.0001415833,6,1
7.967438e-05,0.0002000889,6,1
4.758544e-05,0.0002412535,6,1
1.371378e-05,0.0002587566,6,1
-4.599598e-06,0.0002558394,6,1
-7.516774e-06,0.0002431983,6,1
-9.785688e-06,0.0002260194,6,1
-2.388537e-05,0.0002068957,6,1
-4.754691e-05,0.0001837203,6,1
-7.088431e-05,0.0001542244,6,1
-9.227693e-05,0.0001148425,6,1
-0.0001276072,6.816773e-05,6,1
-0.0001909747,1.954813e-05,6,1
-0.0002851347,-1.724069e-05,6,1
-0.0004008493,-3.312309e-05,6,1
-0.0005222362,-2.485776e-05,6,1
-0.00062612,6.096713e-06,6,1
-0.0006868945,5.066468e-05,6,1
-0.0006736051,9.669123e-05,6,1
-0.0005518941,0.0001336421,6,1
-0.0003037722,0.0001522796,6,1
3.93201e-05,0.0001479039,6,1
0.0004093153,0.0001232699,6,1
0.0007251808,8.242948e-05,6,1
0.0009298695,2.635488e-05,6,1
0.001002313,-4.868137e-05,6,1
0.0009540173,-0.0001431655,6,1
0.0008227442,-0.0002566112,6,1
0.0006545202,-0.0003823738,6,1
0.0004871067,-0.0004977643,6,1
0.0003448133,-0.0005731247,6,1
0.0002380122,-0.000583983,6,1
0.0001733481,-0.0005227224,6,1
0.0001710792,-0.0003982562,6,1
0.0002417397,-0.0002324634,6,1
0.0003619922,-5.111234e-05,6,1
0.0004736553,0.0001219734,6,1
0.0005221128,0.0002686426,6,1
0.0004867825,0.0003830607,6,1
0.0003752816,0.0004731691,6,1
0.0002083542,0.0005464226,6,1
2.133085e-05,0.000601849,6,1
-0.0001366828,0.0006305345,6,1
-0.0002298704,0.0006214589,6,1
-0.0002564491,0.0005717048,6,1
-0.0002426735,0.0004851619,6,1
-0.0002243602,0.0003725265,6,1
-0.0002290601,0.0002440086,6,1
-0.0002583939,0.0001081979,6,1
-0.0002904828,-2.015787e-05,6,1
-0.0003036101,-0.0001290658,6,1
-0.0002932379,-0.0002104225,6,1
-0.0002757348,-0.000256287,6,1
-0.0002729798,-0.0002601766,6,1
-0.0002934,-0.0002206326,6,1
-0.0003285682,-0.0001431655,6,1
-0.0003624398,-4.592625e-05,6,1
-0.0003804291,5.115087e-05,6,1
-0.0003744326,0.0001252147,6,1
-0.0003481781,0.0001623277,6,1
-0.0003162512,0.0001663793,6,1
-0.0002950206,0.0001503349,6,1
-0.0002880518,0.0001250527,6,1
-0.0002895104,0.0001051186,6,1
-0.0002849726,0.0001007429,6,1
-0.0002619593,0.0001137081,6,1
-0.0002175534,0.0001393144,6,1
-0.0001601823,0.0001699448,6,1
-0.00010978,0.0002017096,6,1
-8.595638e-05,0.0002260194,6,1
-9.486997e-05,0.0002363916,6,1
-0.0001264727,0.0002307193,6,1
-0.0001642339,0.0002130541,6,1
-0.0001974573,0.0001937684,6,1
-0.0002120432,0.0001830721,6,1
-0.0001945401,0.0001869616,6,1
-0.000137007,0.0002046267,6,1
-4.706071e-05,0.0002305572,6,1
5.585077e-05,0.0002547049,6,1
0.0001454729,0.0002641047,6,1
0.0001987924,0.0002466017,6,1
0.0002161334,0.0002008992,6,1
0.0002195368,0.0001331559,6,1
0.0002336365,4.904402e-05,6,1
0.0002631324,-4.835724e-05,6,1
0.0002957075,-0.0001551583,6,1
0.0003054314,-0.0002652006,6,1
0.0002688046,-0.000370381,6,1
0.0001790204,-0.0004608134,6,1
5.066468e-05,-0.0005245051,6,1
-8.903562e-05,-0.0005494631,6,1
-0.0002135018,-0.0005334187,6,1
-0.0003015032,-0.0004786406,6,1
-0.0003441264,-0.0003945287,6,1
-0.0003425058,-0.0002938862,6,1
-0.0003074997,-0.0001882196,6,1
-0.0002520733,-9.033215e-05,6,1
-0.0001875713,-6.382317e-06,6,1
-0.0001204763,5.893001e-05,6,1
-6.148453e-05,0.000105929,6,1
-1.869928e-05,0.000133318,6,1
5.610517e-06,0.0001440143,6,1
1.290346e-05,0.0001433661,6,1
6.420843e-06,0.0001396385,6,1
-7.678839e-06,0.0001310491,6,1
-1.707863e-05,0.0001175977,6,1
-1.043395e-05,0.0001047945,6,1
1.501031e-05,9.831188e-05,6,1
6.055066e-05,0.0001028497,6,1
0.0001195424,0.0001206769,6,1
0.0001835583,0.0001511452,6,1
0.0002456293,0.0001871237,6,1
0.0003055935,0.0002224539,6,1
0.0003649094,0.0002501671,6,1
0.0004204978,0.0002645909,6,1
0.0004696036,0.0002655633,6,1
0.0005096338,0.0002564877,6,1
0.0005305402,0.0002443328,6,1
0.0005146578,0.0002321778,6,1
0.0004435111,0.0002211574,6,1
0.0003302274,0.0002104611,6,1
0.0002054371,0.0001984683,6,1
9.831188e-05,0.0001838824,6,1
1.12828e-05,0.0001671896,6,1
-7.526008e-05,0.0001454729,6,1
-0.0001789819,0.0001169494,6,1
-0.000303286,8.696731e-05,6,1
-0.000424997,6.184718e-05,6,1
-0.0004977643,4.110282e-05,6,1
-0.0004841508,2.359977e-05,6,1
-0.0003841565,3.827799e-06,6,1
-0.0002360289,-2.258885e-05,6,1
-9.519411e-05,-5.548811e-05,6,1
-1.173047e-05,-8.887356e-05,6,1
-1.383732e-05,-0.0001175591,6,1
-9.373552e-05,-0.0001386276,6,1
-0.000219012,-0.0001543479,6,1
-0.0003473677,-0.0001650443,6,1
-0.0004437966,-0.0001739578,6,1
-0.0004857715,-0.0001840059,6,1
-0.0004710235,-0.0001956746,6,1
-0.0004139766,-0.0002062088,6,1
-0.0003425058,-0.0002128535,6,1
-0.0002840002,-0.0002133397,6,1
-0.0002561249,-0.0002094502,6,1
-0.000251101,-0.0002052365,6,1
-0.0002433218,-0.0002028055,6,1
-0.0002047502,-0.0002013469,6,1
-0.0001214487,-0.00019924,6,1
-5.247859e-06,-0.0001953505,6,1
0.000113546,-0.0001893541,6,1
0.0002081922,-0.0001874093,6,1
0.0002683184,-0.0001922712,6,1
0.0002976523,-0.0002031296,6,1
0.0003078624,-0.000216419,6,1
0.0003041349,-0.0002271153,6,1
0.0002788527,-0.0002308428,6,1
0.0002222919,-0.0002290601,6,1
0.000135911,-0.000221443,6,1
3.267542e-05,-0.000209126,6,1
-6.423963e-05,-0.0001971332,6,1
-0.0001366828,-0.0001880575,6,1
-0.0001872472,-0.0001799543,6,1
-0.0002258187,-0.0001712027,6,1
-0.0002577456,-0.0001596961,6,1
-0.0002741142,-0.0001417068,6,1
-0.0002577456,-0.0001175591,6,1
-0.0001797922,-9.179074e-05,6,1
-1.934754e-05,-6.780507e-05,6,1
0.0002106232,-4.495386e-05,6,1
0.000463121,-2.42095e-05,6,1
0.0006820714,-1.124428e-05,6,1
0.0008251752,-8.489166e-06,6,1
0.0008778464,-9.785688e-06,6,1
0.0008522401,-8.327101e-06,6,1
0.000765373,1.072688e-06,6,1
0.0006396103,2.01964e-05,6,1
0.0005016926,4.35338e-05,6,1
0.0003725265,6.314371e-05,6,1
0.0002582704,7.67572e-05,6,1
0.00015309,8.534666e-05,6,1
5.163707e-05,9.458438e-05,6,1
-4.203669e-05,0.0001065772,6,1
-0.0001329553,0.0001213252,6,1
-0.0002318152,0.0001385041,6,1
-0.0003391024,0.0001540623,6,1
-0.0004284004,0.0001660552,6,1
-0.0004616237,0.0001717275,6,1
-0.000420135,0.0001707551,6,1
-0.000313334,0.0001615174,6,1
-0.0001611547,0.0001493625,6,1
2.197911e-05,0.0001385041,6,1
0.0002221298,0.0001349386,6,1
0.0004052637,0.0001433661,6,1
0.0005402642,0.0001710792,6,1
0.0006157866,0.0002143507,6,1
0.0006417171,0.0002619979,6,1
0.0006483617,0.0003052694,6,1
0.0006593822,0.0003401134,6,1
0.0006804507,0.0003655576,6,1
0.0006966573,0.0003801436,6,1
0.0006919574,0.0003809539,6,1
0.0006601926,0.0003624784,6,1
0.0006115729,0.0003269861,6,1
0.000567167,0.0002783665,6,1
0.0005418848,0.0002245608,6,1
0.0005358884,0.000178048,6,1
0.000534754,0.0001488763,6,1
0.0005050959,0.0001393144,6,1
0.0004145014,0.0001451488,6,1
0.0002547049,0.0001558451,6,1
5.034055e-05,0.0001602208,6,1
-0.0001605064,0.0001488763,6,1
-0.0003379679,0.0001156529,6,1
-0.0004570859,5.649903e-05,6,1
-0.0005164018,-3.020592e-05,6,1
-0.000524343,-0.000137007,6,1
-0.0004966299,-0.0002498044,6,1
-0.0004533584,-0.0003517435,6,1
-0.0004113835,-0.0004309934,6,1
-0.0003760533,-0.0004833405,6,1
-0.0003536883,-0.0005110537,6,1
-0.0003546606,-0.0005235327,6,1
-0.0003895047,-0.0005327704,6,1
-0.0004574101,-0.0005460597,6,1
-0.0005449253,-0.0005634008,6,1
-0.0006342233,-0.0005776625,6,1
-0.0007110422,-0.0005796073,6,1
-0.0007697099,-0.0005627525,6,1
-0.0008079573,-0.0005222362,6,1
-0.0008176812,-0.0004578962,6,1
-0.000792561,-0.0003750809,6,1
-0.0007407002,-0.0002865932,6,1
-0.0006690673,-0.0002081536,6,1
-0.0005750695,-0.0001533756,6,1
-0.0004565997,-0.0001219349,6,1
-0.0003141443,-0.0001015147,6,1
-0.0001707166,-7.785312e-05,6,1
-6.942573e-05,-4.365734e-05,6,1
-3.830919e-05,-1.034161e-06,6,1
-8.352541e-05,4.158902e-05,6,1
-0.0001853024,7.740546e-05,6,1
-0.0003096065,0.0001013911,6,1
-0.0004164075,0.0001150046,6,1
-0.0004700511,0.0001227837,6,1
-0.0004562756,0.0001318594,6,1
-0.0003844807,0.0001474177,6,1
-0.0002818933,0.0001692965,6,1
-0.0001799543,0.0001926339,6,1
-0.0001034594,0.0002107852,6,1
-6.294311e-05,0.0002193747,6,1
-6.148453e-05,0.0002172679,6,1
-9.470791e-05,0.0002072198,6,1
-0.0001499722,0.0001940925,6,1
-0.0002193361,0.0001859892,6,1
-0.0002977757,0.0001910133,6,1
-0.0003695707,0.0002125679,6,1
-0.0004115456,0.0002475741,6,1
-0.0004011734,0.0002859836,6,1
-0.0003149546,0.0003201794,6,1
-0.0001318209,0.0003422202,6,1
0.0001376938,0.0003478926,6,1
0.0004355699,0.0003339549,6,1
0.0006845024,0.0002999212,6,1
0.00082712,0.0002534084,6,1
0.0008577504,0.0002043026,6,1
0.000809941,0.0001692965,6,1
0.0007302048,0.0001584381,6,1
0.0006566271,0.0001701068,6,1
0.0006049282,0.0001966855,6,1
0.0005718669,0.0002242366,6,1
0.0005441537,0.000242388,6,1
0.00050542,0.0002457913,6,1
0.0004446456,0.0002331503,6,1
0.0003537269,0.0002062474,6,1
0.0002316917,0.000173024,6,1
9.896015e-05,0.0001417454,6,1
-1.108221e-05,0.0001205148,6,1
-7.056019e-05,0.0001161391,6,1
-7.55842e-05,0.0001265113,6,1
-5.095028e-05,0.0001427178,6,1
-3.101625e-05,0.0001511452,6,1
-3.992984e-05,0.0001412592,6,1
-8.303922e-05,0.0001041462,6,1
-0.0001468929,4.207521e-05,6,1
-0.0002084778,-3.393342e-05,6,1
-0.0002502906,-0.0001084835,6,1
-0.0002582318,-0.0001601823,6,1
-0.0002188499,-0.0001750923,6,1
-0.0001342519,-0.0001572651,6,1
-2.518189e-05,-0.0001212866,6,1
7.935024e-05,-8.303922e-05,6,1
0.0001488763,-4.80331e-05,6,1
0.0001574657,-1.464765e-05,6,1
9.750156e-05,2.554455e-05,6,1
-1.010982e-05,7.546067e-05,6,1
-0.0001329553,0.0001321835,6,1
-0.0002337599,0.0001884202,6,1
-0.000286107,0.0002342847,6,1
-0.0002799486,0.0002662116,6,1
-0.0002319772,0.0002807975,6,1
-0.0001749302,0.0002751252,6,1
-0.0001389517,0.0002467637,6,1
-0.0001387897,0.0002005751,6,1
-0.0001716889,0.0001459591,6,1
-0.0002292221,9.361199e-05,6,1
-0.0003060411,5.082674e-05,6,1
-0.0003998769,1.565857e-05,6,1
-0.000504409,-1.869928e-05,6,1
-0.0006055377,-6.294311e-05,6,1
-0.000688029,-0.0001217728,6,1
-0.0007489655,-0.0002003745,6,1
-0.0007917507,-0.0003073376,6,1
-0.000817195,-0.000442338,6,1
-0.000817195,-0.0005987309,6,1
-0.0007645238,-0.0007630652,6,1
-0.0006254718,-0.0009236719,6,1
-0.0003929081,-0.001066776,6,1
-0.000104918,-0.001170984,6,1
0.0001817755,-0.001211824,6,1
0.0004198496,-0.001171956,6,1
0.0005958526,-0.00105851,6,1
0.0007185361,-0.0008972552,6,1
0.0008055653,-0.0007246558,6,1
0.0008572642,-0.0005671282,6,1
0.0008702294,-0.0004343968,6,1
0.0008583986,-0.000325651,6,1
0.0008653674,-0.0002400805,6,1
0.0009404037,-0.000174282,6,1
0.001109114,-0.0001238797,6,1
0.001352374,-8.384954e-05,6,1
0.001609735,-4.592625e-05,6,1
0.0018141,-5.085794e-06,6,1
0.001927708,4.45062e-05,6,1
0.001943266,0.0001065772,6,1
0.001865312,0.0001785342,6,1
0.001709567,0.000257298,6,1
0.00149483,0.0003373583,6,1
0.001241522,0.000411098,6,1
0.0009823787,0.0004723587,6,1
0.0007519216,0.0005185474,6,1
0.0005783495,0.0005530673,6,1
0.0004640934,0.0005777013,6,1
0.0003827366,0.0005971491,6,1
0.0002887387,0.000606711,6,1
0.0001438522,0.000602011,6,1
-5.743289e-05,0.0005781874,6,1
-0.0002908069,0.0005302161,6,1
-0.0005206155,0.0004569625,6,1
-0.0007097457,0.0003628026,6,1
-0.0008282154,0.0002569738,6,1
-0.0008598181,0.0001535762,6,1
-0.000814602,7.30297e-05,6,1
-0.0007251419,2.894792e-05,6,1
-0.0006304958,2.651694e-05,6,1
-0.0005604835,5.893001e-05,6,1
-0.0005314739,0.0001106288,6,1
-0.0005350393,0.0001633001,6,1
-0.0005471942,0.0002012234,6,1
-0.0005399013,0.0002222919,6,1
-0.0004924161,0.0002323399,6,1
-0.0003984183,0.0002389846,6,1
-0.000266173,0.0002466017,6,1
-0.0001308485,0.0002532463,6,1
-3.944364e-05,0.000254867,6,1
-2.437157e-05,0.0002480603,6,1
-9.422172e-05,0.0002305572,6,1
-0.0002276015,0.0001976579,6,1
-0.0003909633,0.0001490383,6,1
-0.0005556216,8.680524e-05,6,1
-0.0007024527,2.01964e-05,6,1
-0.0008244879,-3.847125e-05,6,1
-0.0009238339,-7.574627e-05,6,1
-0.001006973,-8.773911e-05,6,1
-0.001074555,-7.477388e-05,6,1
-0.001109561,-3.749886e-05,6,1
-0.001092382,1.841368e-05,6,1
-0.001010377,7.67572e-05,6,1
-0.0008667869,0.0001167873,6,1
-0.0006818705,0.000125863,6,1
-0.000489499,0.0001049566,6,1
-0.0003311612,6.362991e-05,6,1
-0.0002428356,1.59827e-05,6,1
-0.0002308428,-3.279896e-05,6,1
-0.0002733039,-8.206682e-05,6,1
-0.0003379679,-0.0001332795,6,1
-0.0004055492,-0.000181737,6,1
-0.0004734545,-0.0002177155,6,1
-0.0005389289,-0.0002337599,6,1
-0.0005898174,-0.0002284118,6,1
-0.0006031067,-0.0002062088,6,1
-0.0005588629,-0.0001715269,6,1
-0.0004502792,-0.0001332795,6,1
-0.0003005308,-9.794922e-05,6,1
-0.0001477033,-6.861539e-05,6,1
-2.242678e-05,-4.333321e-05,6,1
6.184718e-05,-1.886135e-05,6,1
0.0001124116,2.207145e-06,6,1
0.0001467694,1.679302e-05,6,1
0.0001738343,2.441009e-05,6,1
0.0001991165,2.700314e-05,6,1
0.0002235884,2.797553e-05,6,1
0.0002459534,3.170304e-05,6,1
0.0002636185,4.061663e-05,6,1
0.0002760976,5.423012e-05,6,1
0.0002879283,6.914012e-05,6,1
0.0003083486,8.210535e-05,6,1
0.0003470822,8.923623e-05,6,1
0.0003974845,8.518459e-05,6,1
0.0004449697,6.881599e-05,6,1
0.0004715484,4.758544e-05,6,1
0.0004658761,2.651694e-05,6,1
0.0004250357,5.286387e-06,6,1
0.000353889,-1.513384e-05,6,1
0.0002605393,-3.296103e-05,6,1
0.0001595726,-4.560212e-05,6,1
6.281957e-05,-5.127441e-05,6,1
-2.177852e-05,-4.689865e-05,6,1
-8.660465e-05,-3.490581e-05,6,1
-0.0001305243,-1.99958e-05,6,1
-0.000152079,-6.868513e-06,6,1
-0.0001431655,-3.951337e-06,6,1
-9.503204e-05,-1.513384e-05,6,1
-5.409925e-06,-3.328516e-05,6,1
0.0001172735,-4.754691e-05,6,1
0.0002595669,-4.965376e-05,6,1
0.0004021844,-3.490581e-05,6,1
0.0005281092,-2.654814e-06,6,1
0.0006284277,3.575467e-05,6,1
0.0006903367,7.059871e-05,6,1
0.0006887161,9.733949e-05,6,1
0.00060428,0.000115977,6,1
0.00044578,0.0001274836,6,1
0.0002501671,0.0001355869,6,1
7.270556e-05,0.0001414213,6,1
-4.819517e-05,0.0001462832,6,1
-0.0001052422,0.0001470936,6,1
-0.0001173971,0.0001433661,6,1
-0.0001084835,0.0001406109,6,1
-9.081835e-05,0.0001427178,6,1
-5.727083e-05,0.0001545486,6,1
7.485573e-07,0.0001723757,6,1
7.772959e-05,0.0001835583,6,1
0.0001568175,0.0001791825,6,1
0.0002273159,0.0001600588,6,1
0.000294573,0.0001352628,6,1
0.0003731747,0.0001114392,6,1
0.0004720346,9.328786e-05,6,1
0.0005843459,7.918817e-05,6,1
0.0006963331,6.865393e-05,6,1
0.0007908173,5.552663e-05,6,1
0.0008554814,3.170304e-05,6,1
0.0008781706,-9.137427e-06,6,1
0.0008671501,-7.412562e-05,6,1
0.0008415438,-0.0001637477,6,1
0.0008066997,-0.0002695764,6,1
0.0007559733,-0.0003724878,6,1
0.0006838542,-0.0004517378,6,1
0.0005781874,-0.0004919299,6,1
0.0004248736,-0.0004890127,6,1
0.0002292607,-0.0004518998,6,1
1.59827e-05,-0.0003937184,6,1
-0.0001788198,-0.0003284061,6,1
-0.0003348887,-0.0002655248,6,1
-0.0004588687,-0.0002104225,6,1
-0.0005658317,-0.0001663408,6,1
-0.0006687432,-0.0001357104,6,1
-0.0007632272,-0.0001209625,6,1
-0.0008261086,-0.0001229073,6,1
-0.0008303223,-0.0001405724,6,1
-0.0007727891,-0.0001673132,6,1
-0.0006818705,-0.0001984297,6,1
-0.0006021344,-0.0002303566,6,1
-0.0005706937,-0.0002566112,6,1
-0.0005941931,-0.0002733039,6,1
-0.0006457299,-0.0002749245,6,1
-0.000688029,-0.0002553146,6,1
-0.0006985632,-0.0002120432,6,1
-0.0006740913,-0.0001504584,6,1
-0.0006204477,-8.287715e-05,6,1
-0.0005496252,-2.42095e-05,6,1
-0.0004732924,1.290346e-05,6,1
-0.0004040906,2.376183e-05,6,1
-0.0003446126,1.257933e-05,6,1
-0.0002916173,-9.785688e-06,6,1
-0.0002397564,-3.474375e-05,6,1
-0.000189192,-5.710876e-05,6,1
-0.0001400862,-7.60704e-05,6,1
-9.308726e-05,-8.935975e-05,6,1
-4.90055e-05,-9.794922e-05,6,1
-4.761664e-06,-9.924574e-05,6,1
5.374392e-05,-9.017008e-05,6,1
0.0001461212,-6.829127e-05,6,1
0.0002738286,-3.798505e-05,6,1
0.0003994293,-7.678839e-06,6,1
0.0004647417,2.003433e-05,6,1
0.0004339493,5.001642e-05,6,1
0.0003174242,8.42122e-05,6,1
0.0001647587,0.0001263492,6,1
3.380988e-05,0.000173024,6,1
-4.706071e-05,0.0002198609,6,1
-9.260107e-05,0.0002581083,6,1
-0.0001451102,0.0002807975,6,1
-0.0002423494,0.0002897111,6,1
-0.0003843186,0.000292142,6,1
-0.0005324463,0.0002942489,6,1
-0.0006232028,0.0002986247,6,1
-0.0006018102,0.0003028383,6,1
-0.0004478482,0.0003033245,6,1
-0.0001830335,0.0002986247,6,1
0.0001334801,0.0002898731,6,1
0.0004281149,0.0002804733,6,1
0.0006334517,0.0002728562,6,1
0.0007021675,0.0002689667,6,1
0.0006277795,0.0002692908,6,1
0.0004538833,0.0002699391,6,1
0.0002543808,0.0002688046,6,1
9.733949e-05,0.0002629703,6,1
1.209313e-05,0.0002543808,6,1
-1.221667e-05,0.0002435224,6,1
-1.196227e-06,0.0002287745,6,1
2.457216e-05,0.0002124059,6,1
7.448828e-05,0.000192796,6,1
0.0001897167,0.0001726999,6,1
0.000413529,0.0001545486,6,1
0.0007396046,0.0001362352,6,1
0.001110086,0.0001185701,6,1
0.001447831,0.0001046324,6,1
0.001689147,9.21534e-05,6,1
0.001787521,7.659513e-05,6,1
0.001728205,5.828175e-05,6,1
0.001537291,3.802358e-05,6,1
0.001266156,1.873781e-05,6,1
0.0009579068,1.396819e-06,6,1
0.0006404206,-1.659243e-05,6,1
0.0003373583,-3.652646e-05,6,1
7.367795e-05,-5.532604e-05,6,1
-0.0001339277,-7.056019e-05,6,1
-0.0002877277,-8.271508e-05,6,1
-0.000402632,-9.632857e-05,6,1
-0.0004919299,-0.0001144799,6,1
-0.0005646973,-0.0001337657,6,1
-0.0006194753,-0.0001507825,6,1
-0.0006492953,-0.0001626133,6,1
-0.0006505919,-0.0001733096,6,1
-0.0006257959,-0.000189192,6,1
-0.0005906277,-0.0002088019,6,1
-0.0005676145,-0.0002229016,6,1
-0.000571504,-0.0002235498,6,1
-0.0006013241,-0.0002081536,6,1
-0.0006475127,-0.0001814128,6,1
-0.0007008321,-0.0001538618,6,1
-0.0007570688,-0.0001387897,6,1
-0.0008184915,-0.000142031,6,1
-0.0008821832,-0.0001564548,6,1
-0.0009322613,-0.0001715269,6,1
-0.0009492782,-0.0001770371,6,1
-0.000923996,-0.0001671511,6,1
-0.0008706765,-0.0001465688,6,1
-0.0008124951,-0.000122097,6,1
-0.0007611204,-0.0001021629,6,1
-0.0007163903,-8.838737e-05,6,1
-0.0006724707,-8.206682e-05,6,1
-0.0006322784,-7.704279e-05,6,1
-0.0005979206,-6.796714e-05,6,1
-0.0005679386,-4.949169e-05,6,1
-0.0005314739,-2.242678e-05,6,1
-0.0004758855,8.851824e-06,6,1
-0.0003933943,4.142696e-05,6,1
-0.0002903207,6.800567e-05,6,1
-0.0001857886,8.178122e-05,6,1
-9.600444e-05,8.080883e-05,6,1
-2.404744e-05,6.573675e-05,6,1
3.883391e-05,3.818565e-05,6,1
0.0001064152,4.638125e-06,6,1
0.0001842065,-3.506788e-05,6,1
0.0002786906,-8.692878e-05,6,1
0.0004026706,-0.0001543479,6,1
0.000567005,-0.0002334358,6,1
0.0007665075,-0.0003118754,6,1
0.0009655239,-0.0003747568,6,1
0.001114624,-0.0004071698,6,1
0.00117313,-0.0004029561,6,1
0.001131641,-0.0003614674,6,1
0.001004582,-0.0002891863,6,1
0.0008191788,-0.0001951884,6,1
0.0006101143,-8.903562e-05,6,1
0.0004086671,1.711715e-05,6,1
0.0002355812,0.0001107909,6,1
9.442231e-05,0.0001842065,6,1
-2.388537e-05,0.0002396328,6,1
-0.0001365208,0.0002819319,6,1
-0.0002566112,0.0003148312,6,1
-0.0003857772,0.0003352514,6,1
-0.0005100812,0.0003396272,6,1
-0.0006183409,0.0003313618,6,1
-0.0007026148,0.0003175863,6,1
-0.0007523688,0.0003057555,6,1
-0.0007510723,0.0003005694,6,1
-0.0006833291,0.0003036487,6,1
-0.0005480045,0.0003128864,6,1
-0.0003624398,0.0003226103,6,1
-0.0001551583,0.000324231,6,1
4.418206e-05,0.000311914,6,1
0.000225209,0.0002829043,6,1
0.0003918123,0.000234933,6,1
0.0005407503,0.000170593,6,1
0.000658896,9.490851e-05,6,1
0.0007353909,1.12828e-05,6,1
0.0007744487,-7.639453e-05,6,1
0.0007948689,-0.0001608306,6,1
0.0008191788,-0.0002276015,6,1
0.0008562917,-0.0002629317,6,1
0.0008942151,-0.0002616352,6,1
0.0009053976,-0.0002326255,6,1
0.000869095,-0.0001875713,6,1
0.0007874139,-0.0001384655,6,1
0.0006757508,-8.871149e-05,6,1
0.0005532294,-4.05781e-05,6,1
0.0004300596,3.503668e-06,6,1
0.0003078624,4.142696e-05,6,1
0.0001830721,7.059871e-05,6,1
5.61749e-05,8.907416e-05,6,1
-6.423963e-05,0.0001028497,6,1
-0.0001697442,0.0001167873,6,1
-0.0002540181,0.0001331559,6,1
-0.0003151167,0.0001503349,6,1
-0.000360495,0.0001660552,6,1
-0.0004016596,0.0001798307,6,1
-0.0004358554,0.0001921477,6,1
-0.0004337485,0.0001983062,6,1
-0.0003685983,0.0001983062,6,1
-0.0002410529,0.0001936063,6,1
-9.892161e-05,0.0001843686,6,1
-8.720959e-07,0.000170431,6,1
1.484824e-05,0.0001503349,6,1
-4.949169e-05,0.000123432,6,1
-0.0001572651,9.361199e-05,6,1
-0.0002580697,6.897806e-05,6,1
-0.0003136581,5.487838e-05,6,1
-0.0003144685,4.871989e-05,6,1
-0.0002778417,4.061663e-05,6,1
-0.0002397564,1.776542e-05,6,1
-0.0002305186,-2.372331e-05,6,1
-0.0002577456,-8.303922e-05,6,1
-0.0003027998,-0.0001449482,6,1
-0.0003395886,-0.0001963229,6,1
-0.0003543365,-0.0002310048,6,1
-0.0003574158,-0.0002545043,6,1
-0.0003760533,-0.000278652,6,1
-0.0004331002,-0.0003136581,6,1
-0.0005296912,-0.0003650328,6,1
-0.0006416783,-0.0004262935,6,1
-0.0007274108,-0.0004800992,6,1
-0.0007437794,-0.000509433,6,1
-0.0006742534,-0.0005006815,6,1
-0.0005321222,-0.0004491447,6,1
-0.0003523917,-0.000360495,6,1
-0.0001689338,-0.000251101,6,1
-9.137427e-06,-0.0001386276,6,1
0.0001103047,-3.555408e-05,6,1
0.0001848548,5.406805e-05,6,1
0.0002162954,0.000128456,6,1
0.0002159713,0.000185341,6,1
0.0001997648,0.0002231022,6,1
0.0001817755,0.0002401191,6,1
0.0001650828,0.0002376881,6,1
0.0001461212,0.0002187264,6,1
0.0001169494,0.0001866375,6,1
7.870197e-05,0.000143204,6,1
3.769945e-05,8.696731e-05,6,1
-1.520357e-06,1.808955e-05,6,1
-3.895745e-05,-5.69467e-05,6,1
-7.347736e-05,-0.000122097,6,1
-9.940781e-05,-0.0001603444,6,1
-0.0001133454,-0.0001642339,6,1
-0.0001183694,-0.0001336036,6,1
-0.0001232314,-7.509801e-05,6,1
-0.000134738,-6.176923e-08,6,1
-0.0001561307,7.756752e-05,6,1
-0.0001900023,0.000145635,6,1
-0.0002331117,0.0001880961,6,1
-0.0002679557,0.0001983062,6,1
-0.0002724935,0.0001790204,6,1
-0.0002331117,0.0001433661,6,1
-0.00015451,0.0001026876,6,1
-5.565017e-05,6.78436e-05,6,1
3.867184e-05,4.920609e-05,6,1
0.0001099806,5.56887e-05,6,1
0.0001477418,8.437427e-05,6,1
0.000138342,0.0001218114,6,1
8.356394e-05,0.0001537382,6,1
4.80019e-06,0.0001707551,6,1
-6.342931e-05,0.0001691344,6,1
-8.968389e-05,0.0001485521,6,1
-6.780507e-05,0.0001163011,6,1
-5.247859e-06,8.340187e-05,6,1
7.999851e-05,5.61749e-05,6,1
0.0001694586,3.899597e-05,6,1
0.0002448189,3.251336e-05,6,1
0.0002882525,3.299956e-05,6,1
0.0002939248,2.927205e-05,6,1
0.0002691288,1.452411e-05,6,1
0.0002265056,-1.594417e-05,6,1
0.0001746447,-5.856735e-05,6,1
0.0001192183,-0.0001002181,6,1
6.476436e-05,-0.0001334415,6,1
1.54965e-05,-0.0001561307,6,1
-2.696461e-05,-0.0001686097,6,1
-5.905355e-05,-0.0001710407,6,1
-8.190475e-05,-0.000164396,6,1
-9.584238e-05,-0.0001530514,6,1
-0.0001008664,-0.000142031,6,1
-9.827335e-05,-0.000137169,6,1
-9.308726e-05,-0.0001415448,6,1
-8.514606e-05,-0.0001507825,6,1
-6.602235e-05,-0.0001566169,6,1
-2.09682e-05,-0.000149486,6,1
5.811968e-05,-0.0001290658,6,1
0.0001636242,-9.940781e-05,6,1
0.0002675081,-6.699475e-05,6,1
0.0003402755,-4.284701e-05,6,1
0.0003728506,-3.749886e-05,6,1
0.0003762539,-5.710876e-05,6,1
0.0003681507,-9.924574e-05,6,1
0.0003645853,-0.0001561307,6,1
0.0003825745,-0.0002144742,6,1
0.0004345975,-0.0002567732,6,1
0.000514982,-0.0002616352,6,1
0.000591801,-0.0002224154,6,1
0.0006300483,-0.0001533756,6,1
0.0006118971,-7.817725e-05,6,1
0.0005514466,-1.610624e-05,6,1
0.0004893756,2.927205e-05,6,1
0.0004683071,6.298164e-05,6,1
0.0005096338,8.891209e-05,6,1
0.0005982835,0.0001083599,6,1
0.000695847,0.0001179218,6,1
0.0007606731,0.000110953,6,1
0.0007676419,8.42122e-05,6,1
0.0007144845,4.191315e-05,6,1
0.0006193521,-3.303076e-06,6,1
0.0005034753,-4.317115e-05,6,1
0.0003827366,-6.893953e-05,6,1
0.0002795009,-7.201877e-05,6,1
0.0002198609,-5.062615e-05,6,1
0.0002248849,-8.002969e-06,6,1
0.0002795009,5.747142e-05,6,1
0.0003363859,0.0001504969,6,1
0.0003495132,0.0002668598,6,1
0.0002976523,0.0003916502,6,1
0.0001864754,0.0005067165,6,1
3.802358e-05,0.0005979594,6,1
-0.0001224211,0.0006571133,6,1
-0.0002737901,0.0006849886,6,1
-0.0004008493,0.0006895264,6,1
-0.0004987367,0.0006809369,6,1
-0.0005681007,0.0006663511,6,1
-0.000608779,0.0006473894,6,1
-0.0006253097,0.0006164349,6,1
-0.0006207718,0.0005648981,6,1
-0.0005956517,0.0004966686,6,1
-0.0005468701,0.0004239012,6,1
-0.000472158,0.0003608578,6,1
-0.0003820497,0.0003153174,6,1
-0.000290969,0.0002832284,6,1
-0.0002088019,0.0002534084,6,1
-0.0001415448,0.0002148369,6,1
-9.389759e-05,0.0001598967,6,1
-7.137051e-05,8.599492e-05,6,1
-7.347736e-05,-3.627206e-06,6,1
-9.584238e-05,-9.843541e-05,6,1
-0.0001287416,-0.0001878955,6,1
-0.0001671511,-0.000268766,6,1
-0.0002094502,-0.0003395886,6,1
-0.0002577456,-0.0004023079,6,1
-0.0003118754,-0.0004580583,6,1
-0.0003697327,-0.0005084606,6,1
-0.0004311555,-0.000556756,6,1
-0.0004993849,-0.0005966241,6,1
-0.0005757177,-0.0006180168,6,1
-0.0006530228,-0.0006123445,6,1
-0.0007246558,-0.0005778245,6,1
-0.000780082,-0.0005191569,6,1
-0.0008071469,-0.0004439586,6,1
-0.0007922369,-0.0003638984,6,1
-0.0007266005,-0.0002917793,6,1
-0.0006159099,-0.0002366771,6,1
-0.0004838267,-0.0001968091,6,1
-0.0003619536,-0.0001655305,6,1
-0.0002737901,-0.000134576,6,1
-0.0002227395,-0.0001050801,6,1
-0.0001925954,-8.368748e-05,6,1
-0.0001613168,-8.514606e-05,6,1
-0.0001154523,-0.0001190177,6,1
-6.06742e-05,-0.0001806025,6,1
-1.545797e-05,-0.0002522354,6,1
-5.734056e-06,-0.0003100927,6,1
-4.414354e-05,-0.0003369955,6,1
-0.0001264727,-0.0003272716,6,1
-0.0002295462,-0.0002906449,6,1
-0.0003308371,-0.0002465631,6,1
-0.000410087,-0.0002133397,6,1
-0.0004535205,-0.0002011848,6,1
-0.0004546549,-0.0002073433,6,1
-0.0004099249,-0.0002201465,6,1
-0.0003065273,-0.000219012,6,1
-0.0001361966,-0.0001878955,6,1
9.377406e-05,-0.0001233935,6,1
0.0003535648,-3.733679e-05,6,1
0.0005966629,5.358185e-05,6,1
0.0007707212,0.0001321835,6,1
0.0008391128,0.0001887444,6,1
0.0007987585,0.0002258573,6,1
0.0006647304,0.0002457913,6,1
0.0004741415,0.0002529222,6,1
0.0002892249,0.000252274,6,1
0.0001827479,0.0002534084,6,1
0.000195227,0.0002637806,6,1
0.0003302274,0.0002833905,6,1
0.0005666808,0.0003064038,6,1
0.0008686088,0.0003253654,6,1
0.00119274,0.0003357376,6,1
0.001482351,0.0003358997,6,1
0.001678613,0.0003273102,6,1
0.001743439,0.0003140208,6,1
0.001671158,0.0003052694,6,1
0.00148381,0.0003023522,6,1
0.001214943,0.0003036487,6,1
0.0009036149,0.0003028383,6,1
0.0005871011,0.0002984626,6,1
0.0002903593,0.0002897111,6,1
2.943412e-05,0.0002751252,6,1
-0.0001893541,0.0002568118,6,1
-0.0003621157,0.0002401191,6,1
-0.000484637,0.00022764,6,1
-0.0005484907,0.0002161334,6,1
-0.0005533527,0.0002055991,6,1
-0.000509433,0.0001976579,6,1
-0.000437314,0.0001921477,6,1
-0.0003682741,0.0001914995,6,1
-0.0003368335,0.0001950649,6,1
-0.0003638984,0.0001984683,6,1
-0.0004520619,0.0001970097,6,1
-0.0005937069,0.000185503,6,1
-0.0007679272,0.0001636242,6,1
-0.0009395542,0.0001352628,6,1
-0.001061103,0.0001080358,6,1
-0.001094165,9.101894e-05,6,1
-0.00102399,8.064677e-05,6,1
-0.0008588458,7.270556e-05,6,1
-0.0006253097,6.492643e-05,6,1
-0.0003708672,5.341979e-05,6,1
-0.0001439758,3.462021e-05,6,1
2.408596e-05,1.144487e-05,6,1
0.0001266733,-8.651231e-06,6,1
0.0001707551,-2.258885e-05,6,1
0.0001686482,-3.506788e-05,6,1
0.0001362352,-5.176061e-05,6,1
0.0001012291,-7.120844e-05,6,1
9.134307e-05,-9.146661e-05,6,1
0.0001137081,-0.0001133454,6,1
0.0001594105,-0.0001394379,6,1
0.0002046267,-0.0001648822,6,1
0.0002148369,-0.0001848162,6,1
0.0001712413,-0.0001985918,6,1
8.631905e-05,-0.0002092881,6,1
-7.192643e-06,-0.0002204706,6,1
-8.239095e-05,-0.0002360289,6,1
-0.0001259865,-0.0002530457,6,1
-0.0001394379,-0.0002645523,6,1
-0.0001212866,-0.0002681178,6,1
-6.423963e-05,-0.0002658489,6,1
4.888196e-05,-0.0002600145,6,1
0.0002245608,-0.0002489941,6,1
0.0004493454,-0.0002348944,6,1
0.0006922815,-0.0002178775,6,1
0.0009076665,-0.0002013469,6,1
0.001038778,-0.0001908126,6,1
0.001052067,-0.000189192,6,1
0.0009480208,-0.0001929195,6,1
0.0007562974,-0.0001994021,6,1
0.0005253541,-0.000208964,6,1
0.0003004074,-0.0002173914,6,1
0.0001119254,-0.0002201465,6,1
-2.84232e-05,-0.0002180396,6,1
-0.0001219349,-0.0002104225,6,1
-0.0001801163,-0.0001985918,6,1
-0.000226467,-0.0001853024,6,1
-0.0002822175,-0.0001736337,6,1
-0.0003569296,-0.0001632615,6,1
-0.0004329382,-0.0001512687,6,1
-0.0004823681,-0.0001373311,6,1
-0.0004875542,-0.0001188556,6,1
-0.0004476861,-9.551824e-05,6,1
-0.0003796187,-7.088431e-05,6,1
-0.0003081479,-4.641245e-05,6,1
-0.0002428356,-2.177852e-05,6,1
-0.00018433,3.017472e-06,6,1
-0.0001355484,2.538249e-05,6,1
-0.0001089697,4.207521e-05,6,1
-0.0001170729,5.504044e-05,6,1
-0.0001601823,6.865393e-05,6,1
-0.0002237119,8.761557e-05,6,1
-0.0002814071,0.0001112771,6,1
-0.0003076617,0.0001325077,6,1
-0.0002903207,0.0001472556,6,1
-0.0002337599,0.0001535762,6,1
-0.0001598582,0.0001553589,6,1
-9.470791e-05,0.0001563313,6,1
-6.164659e-05,0.0001586002,6,1
-7.33153e-05,0.0001600588,6,1
-0.0001255003,0.0001624898,6,1
-0.0002068571,0.0001662173,6,1
-0.00030831,0.0001725378,6,1
-0.0004228902,0.0001811273,6,1
-0.0005450874,0.0001887444,6,1
-0.0006684191,0.0001895547,6,1
-0.0007820268,0.0001835583,6,1
-0.000871649,0.0001714034,6,1
-0.0009248063,0.0001535762,6,1
-0.0009320992,0.0001323456,6,1
-0.0008898003,0.0001138702,6,1
-0.0008006644,0.0001007429,6,1
-0.0006714982,9.004655e-05,6,1
-0.0005219121,7.837785e-05,6,1
-0.0003728119,6.298164e-05,6,1
-0.0002408908,4.742337e-05,6,1
-0.0001361966,3.753739e-05,6,1
-5.370539e-05,3.267542e-05,6,1
2.035846e-05,2.894792e-05,6,1
9.993253e-05,2.522042e-05,6,1
0.0001825859,1.954813e-05,6,1
0.0002560015,1.112074e-05,6,1
0.0003039728,4.47606e-06,6,1
0.0003109416,3.665733e-06,6,1
0.0002723701,7.555301e-06,6,1
0.0001955511,1.22552e-05,6,1
0.000101067,1.419998e-05,6,1
7.879432e-06,9.986281e-06,6,1
-8.125649e-05,2.623614e-07,6,1
-0.0001703924,-1.286493e-05,6,1
-0.000261311,-2.745081e-05,6,1
-0.0003224097,-4.657452e-05,6,1
-0.0003081479,-7.315322e-05,6,1
-0.0001859507,-0.0001028112,6,1
2.927205e-05,-0.0001269589,6,1
0.000274801,-0.0001386276,6,1
0.0004634451,-0.0001349001,6,1
0.000532647,-0.0001219349,6,1
0.0004744656,-0.0001112386,6,1
0.0003290929,-0.00010978,6,1
0.0001670276,-0.0001216107,6,1
4.742337e-05,-0.0001464067,6,1
-6.868513e-06,-0.0001773612,6,1
-1.318906e-05,-0.0002036158,6,1
-7.678839e-06,-0.0002156086,6,1
-1.886135e-05,-0.0002058847,6,1
-5.159854e-05,-0.0001733096,6,1
-9.146661e-05,-0.0001279313,6,1
-0.0001195039,-8.530812e-05,6,1
-0.000127121,-5.808115e-05,6,1
-0.0001169109,-5.354332e-05,6,1
-9.794922e-05,-6.326724e-05,6,1
-7.315322e-05,-7.55842e-05,6,1
-3.020592e-05,-8.336335e-05,6,1
5.098881e-05,-8.02841e-05,6,1
0.0001892305,-6.602235e-05,6,1
0.000386302,-4.041603e-05,6,1
0.0006237278,-2.978945e-06,6,1
0.0008720121,4.72613e-05,6,1
0.001096149,0.0001031738,6,1
0.00127199,0.0001568175,6,1
0.001390622,0.0002038164,6,1
0.001451883,0.0002401191,6,1
0.00145561,0.0002602152,6,1
0.001394349,0.0002681563,6,1
0.001258376,0.0002715597,6,1
0.001050284,0.0002752873,6,1
0.0007945448,0.0002775562,6,1
0.0005295678,0.000272208,6,1
0.0002897111,0.0002480603,6,1
9.361199e-05,0.0001984683,6,1
-5.370539e-05,0.0001195424,6,1
-0.0001608306,1.371378e-05,6,1
-0.0002402425,-0.0001067007,6,1
-0.000298424,-0.0002357047,6,1
-0.0003316474,-0.0003658432,6,1
-0.000335699,-0.0004810716,6,1
-0.0003070135,-0.0005616181,6,1
-0.0002569353,-0.0005933828,6,1
-0.0002000504,-0.0005692351,6,1
-0.0001517549,-0.0004864197,6,1
-0.0001334415,-0.0003548227,6,1
-0.0001665028,-0.0001932436,6,1
-0.0002600145,-3.134038e-05,6,1
-0.0004029561,0.0001028497,6,1
-0.0005616181,0.0001984683,6,1
-0.0006893255,0.0002615117,6,1
-0.0007507482,0.0003047831,6,1
-0.0007387554,0.0003428685,6,1
-0.0006616123,0.0003811159,6,1
-0.0005176983,0.0004153117,6,1
-0.0003016653,0.0004410801,6,1
-1.610624e-05,0.0004615004,6,1
0.0003239069,0.0004843516,6,1
0.0006916333,0.0005166026,6,1
0.00105936,0.0005601982,6,1
0.001387056,0.0006107626,6,1
0.001615893,0.0006580857,6,1
0.001690119,0.0006848265,6,1
0.001584939,0.0006710509,6,1
0.00132223,0.0005952043,6,1
0.0009617964,0.0004427008,6,1
0.0005793219,0.0002169437,6,1
0.0002453052,-6.261898e-05,6,1
4.638125e-06,-0.0003651949,6,1
-0.0001413827,-0.0006582089,6,1
-0.0002253326,-0.000911355,6,1
-0.0002864312,-0.001097892,6,1
-0.0003478539,-0.001199021,6,1
-0.000410087,-0.001204855,6,1
-0.0004614617,-0.001120743,6,1
-0.0004877163,-0.0009701846,6,1
-0.0004847991,-0.0007907783,6,1
-0.0004557894,-0.0006154237,6,1
-0.000412518,-0.0004668098,6,1
-0.0003728119,-0.0003515814,6,1
-0.000350609,-0.0002616352,6,1
-0.0003497987,-0.0001840059,6,1
-0.0003600088,-0.0001130213,6,1
-0.000365357,-4.560212e-05,6,1
-0.0003566054,2.003433e-05,6,1
-0.0003384541,8.74535e-05,6,1
-0.0003309991,0.0001529279,6,1
-0.0003609812,0.0002075439,6,1
-0.0004386105,0.0002446569,6,1
-0.0005405495,0.0002666978,6,1
-0.0006275786,0.000282256,6,1
-0.0006729569,0.0003010556,6,1
-0.0006787913,0.0003297412,6,1
-0.0006625847,0.0003709058,6,1
-0.000638599,0.000418553,6,1
-0.0006050515,0.0004645796,6,1
-0.0005595111,0.0005015305,6,1
-0.0005107295,0.0005248679,6,1
-0.0004768579,0.0005303781,6,1
-0.0004609755,0.0005162785,6,1
-0.0004405553,0.000482893,6,1
-0.0003873979,0.0004274666,6,1
-0.0002870794,0.0003525924,6,1
-0.000144462,0.0002681563,6,1
2.538249e-05,0.000190365,6,1
0.0002038164,0.0001342904,6,1
0.0003704196,0.0001070634,6,1
0.0004969927,0.0001091703,6,1
0.0005543638,0.0001339663,6,1
0.0005269747,0.0001726999,6,1
0.0004243874,0.0002192126,6,1
0.0002743149,0.0002605393,6,1
0.0001141943,0.0002765838,6,1
-1.967167e-05,0.0002535705,6,1
-0.0001054042,0.0001944166,6,1
-0.000144462,0.0001080358,6,1
-0.0001532135,1.063454e-05,6,1
-0.0001442999,-8.984595e-05,6,1
-0.0001154523,-0.0001904885,6,1
-5.710876e-05,-0.000298424,6,1
2.878586e-05,-0.0004133283,6,1
0.0001245665,-0.0005176983,6,1
0.0002059233,-0.0005953276,6,1
0.0002438466,-0.0006348715,6,1
0.0002265056,-0.000628551,6,1
0.0001642725,-0.0005723144,6,1
8.016057e-05,-0.0004679443,6,1
2.207145e-06,-0.0003308371,6,1
-5.062615e-05,-0.000176875,6,1
-7.526008e-05,-2.42095e-05,6,1
-8.82253e-05,0.0001141943,6,1
-0.0001157764,0.0002261814,6,1
-0.0001775233,0.0003026763,6,1
-0.0002707109,0.0003436788,6,1
-0.0003718396,0.000356644,6,1
-0.0004379622,0.0003546993,6,1
-0.0004316416,0.0003483787,6,1
-0.0003441264,0.0003452995,6,1
-0.0001987538,0.0003431926,6,1
-4.203669e-05,0.0003370341,6,1
7.821578e-05,0.0003188828,6,1
0.0001440143,0.0002890628,6,1
0.0001600588,0.0002602152,6,1
0.0001375317,0.0002427121,6,1
8.907416e-05,0.0002383363,6,1
2.505836e-05,0.0002401191,6,1
-5.030202e-05,0.0002386605,6,1
-0.0001326312,0.0002334744,6,1
-0.0002109087,0.0002321778,6,1
-0.0002694143,0.0002372019,6,1
-0.0003016653,0.00024255,6,1
-0.0003126857,0.0002407673,6,1
-0.0003078238,0.0002282883,6,1
-0.0002963172,0.0002021958,6,1
-0.0002865932,0.0001592484,6,1
-0.000273628,0.0001002567,6,1
-0.0002357047,3.413401e-05,6,1
-0.000152079,-3.393342e-05,6,1
-1.724069e-05,-9.924574e-05,6,1
0.0001662173,-0.0001621271,6,1
0.000393757,-0.0002206326,6,1
0.0006601926,-0.0002655248,6,1
0.0009439692,-0.0002921034,6,1
0.001192578,-0.0003000446,6,1
0.001344433,-0.0002924276,6,1
0.001356588,-0.0002755728,6,1
0.001230015,-0.0002551526,6,1
0.001012847,-0.0002370013,6,1
0.0007640765,-0.0002272773,6,1
0.0005292437,-0.0002310048,6,1
0.0003253654,-0.0002460769,6,1
0.0001551968,-0.0002677937,6,1
2.619281e-05,-0.0002869174,6,1
-5.565017e-05,-0.0002979378,6,1
-9.584238e-05,-0.0003011791,6,1
-0.0001185315,-0.0002972895,6,1
-0.0001601823,-0.0002830278,6,1
-0.0002459149,-0.0002533699,6,1
-0.0003724878,-0.0002086398,6,1
-0.0005105674,-0.0001616409,6,1
-0.0006227166,-0.0001253383,6,1
-0.0006893255,-0.0001060525,6,1
-0.0007141214,-9.762509e-05,6,1
-0.0007063423,-9.098041e-05,6,1
-0.000675712,-7.590833e-05,6,1
-0.000621258,-4.787104e-05,6,1
-0.000539091,-1.108221e-05,6,1
-0.0004353692,2.39239e-05,6,1
-0.0003267854,4.855783e-05,6,1
-0.0002225774,6.638502e-05,6,1
-0.0001165867,8.486046e-05,6,1
1.072688e-06,0.0001116012,6,1
0.0001313732,0.0001461212,6,1
0.0002615117,0.0001785342,6,1
0.0003665301,0.0001987924,6,1
0.0004125566,0.0002043026,6,1
0.0003903536,0.0001966855,6,1
0.0003266619,0.0001808031,6,1
0.0002715597,0.0001633001,6,1
0.0002678322,0.0001485521,6,1
0.0003397893,0.0001393144,6,1
0.0004736553,0.0001331559,6,1
0.0006219451,0.0001263492,6,1
0.0007339324,0.000113384,6,1
0.0007846588,9.361199e-05,6,1
0.0007772038,7.20573e-05,6,1
0.0007237222,5.99024e-05,6,1
0.0006349103,6.41161e-05,6,1
0.0005183853,8.664318e-05,6,1
0.0003762539,0.0001253768,6,1
0.0002059233,0.0001665414,6,1
1.306552e-05,0.0001950649,6,1
-0.0001838438,0.0002023578,6,1
-0.0003621157,0.0001889064,6,1
-0.0005010056,0.0001615174,6,1
-0.0005846313,0.000128456,6,1
-0.0006058619,9.523264e-05,6,1
-0.0005745832,6.638502e-05,6,1
-0.0005129984,4.223728e-05,6,1
-0.0004491447,1.987227e-05,6,1
-0.0004039285,7.485573e-07,6,1
-0.0003791325,-1.20546e-05,6,1
-0.0003608192,-1.805102e-05,6,1
-0.0003348887,-2.194059e-05,6,1
-0.0003002067,-2.907146e-05,6,1
-0.0002708729,-4.106429e-05,6,1
-0.0002548284,-5.889148e-05,6,1
-0.0002468872,-8.093236e-05,6,1
-0.000231491,-0.000102325,6,1
-0.0001922712,-0.0001219349,6,1
-0.0001242038,-0.0001383035,6,1
-2.534396e-05,-0.0001538618,6,1
8.79397e-05,-0.0001726613,6,1
0.0001874478,-0.0001955125,6,1
0.0002464396,-0.0002203085,6,1
0.0002581083,-0.0002442942,6,1
0.0002303951,-0.0002619593,6,1
0.0001817755,-0.0002702246,6,1
0.0001316974,-0.0002656868,6,1
9.507057e-05,-0.0002489941,6,1
8.210535e-05,-0.0002280877,6,1
9.701536e-05,-0.000206695,6,1
0.0001422316,-0.0001919471,6,1
0.0002231022,-0.0001864369,6,1
0.0003461098,-0.0001878955,6,1
0.0005083373,-0.0001890299,6,1
0.0006875816,-0.0001872472,6,1
0.0008415438,-0.0001848162,6,1
0.000916256,-0.0001833576,6,1
0.0008744431,-0.0001804405,6,1
0.000708326,-0.0001754164,6,1
0.0004371906,-0.000169258,6,1
0.0001015532,-0.0001640719,6,1
-0.0002397564,-0.000159534,6,1
-0.0005245051,-0.0001517549,6,1
-0.0007084492,-0.0001412206,6,1
-0.0007794338,-0.0001293899,6,1
-0.0007630652,-0.0001190177,6,1
-0.0007000218,-0.000107349,6,1
-0.0006142893,-8.887356e-05,6,1
-0.0005050572,-6.650855e-05,6,1
-0.000358064,-4.43056e-05,6,1
-0.0001750923,-2.46957e-05,6,1
2.149292e-05,-6.706447e-06,6,1
0.0002137024,1.047248e-05,6,1
0.0003798194,2.829966e-05,6,1
0.0004919686,4.499239e-05,6,1
0.0005310264,6.071273e-05,6,1
0.0004918066,7.465034e-05,6,1
0.0003772264,8.42122e-05,6,1
0.0002018716,8.210535e-05,6,1
-7.192643e-06,7.011252e-05,6,1
-0.0002162569,5.860588e-05,6,1
-0.0004011734,5.828175e-05,6,1
-0.0005520562,6.703327e-05,6,1
-0.0006680949,8.210535e-05,6,1
-0.0007494517,0.0001004187,6,1
-0.00079483,0.0001180839,6,1
-0.0008001782,0.0001347766,6,1
-0.0007606342,0.0001503349,6,1
-0.0006753879,0.0001645966,6,1
-0.000551732,0.000177886,6,1
-0.0004036044,0.0001921477,6,1
-0.0002379736,0.0002078681,6,1
-5.743289e-05,0.0002234263,6,1
0.0001329939,0.0002397949,6,1
0.0003203414,0.0002584324,6,1
0.0004856481,0.0002731804,6,1
0.0005965008,0.0002785285,6,1
0.0006206486,0.0002735045,6,1
0.0005443158,0.0002626462,6,1
0.0003853296,0.0002478982,6,1
0.0001822617,0.000232502,6,1
-2.129233e-05,0.0002218057,6,1
-0.0001898403,0.0002171058,6,1
-0.0003039342,0.0002156472,6,1
-0.0003598467,0.0002132162,6,1
-0.000370381,0.0002075439,6,1
-0.0003564434,0.0001974959,6,1
-0.0003386162,0.0001822617,6,1
-0.0003261372,0.0001652449,6,1
-0.0003243544,0.0001516314,6,1
-0.0003311612,0.0001412592,6,1
-0.0003442885,0.0001320215,6,1
-0.000362926,0.0001190562,6,1
-0.0003895047,0.0001018773,6,1
-0.000424997,8.161915e-05,6,1
-0.0004578962,6.265751e-05,6,1
-0.0004747511,4.547859e-05,6,1
-0.0004731304,2.959619e-05,6,1
-0.0004588687,1.209313e-05,6,1
-0.0004340726,-1.124428e-05,6,1
-0.0003989045,-4.009191e-05,6,1
-0.0003485022,-6.958779e-05,6,1
-0.0002781658,-9.519411e-05,6,1
-0.0001874093,-0.0001133454,6,1
-8.806324e-05,-0.0001208004,6,1
-8.720959e-07,-0.0001193418,6,1
5.341979e-05,-0.0001133454,6,1
6.654708e-05,-0.0001096179,6,1
4.02925e-05,-0.0001157764,6,1
-9.299493e-06,-0.0001353863,6,1
-6.342931e-05,-0.0001629374,6,1
-0.0001067007,-0.0001919471,6,1
-0.0001329553,-0.0002188499,6,1
-0.0001431655,-0.0002402425,6,1
-0.0001379794,-0.000253856,6,1
-0.0001157764,-0.0002595283,6,1
-7.704279e-05,-0.0002572594,6,1
-2.129233e-05,-0.000248832,6,1
5.439218e-05,-0.0002358668,6,1
0.0001472556,-0.0002209568,6,1
0.0002470879,-0.0002096122,6,1
0.0003438409,-0.0002019951,6,1
0.0004255218,-0.0001958367,6,1
0.0004843516,-0.000189192,6,1
0.0005128751,-0.0001799543,6,1
0.0005110924,-0.000164396,6,1
0.0004884033,-0.0001447861,6,1
0.0004657141,-0.0001209625,6,1
0.0004634451,-9.535618e-05,6,1
0.0004885653,-6.748094e-05,6,1
0.0005232473,-3.749886e-05,6,1
0.0005386435,-8.975362e-06,6,1
0.0005167646,1.841368e-05,6,1
0.0004551798,4.580272e-05,6,1
0.0003624784,6.995045e-05,6,1
0.0002480603,8.583286e-05,6,1
0.0001164632,9.393612e-05,6,1
-2.680255e-05,9.669123e-05,6,1
-0.0001721751,9.766362e-05,6,1
-0.000303286,0.0001044704,6,1
-0.0004016596,0.0001201907,6,1
-0.0004587066,0.0001409351,6,1
-0.0004716718,0.000162976,6,1
-0.0004493068,0.0001843686,6,1
-0.0004066836,0.0002059233,6,1
-0.0003562813,0.0002265056,6,1
-0.0002990722,0.0002446569,6,1
-0.0002324634,0.0002603772,6,1
-0.0001598582,0.0002728562,6,1
-8.368748e-05,0.0002801492,6,1
-2.654814e-06,0.0002790148,6,1
9.053275e-05,0.000267184,6,1
0.0002059233,0.0002438466,6,1
0.0003499994,0.000210137,6,1
0.0005242196,0.0001670276,6,1
0.0007240463,0.0001166253,6,1
0.0009350556,6.346784e-05,6,1
0.001137475,1.533444e-05,6,1
0.001314937,-1.659243e-05,6,1
0.001459338,-2.161646e-05,6,1
0.00157327,3.665733e-06,6,1
0.001666944,5.779555e-05,6,1
0.001748949,0.0001329939,6,1
0.001815558,0.0002146748,6,1
0.001851699,0.0002879283,6,1
0.001830792,0.0003402755,6,1
0.00172626,0.0003683128,6,1
0.001523192,0.0003769022,6,1
0.001227746,0.0003747954,6,1
0.0008686088,0.0003699334,6,1
0.0004937514,0.0003600474,6,1
0.0001470936,0.000339141,6,1
-0.0001522411,0.0003081865,6,1
-0.000412518,0.0002701012,6,1
-0.0006452437,0.0002245608,6,1
-0.0008473391,0.000170431,6,1
-0.00100357,0.000111115,6,1
-0.001096271,5.633696e-05,6,1
-0.001122526,1.679302e-05,6,1
-0.001097892,-3.465141e-06,6,1
-0.001053162,-1.351319e-05,6,1
-0.001014266,-2.907146e-05,6,1
-0.0009951427,-7.088431e-05,6,1
-0.0009899565,-0.0001577513,6,1
-0.0009839601,-0.0002961551,6,1
-0.0009654847,-0.0004700511,6,1
-0.0009342061,-0.0006544815,6,1
-0.0008983897,-0.0008228673,6,1
-0.0008603043,-0.0009581918,6,1
-0.0008167088,-0.001052514,6,1
-0.0007692237,-0.001112802,6,1
-0.0007227109,-0.001149591,6,1
-0.0006784671,-0.001162232,6,1
-0.0006165582,-0.001141001,6,1
-0.000507002,-0.00107342,6,1
-0.0003201407,-0.0009648365,6,1
-4.365734e-05,-0.000832267,6,1
0.0003051073,-0.0006951598,6,1
0.0006785059,-0.0005736109,6,1
0.001010578,-0.0004742648,6,1
0.001238442,-0.0003886944,6,1
0.001324013,-0.0003055549,6,1
0.001263238,-0.0002186879,6,1
0.001074918,-0.0001357104,6,1
0.0008028102,-6.035007e-05,6,1
0.0004968306,1.160693e-05,6,1
0.0002067336,8.729144e-05,6,1
-3.458168e-05,0.0001702689,6,1
-0.0002118811,0.0002529222,6,1
-0.00032322,0.0003219621,6,1
-0.0003634122,0.0003700955,6,1
-0.0003313232,0.0004008879,6,1
-0.0002451045,0.0004217943,6,1
-0.0001459206,0.0004375147,6,1
-8.320128e-05,0.0004459421,6,1
-9.162867e-05,0.0004443214,6,1
-0.0001762268,0.0004318424,6,1
-0.000310903,0.0004146635,6,1
-0.0004562756,0.0003958639,6,1
-0.0005799314,0.0003752816,6,1
-0.0006674466,0.0003521062,6,1
-0.0007197938,0.0003263378,6,1
-0.0007499378,0.0003051073,6,1
-0.0007718167,0.0002978143,6,1
-0.0007914266,0.0003128864,6,1
-0.0008045539,0.0003478926,6,1
-0.0008056884,0.0003893813,6,1
-0.000789968,0.0004188772,6,1
-0.0007491275,0.0004203358,6,1
-0.0006740913,0.0003856538,6,1
-0.0005593491,0.0003271482,6,1
-0.0004008493,0.000267184,6,1
-0.0002170672,0.0002162954,6,1
-4.511593e-05,0.0001775618,6,1
8.615699e-05,0.0001479039,6,1
0.0001569795,0.0001222976,6,1
0.0001615174,9.782569e-05,6,1
0.0001064152,7.935024e-05,6,1
1.59827e-05,6.897806e-05,6,1
-7.833932e-05,6.087479e-05,6,1
-0.0001473791,5.098881e-05,6,1
-0.0001763888,3.834771e-05,6,1
-0.0001771992,2.910999e-05,6,1
-0.0001836818,3.380988e-05,6,1
-0.0002251705,6.006447e-05,6,1
-0.0002875656,0.0001038221,6,1
-0.0003348887,0.0001488763,6,1
-0.0003358611,0.0001793446,6,1
-0.0002846485,0.0001910133,6,1
-0.0002063709,0.0001942546,6,1
-0.0001384655,0.0001992786,6,1
-0.0001081593,0.0002106232,6,1
-0.0001152902,0.0002211574,6,1
-0.0001327933,0.0002205092,6,1
-0.0001261486,0.0002025199,6,1
-7.785312e-05,0.0001728619,6,1
3.179537e-06,0.0001469315,6,1
9.069481e-05,0.0001351007,6,1
0.0001628139,0.0001414213,6,1
0.0002094887,0.0001594105,6,1
0.0002245608,0.0001782101,6,1
0.0002065715,0.0001838824,6,1
0.0001602208,0.0001720516,6,1
9.344993e-05,0.0001461212,6,1
1.857574e-05,0.0001143563,6,1
-5.451572e-05,8.567078e-05,6,1
-0.0001157764,7.043665e-05,6,1
-0.0001558065,7.319176e-05,6,1
-0.0001653684,8.518459e-05,6,1
-0.0001358725,0.0001004187,6,1
-6.504996e-05,0.0001127357,6,1
3.867184e-05,0.0001203528,6,1
0.0001660552,0.0001255389,6,1
0.0003065659,0.0001313732,6,1
0.0004485351,0.0001305629,6,1
0.0005802943,0.0001125736,6,1
0.0006840162,6.768154e-05,6,1
0.0007546768,-1.520357e-06,6,1
0.0008031343,-8.417367e-05,6,1
0.0008511057,-0.0001674752,6,1
0.0009217662,-0.0002426735,6,1
0.001033591,-0.0003143064,6,1
0.001189337,-0.0003909633,6,1
0.001359991,-0.0004726442,6,1
0.001478948,-0.0005575664,6,1
0.001487375,-0.0006398956,6,1
0.001364043,-0.000715418,6,1
0.00113472,-0.0007802441,6,1
0.0008546711,-0.0008321049,6,1
0.0005798081,-0.0008599802,6,1
0.0003454615,-0.0008471771,6,1
0.0001553589,-0.000787375,6,1
-5.247859e-06,-0.0006902979,6,1
-0.000151917,-0.0005724764,6,1
-0.0002972895,-0.0004496309,6,1
-0.0004470379,-0.0003348887,6,1
-0.0005907898,-0.0002297083,6,1
-0.0007146077,-0.0001324691,6,1
-0.000802285,-4.155049e-05,6,1
-0.0008437737,4.288554e-05,6,1
-0.0008473391,0.0001172735,6,1
-0.0008317808,0.0001761032,6,1
-0.0008215707,0.0002195368,6,1
-0.0008306464,0.0002485465,6,1
-0.0008581975,0.0002699391,6,1
-0.0008865589,0.0002931144,6,1
-0.0008927174,0.0003224483,6,1
-0.0008611146,0.0003577785,6,1
-0.0007889956,0.0003932708,6,1
-0.0006888393,0.0004255218,6,1
-0.0005843072,0.0004521006,6,1
-0.0004943609,0.0004662003,6,1
-0.0004186764,0.000465552,6,1
-0.000333268,0.0004535592,6,1
-0.0002081536,0.0004392974,6,1
-4.171256e-05,0.0004268184,6,1
0.0001263492,0.0004175806,6,1
0.0002446569,0.0004096394,6,1
0.0002877662,0.0003969983,6,1
0.0002712356,0.0003752816,6,1
0.0002459534,0.0003409237,6,1
0.0002780424,0.0002910076,6,1
0.0004083429,0.0002263435,6,1
0.0006261588,0.0001551968,6,1
0.0008671501,8.79397e-05,6,1
0.001050446,3.316162e-05,6,1
0.001128562,-1.092015e-05,6,1
0.001103117,-5.030202e-05,6,1
0.001015278,-8.012204e-05,6,1
0.000916418,-9.017008e-05,6,1
0.0008339267,-7.347736e-05,6,1
0.0007543526,-3.344723e-05,6,1
0.0006462549,1.938607e-05,6,1
0.0004963444,7.189524e-05,6,1
0.0003218,0.0001150046,6,1
0.0001526038,0.0001449867,6,1
2.068259e-05,0.0001571416,6,1
-4.414354e-05,0.0001483901,6,1
-3.231277e-05,0.0001172735,6,1
4.061663e-05,6.849186e-05,6,1
0.0001355869,9.338019e-06,6,1
0.0002104611,-5.500191e-05,6,1
0.0002414156,-0.0001248521,6,1
0.0002268297,-0.0002053985,6,1
0.0001782101,-0.0003027998,6,1
0.0001094944,-0.0004198109,6,1
1.711715e-05,-0.0005502735,6,1
-0.0001086455,-0.0006765223,6,1
-0.0002596904,-0.0007782993,6,1
-0.000410249,-0.0008408565,6,1
-0.00053666,-0.0008641939,6,1
-0.0006238511,-0.0008460426,6,1
-0.0006716604,-0.000785106,6,1
-0.0006873807,-0.0006896496,6,1
-0.0006815463,-0.0005732867,6,1
-0.0006677708,-0.000452224,6,1
-0.0006604778,-0.000343154,6,1
-0.0006702017,-0.0002541802,6,1
-0.0006990494,-0.0001895161,6,1
-0.000740376,-0.0001475412,6,1
-0.0007744097,-0.0001186936,6,1
-0.00077522,-9.227693e-05,6,1
-0.000730328,-6.180866e-05,6,1
-0.0006471885,-2.923353e-05,6,1
-0.0005473563,-2.006553e-06,6,1
-0.0004525481,1.257933e-05,6,1
-0.0003715154,2.003433e-05,6,1
-0.0003081479,2.505836e-05,6,1
-0.0002590421,2.910999e-05,6,1
-0.0002201465,3.429608e-05,6,1
-0.0001872472,4.272347e-05,6,1
-0.0001653684,5.341979e-05,6,1
-0.000159372,6.557468e-05,6,1
-0.0001598582,8.080883e-05,6,1
-0.0001332795,0.000101067,6,1
-4.868137e-05,0.0001268354,6,1
9.831188e-05,0.0001579519,6,1
0.0002791768,0.0001906891,6,1
0.0004475628,0.0002185644,6,1
0.0005712186,0.0002388225,6,1
0.0006362069,0.0002563256,6,1
0.0006434998,0.0002762596,6,1
0.0006021731,0.0002983005,6,1
0.0005217887,0.0003172622,6,1
0.000413529,0.0003326584,6,1
0.0002916559,0.0003480546,6,1
0.0001808031,0.0003658818,6,1
9.701536e-05,0.0003846814,6,1
3.688912e-05,0.0004007258,6,1
-1.643037e-05,0.0004104497,6,1
-7.688073e-05,0.0004119083,6,1
-0.0001449482,0.0004028327,6,1
-0.000206695,0.0003848434,6,1
-0.0002457528,0.0003647473,6,1
-0.0002595283,0.0003470822,6,1
-0.0002520733,0.0003337929,6,1
-0.0002224154,0.0003266619,6,1
-0.0001600202,0.000324393,6,1
-5.824322e-05,0.000321638,6,1
7.238143e-05,0.0003136967,6,1
0.0002000889,0.0003010556,6,1
0.0002927903,0.0002876042,6,1
0.0003333067,0.0002764217,6,1
0.000319369,0.0002654013,6,1
0.0002615117,0.0002477361,6,1
0.0001736723,0.0002219677,6,1
6.83298e-05,0.0001869616,6,1
-4.689865e-05,0.0001449867,6,1
-0.0001558065,9.701536e-05,6,1
-0.0002467252,4.628891e-05,6,1
-0.0003152788,-2.330684e-06,6,1
-0.0003638984,-4.592625e-05,6,1
-0.0003942046,-8.190475e-05,6,1
-0.0004063595,-0.0001052422,6,1
-0.000405063,-0.0001109144,6,1
-0.000402794,-0.0001055663,6,1
-0.0004118697,-9.66527e-05,6,1
-0.0004335865,-9.19528e-05,6,1
-0.0004585445,-9.632857e-05,6,1
-0.000474589,-0.0001117248,6,1
-0.0004729683,-0.0001316588,6,1
-0.0004476861,-0.0001483515,6,1
-0.0003966356,-0.0001627754,6,1
-0.0003203028,-0.0001789819,6,1
-0.0002183637,-0.0001995642,6,1
-9.454585e-05,-0.0002237119,6,1
3.364782e-05,-0.0002491561,6,1
0.0001504969,-0.0002692523,6,1
0.0002587566,-0.0002799486,6,1
0.0003723644,-0.0002773555,6,1
0.0004994237,-0.0002598524,6,1
0.0006507927,-0.0002329496,6,1
0.0008336026,-0.0002042641,6,1
0.00103586,-0.0001836818,6,1
0.00122888,-0.0001759026,6,1
0.001377657,-0.0001762268,6,1
0.001453017,-0.000181737,6,1
0.001441511,-0.0001901644,6,1
0.001345244,-0.0002023193,6,1
0.001186581,-0.0002175534,6,1
0.0009980991,-0.0002311669,6,1
0.0008044308,-0.0002402425,6,1
0.0006230795,-0.0002394322,6,1
0.0004595556,-0.0002308428,6,1
0.000316938,-0.0002125294,6,1
0.0001992786,-0.0001900023,6,1
0.0001072255,-0.0001661787,6,1
3.154097e-05,-0.0001442999,6,1
-3.279896e-05,-0.0001266348,6,1
-8.465986e-05,-0.0001135075,6,1
-0.0001209625,-0.0001036215,6,1
-0.0001378173,-9.29252e-05,6,1
-0.0001397621,-7.898758e-05,6,1
-0.0001355484,-5.808115e-05,6,1
-0.000127121,-2.291298e-05,6,1
-0.0001102662,3.235129e-05,6,1
-9.081835e-05,0.0001075496,6,1
-7.769106e-05,0.0001913374,6,1
-8.190475e-05,0.0002696149,6,1
-0.0001094559,0.0003320101,6,1
-0.0001553203,0.0003734989,6,1
-0.0002055606,0.0003976466,6,1
-0.000243808,0.0004164462,6,1
-0.0002617972,0.0004396215,6,1
-0.0002663351,0.0004665244,6,1
-0.0002679557,0.0004895377,6,1
-0.0002763831,0.0004990995,6,1
-0.0002937241,0.0004918066,6,1
-0.0003138202,0.0004652279,6,1
-0.0003358611,0.0004221185,6,1
-0.0003520676,0.0003675024,6,1
-0.0003486642,0.0003104554,6,1
-0.0003100927,0.0002631324,6,1
-0.0002345703,0.0002318537,6,1
-0.0001366828,0.0002090025,6,1
-4.625038e-05,0.0001790204,6,1
7.069105e-06,0.0001261871,6,1
1.193106e-05,5.017848e-05,6,1
-2.275091e-05,-3.490581e-05,6,1
-7.688073e-05,-0.0001086455,6,1
-0.0001293899,-0.0001579134,6,1
-0.0001658546,-0.000179306,6,1
-0.0001771992,-0.0001859507,6,1
-0.0001663408,-0.0001998883,6,1
-0.000144624,-0.0002418632,6,1
-0.0001255003,-0.0003186821,6,1
-0.0001169109,-0.0004194868,6,1
-0.0001229073,-0.0005204534,6,1
-0.0001425172,-0.0005940311,6,1
-0.0001771992,-0.000621096,6,1
-0.0002303566,-0.0006055377,6,1
-0.0002989102,-0.0005671282,6,1
-0.0003726499,-0.000526774,6,1
-0.0004387725,-0.0004899852,6,1
-0.000489661,-0.0004501171,6,1
-0.0005196431,-0.000397608,6,1
-0.0005279084,-0.0003275957,6,1
-0.0005204534,-0.0002408908,6,1
-0.0005115399,-0.0001410586,6,1
-0.0005154294,-3.458168e-05,6,1
-0.000534229,6.249545e-05,6,1
-0.0005518941,0.0001402868,6,1
-0.0005444391,0.0001958752,6,1
-0.0005024642,0.0002320158,6,1
-0.0004318037,0.0002485465,6,1
-0.0003512573,0.0002454672,6,1
-0.0002865932,0.000220023,6,1
-0.0002558008,0.0001694586,6,1
-0.0002648765,9.798775e-05,6,1
-0.0003079858,2.473423e-05,6,1
-0.0003640605,-3.344723e-05,6,1
-0.0004065215,-7.201877e-05,6,1
-0.0004141386,-9.730096e-05,6,1
-0.0003859393,-0.0001141558,6,1
-0.0003279199,-0.0001258245,6,1
-0.0002569353,-0.000137169,6,1
-0.0001938919,-0.0001501342,6,1
-0.0001489998,-0.0001629374,6,1
-0.0001245279,-0.0001707166,6,1
-0.0001130213,-0.0001747682,6,1
-9.859748e-05,-0.000174444,6,1
-6.359137e-05,-0.0001656925,6,1
6.744974e-06,-0.000144462,6,1
0.0001205148,-0.0001104282,6,1
0.0002757735,-7.137051e-05,6,1
0.0004559901,-3.328516e-05,6,1
0.0006324793,-7.100305e-07,6,1
0.0007781762,2.927205e-05,6,1
0.0008757396,5.423012e-05,6,1
0.000921118,7.173317e-05,6,1
0.0009292212,7.513654e-05,6,1
0.0009235489,6.41161e-05,6,1
0.0009167422,4.191315e-05,6,1
0.0009055596,1.1769e-05,6,1
0.0008781706,-1.853722e-05,6,1
0.0008250132,-3.474375e-05,6,1
0.0007486803,-2.372331e-05,6,1
0.0006574374,1.792748e-05,6,1
0.0005660325,7.983644e-05,6,1
0.000490348,0.000148228,6,1
0.0004449697,0.000210137,6,1
0.0004397836,0.0002542187,6,1
0.0004686312,0.0002767458,6,1
0.0005135234,0.0002817699,6,1
0.00053994,0.0002795009,6,1
0.0005091476,0.0002760976,6,1
0.0003989431,0.0002744769,6,1
0.0002115956,0.0002752873,6,1
-2.388537e-05,0.0002764217,6,1
-0.0002593663,0.0002749631,6,1
-0.0004429862,0.000269777,6,1
-0.0005395772,0.0002611876,6,1
-0.0005374703,0.0002503292,6,1
-0.000452224,0.0002391467,6,1
-0.0003194925,0.0002318537,6,1
-0.0001703924,0.0002302331,6,1
-2.712668e-05,0.0002378501,6,1
9.231547e-05,0.0002545429,6,1
0.0001773998,0.0002736666,6,1
0.0002193747,0.0002877662,6,1
0.0002137024,0.000289549,6,1
0.0001650828,0.0002756114,6,1
9.199134e-05,0.0002438466,6,1
1.144487e-05,0.0001991165,6,1
-7.088431e-05,0.0001534141,6,1
-0.0001679614,0.0001182459,6,1
-0.0002877277,9.63671e-05,6,1
-0.0004167317,8.875003e-05,6,1
-0.000524343,9.879808e-05,6,1
-0.0005802555,0.0001266733,6,1
-0.0005757177,0.0001670276,6,1
-0.0005288809,0.0002112714,6,1
-0.0004732924,0.0002451431,6,1
-0.0004366657,0.0002582704,6,1
-0.0004280762,0.0002478982,6,1
-0.0004340726,0.000217592,6,1
-0.0004309934,0.0001736723,6,1
-0.0003979321,0.0001201907,6,1
-0.0003199787,6.427817e-05,6,1
-0.0001864369,1.582063e-05,6,1
1.403791e-05,-1.967167e-05,6,1
0.0002804733,-3.847125e-05,6,1
0.0005989318,-4.025397e-05,6,1
0.00092128,-3.150244e-05,6,1
0.001180747,-1.950961e-05,6,1
0.001324175,-7.030578e-06,6,1
0.001334871,8.527692e-06,6,1
0.001233418,3.170304e-05,6,1
0.001066329,6.444023e-05,6,1
0.0008812498,9.912221e-05,6,1
0.0007081639,0.0001231079,6,1
0.0005529052,0.0001247285,6,1
0.0004114222,9.847395e-05,6,1
0.0002701012,4.839576e-05,6,1
0.0001138702,-1.950961e-05,6,1
-5.710876e-05,-0.0001010285,6,1
-0.0002254946,-0.0001859507,6,1
-0.0003716775,-0.0002699005,6,1
-0.0004851232,-0.0003533641,6,1
-0.0005726385,-0.0004345588,6,1
-0.0006416783,-0.0005074882,6,1
-0.0006971046,-0.0005719902,6,1
-0.0007366485,-0.000628551,6,1
-0.0007578791,-0.0006760361,6,1
-0.0007624169,-0.0007133111,6,1
-0.000750424,-0.0007419967,6,1
-0.000717849,-0.000762579,6,1
-0.0006617744,-0.00077992,6,1
-0.0005854416,-0.0007932093,6,1
-0.0005016539,-0.0007945059,6,1
-0.0004262935,-0.0007747339,6,1
-0.0003673017,-0.0007311383,6,1
-0.0003241924,-0.0006642053,6,1
-0.0002976137,-0.000576366,6,1
-0.0002908069,-0.000469727,6,1
-0.0003044204,-0.0003465574,6,1
-0.0003274337,-0.0002180396,6,1
-0.0003439643,-0.0001013526,6,1
-0.0003413713,-6.706447e-06,6,1
-0.0003206269,6.508849e-05,6,1
-0.0002887001,0.0001216493,6,1
-0.0002515871,0.0001746447,6,1
-0.0002102605,0.0002321778,6,1
-0.0001629374,0.0002992729,6,1
-0.0001067007,0.0003710679,6,1
-2.664048e-05,0.0004376768,6,1
9.296373e-05,0.0004901859,6,1
0.0002508154,0.0005281092,6,1
0.0004243874,0.0005511225,6,1
0.0005754323,0.0005634395,6,1
0.0006720233,0.0005734875,6,1
0.0007044364,0.0005851563,6,1
0.0006835299,0.000599256,6,1
0.00061919,0.0006146522,6,1
0.0005234093,0.0006285898,6,1
0.0004086671,0.0006363689,6,1
0.000287118,0.000626807,6,1
0.0001748067,0.0005885597,6,1
9.053275e-05,0.0005133613,6,1
5.034055e-05,0.0003984569,6,1
7.108491e-05,0.0002485465,6,1
0.0001775618,7.270556e-05,6,1
0.0003777126,-0.0001112386,6,1
0.0006447964,-0.0002865932,6,1
0.0009070183,-0.0004381243,6,1
0.001072163,-0.0005497872,6,1
0.001066977,-0.0006065101,6,1
0.0008695811,-0.0006014861,6,1
0.0005222749,-0.0005424943,6,1
0.0001143563,-0.0004463896,6,1
-0.0002621213,-0.0003337542,6,1
-0.0005444391,-0.0002276015,6,1
-0.0007214144,-0.000144624,6,1
-0.0008162226,-8.336335e-05,6,1
-0.0008653284,-3.393342e-05,6,1
-0.0008936898,1.031041e-05,6,1
-0.0009100584,5.325772e-05,6,1
-0.0009116791,9.020862e-05,6,1
-0.0009001724,0.0001169494,6,1
-0.0008800763,0.0001318594,6,1
-0.0008567389,0.00013818,6,1
-0.0008392359,0.0001435281,6,1
-0.0008338877,0.0001542244,6,1
-0.0008390738,0.000168162,6,1
-0.0008379394,0.0001796687,6,1
-0.000804878,0.0001820997,6,1
-0.0007220627,0.0001782101,6,1
-0.0005831727,0.0001722137,6,1
-0.0003967976,0.0001623277,6,1
-0.0001927574,0.0001430419,6,1
-6.868513e-06,0.0001077117,6,1
0.0001355869,5.390598e-05,6,1
0.000230071,-1.367526e-05,6,1
0.0002924662,-9.454585e-05,6,1
0.0003389789,-0.0001898403,6,1
0.000371392,-0.000298424,6,1
0.0003780367,-0.0004164075,6,1
0.0003537269,-0.0005272602,6,1
0.0003114278,-0.0006147755,6,1
0.0002811216,-0.0006680949,6,1
0.0002874421,-0.0006898117,6,1
0.0003467581,-0.0006844635,6,1
0.0004636072,-0.0006554538,6,1
0.0006219451,-0.0006045654,6,1
0.0007955172,-0.0005374703,6,1
0.0009528828,-0.0004593548,6,1
0.001064708,-0.0003694086,6,1
0.0011002,-0.000266173,6,1
0.001037319,-0.0001541859,6,1
0.0008771982,-4.236082e-05,6,1
0.0006548444,5.601284e-05,6,1
0.0004201737,0.000130887,6,1
0.0002261814,0.0001814514,6,1
0.0001069013,0.0002164575,6,1
6.476436e-05,0.0002419018,6,1
6.703327e-05,0.0002631324,6,1
7.011252e-05,0.0002799871,6,1
4.499239e-05,0.0002961937,6,1
-1.853722e-05,0.0003145071,6,1
-0.0001149661,0.0003381686,6,1
-0.0002293842,0.0003624784,6,1
-0.0003410472,0.0003835469,6,1
-0.0004361795,0.0004018603,6,1
-0.0005040849,0.0004174185,6,1
-0.0005387668,0.0004305459,6,1
-0.0005413599,0.0004412422,6,1
-0.0005225603,0.0004478869,6,1
-0.0004927403,0.0004499937,6,1
-0.0004488206,0.000448211,6,1
-0.0003732982,0.0004439973,6,1
-0.0002572594,0.0004404318,6,1
-0.0001125351,0.0004355699,6,1
2.829966e-05,0.0004263322,6,1
0.0001273216,0.000410936,6,1
0.0001618415,0.0003918123,6,1
0.0001331559,0.0003718782,6,1
6.606088e-05,0.0003550234,6,1
-6.220252e-06,0.0003422202,6,1
-5.548811e-05,0.0003308757,6,1
-6.342931e-05,0.0003183966,6,1
-2.809907e-05,0.0003023522,6,1
3.802358e-05,0.0002843629,6,1
0.0001174356,0.0002644289,6,1
0.0001906891,0.0002394708,6,1
0.0002397949,0.0002078681,6,1
0.0002525981,0.0001728619,6,1
0.0002321778,0.0001427178,6,1
0.0001820997,0.0001237561,6,1
0.0001030118,0.000113546,6,1
7.069105e-06,0.00010366,6,1
-6.472583e-05,9.020862e-05,6,1
-5.791909e-05,7.465034e-05,6,1
4.645098e-05,5.649903e-05,6,1
0.0002159713,3.867184e-05,6,1
0.0003968363,2.34377e-05,6,1
0.0005426951,9.66215e-06,6,1
0.0006287518,-3.14101e-06,6,1
0.0006494962,-1.383732e-05,6,1
0.0006076833,-2.712668e-05,6,1
0.0005107683,-5.095028e-05,6,1
0.0003683128,-8.465986e-05,6,1
0.0001937684,-0.0001230693,6,1
5.124321e-06,-0.0001561307,6,1
-0.000171851,-0.000176875,6,1
-0.0003196545,-0.0001836818,6,1
-0.0004382863,-0.0001810887,6,1
-0.0005361738,-0.0001754164,6,1
-0.0006233649,-0.0001734716,6,1
-0.0007043975,-0.000176713,6,1
-0.0007784614,-0.0001833576,6,1
-0.0008321049,-0.0001883817,6,1
-0.0008426392,-0.0001878955,6,1
-0.0007941817,-0.0001830335,6,1
-0.0006907841,-0.0001762268,6,1
-0.0005544871,-0.0001684476,6,1
-0.0004235384,-0.000164396,6,1
-0.0003303509,-0.0001652063,6,1
-0.0002865932,-0.0001666649,6,1
-0.0002830278,-0.0001627754,6,1
-0.0002921034,-0.0001472171,6,1
-0.0002737901,-0.0001183694,6,1
-0.0001989159,-8.044617e-05,6,1
-5.808115e-05,-4.527799e-05,6,1
0.0001375317,-2.161646e-05,6,1
0.000361506,-1.578211e-05,6,1
0.0005835356,-2.583016e-05,6,1
0.0007750969,-4.641245e-05,6,1
0.0008968081,-7.363943e-05,6,1
0.0009123664,-0.0001099421,6,1
0.0008092928,-0.0001541859,6,1
0.0006097901,-0.0002068571,6,1
0.000368961,-0.0002643903,6,1
0.0001574657,-0.0003259751,6,1
2.943412e-05,-0.0003838324,6,1
5.772582e-06,-0.0004295348,6,1
7.108491e-05,-0.0004574101,6,1
0.0001880961,-0.0004616237,6,1
0.0003107795,-0.0004426621,6,1
0.0003934329,-0.0004003631,6,1
0.0004031568,-0.0003403989,6,1
0.0003336308,-0.0002702246,6,1
0.0002083542,-0.0001985918,6,1
6.703327e-05,-0.0001331174,6,1
-5.808115e-05,-7.769106e-05,6,1
-0.0001504584,-3.409549e-05,6,1
-0.0002109087,1.234753e-06,6,1
-0.0002379736,3.024445e-05,6,1
-0.0002267911,5.260946e-05,6,1
-0.000181737,6.914012e-05,6,1
-0.0001175591,8.080883e-05,6,1
-5.451572e-05,8.615699e-05,6,1
-1.286493e-05,8.583286e-05,6,1
-2.168618e-06,7.999851e-05,6,1
-1.902341e-05,6.930219e-05,6,1
-4.511593e-05,6.168512e-05,6,1
-6.245691e-05,6.249545e-05,6,1
-6.991193e-05,7.513654e-05,6,1
-7.704279e-05,9.409818e-05,6,1
-8.773911e-05,0.0001153287,6,1
-9.956988e-05,0.0001347766,6,1
-0.0001071869,0.0001490383,6,1
-0.0001094559,0.0001564933,6,1
-0.0001159385,0.0001540623,6,1
-0.0001350622,0.0001406109,6,1
-0.0001658546,0.0001141943,6,1
-0.0002036158,7.108491e-05,6,1
-0.0002378116,1.22552e-05,6,1
-0.0002603387,-5.062615e-05,6,1
-0.0002650386,-0.0001010285,6,1
-0.0002483458,-0.0001279313,6,1
-0.0002191741,-0.0001306864,6,1
-0.0001922712,-0.0001131834,6,1
-0.0001814128,-8.206682e-05,6,1
-0.0001906506,-4.398147e-05,6,1
-0.0002034537,-7.516774e-06,6,1
-0.0002005366,2.181705e-05,6,1
-0.0001630995,4.337174e-05,6,1
-8.287715e-05,6.152305e-05,6,1
3.073064e-05,7.983644e-05,6,1
0.0001490383,9.377406e-05,6,1
0.0002388225,9.928428e-05,6,1
0.0002760976,9.571884e-05,6,1
0.0002467637,8.486046e-05,6,1
0.0001616794,6.768154e-05,6,1
5.179914e-05,4.612685e-05,6,1
-4.770897e-05,2.635488e-05,6,1
-0.0001161005,1.582063e-05,6,1
-0.0001527273,1.241726e-05,6,1
-0.0001747682,1.582063e-05,6,1
-0.0002003745,2.441009e-05,6,1
-0.0002454286,3.494434e-05,6,1
-0.0003196545,4.02925e-05,6,1
-0.0004178661,3.705119e-05,6,1
-0.0005246671,2.619281e-05,6,1
-0.000623689,1.679302e-05,6,1
-0.0006974287,1.938607e-05,6,1
-0.0007416725,3.883391e-05,6,1
-0.0007583653,6.897806e-05,6,1
-0.0007517206,9.620504e-05,6,1
-0.00072028,0.0001122495,6,1
-0.0006630709,0.0001200286,6,1
-0.0005726385,0.000128294,6,1
-0.0004462276,0.0001372076,6,1
-0.0002852967,0.0001404489,6,1
-9.551824e-05,0.0001326697,6,1
0.0001193804,0.0001130598,6,1
0.0003537269,8.923623e-05,6,1
0.0005880735,6.654708e-05,6,1
0.0007926,4.434413e-05,6,1
0.0009334349,1.663096e-05,6,1
0.0009982612,-1.772689e-05,6,1
0.0009946957,-5.565017e-05,6,1
0.0009465622,-9.373552e-05,6,1
0.0008757396,-0.0001269589,6,1
0.0007972999,-0.0001532135,6,1
0.0007193465,-0.0001695821,6,1
0.0006507927,-0.0001720131,6,1
0.0006007145,-0.0001541859,6,1
0.0005718669,-0.0001126972,6,1
0.0005511225,-5.22468e-05,6,1
0.000520168,7.879432e-06,6,1
0.0004707381,4.855783e-05,6,1
0.0004107739,5.552663e-05,6,1
0.0003577785,2.894792e-05,6,1
0.0003222862,-1.983374e-05,6,1
0.0003046211,-7.396356e-05,6,1
0.0002874421,-0.0001203142,6,1
0.000250005,-0.0001467309,6,1
0.0001835583,-0.0001506204,6,1
9.004655e-05,-0.0001305243,6,1
-2.129233e-05,-8.44978e-05,6,1
-0.0001413827,-1.367526e-05,6,1
-0.0002590421,7.270556e-05,6,1
-0.000370543,0.0001589243,6,1
-0.0004749131,0.0002297469,6,1
-0.0005635628,0.0002762596,6,1
-0.0006269303,0.0002942489,6,1
-0.0006515643,0.0002856594,6,1
-0.0006125065,0.0002556773,6,1
-0.0004815578,0.0002085163,6,1
-0.0002476975,0.0001487142,6,1
6.573675e-05,8.486046e-05,6,1
0.0003955397,2.927205e-05,6,1
0.0006710509,-1.221667e-05,6,1
0.0008407335,-3.571614e-05,6,1
0.0008835187,-4.38194e-05,6,1
0.000812372,-3.992984e-05,6,1
0.0006665131,-3.717473e-05,6,1
0.0004965065,-4.106429e-05,6,1
0.0003478926,-5.305713e-05,6,1
0.0002367157,-6.942573e-05,6,1
0.0001496866,-8.158062e-05,6,1
6.525056e-05,-7.785312e-05,6,1
-2.631635e-05,-5.2733e-05,6,1
-0.0001156143,-7.354709e-06,6,1
-0.0001890299,4.790957e-05,6,1
-0.0002376495,9.798775e-05,6,1
-0.0002575835,0.0001328318,6,1
-0.0002431597,0.0001472556,6,1
-0.0001940539,0.0001441764,6,1
-0.000127121,0.0001347766,6,1
-6.877746e-05,0.0001305629,6,1
-4.122636e-05,0.0001373696,6,1
-4.511593e-05,0.0001547106,6,1
-6.148453e-05,0.0001769136,6,1
-7.153257e-05,0.0001979821,6,1
-7.169464e-05,0.0002146748,6,1
-6.942573e-05,0.0002269918,6,1
-7.704279e-05,0.0002365536,6,1
-9.681477e-05,0.0002430362,6,1
-0.0001203142,0.0002420638,6,1
-0.000134576,0.0002287745,6,1
-0.0001267968,0.0002059233,6,1
-9.66527e-05,0.0001761032,6,1
-5.872941e-05,0.0001378558,6,1
-2.988179e-05,9.571884e-05,6,1
-1.724069e-05,5.325772e-05,6,1
-2.258885e-05,1.047248e-05,6,1
-4.576419e-05,-3.441962e-05,6,1
-8.968389e-05,-7.833932e-05,6,1
-0.000151917,-0.0001229073,6,1
-0.0002122053,-0.0001702304,6,1
-0.0002399184,-0.0002224154,6,1
-0.0002186879,-0.000273628,6,1
-0.000159534,-0.0003143064,6,1
-8.935975e-05,-0.0003340784,6,1
-3.652646e-05,-0.0003277578,6,1
-1.869928e-05,-0.0003006929,6,1
-3.587821e-05,-0.0002621213,6,1
-8.806324e-05,-0.0002212809,6,1
-0.0001721751,-0.0001887058,6,1
-0.0002749245,-0.0001762268,6,1
-0.0003752429,-0.0001901644,6,1
-0.0004540067,-0.0002344082,6,1
-0.0005006815,-0.0002995585,6,1
-0.0005181845,-0.0003692465,6,1
-0.0005211017,-0.0004262935,6,1
-0.0005256396,-0.0004609755,6,1
-0.0005322842,-0.0004664857,6,1
-0.0005253154,-0.0004397449,6,1
-0.0004741028,-0.0003846427,6,1
-0.000360333,-0.0003091203,6,1
-0.0001903264,-0.0002263049,6,1
1.095867e-05,-0.0001512687,6,1
0.0002033302,-9.422172e-05,6,1
0.0003440029,-5.046408e-05,6,1
0.0004047775,-8.327101e-06,6,1
0.0003846814,4.35338e-05,6,1
0.0003010556,0.0001107909,6,1
0.0001808031,0.0001885823,6,1
5.552663e-05,0.0002692908,6,1
-4.80331e-05,0.0003461098,6,1
-0.0001086455,0.0004098015,6,1
-0.0001143178,0.0004533971,6,1
-7.380149e-05,0.0004759242,6,1
-1.902341e-05,0.0004793275,6,1
1.468618e-05,0.0004639314,6,1
1.371378e-05,0.0004286011,6,1
-1.545797e-05,0.0003799815,6,1
-5.451572e-05,0.0003294171,6,1
-8.984595e-05,0.0002843629,6,1
-0.0001151281,0.0002464396,6,1
-0.0001305243,0.0002143507,6,1
-0.0001407345,0.0001867996,6,1
-0.0001472171,0.0001649207,6,1
-0.0001311726,0.0001470936,6,1
-7.282909e-05,0.0001321835,6,1
3.316162e-05,0.000123432,6,1
0.0001624898,0.0001188942,6,1
0.0002790148,0.0001119254,6,1
0.0003568061,0.0001012291,6,1
0.000388733,9.280167e-05,6,1
0.000388895,9.020862e-05,6,1
0.0003793332,9.069481e-05,6,1
0.0003765781,8.907416e-05,6,1
0.0003854917,8.761557e-05,6,1
0.0003995914,8.696731e-05,6,1
0.0004112601,8.761557e-05,6,1
0.0004188772,8.729144e-05,6,1
0.0004195254,7.789165e-05,6,1
0.0004104497,5.017848e-05,6,1
0.0003932708,1.558884e-06,6,1
0.0003650715,-6.326724e-05,6,1
0.0003154794,-0.0001303623,6,1
0.0002367157,-0.0001823853,6,1
0.0001339663,-0.0002063709,6,1
2.295151e-05,-0.0002000504,6,1
-8.093236e-05,-0.000171851,6,1
-0.0001759026,-0.000137007,6,1
-0.0002619593,-0.0001063766,6,1
-0.0003373197,-8.903562e-05,6,1
-0.0003930701,-9.2439e-05,6,1
-0.0004185144,-0.0001170729,6,1
-0.0004094387,-0.0001618029,6,1
-0.0003716775,-0.0002229016,6,1
-0.0003190063,-0.0002904828,6,1
-0.0002608248,-0.0003514194,6,1
-0.0002021572,-0.0003961493,6,1
-0.0001549962,-0.0004181903,6,1
-0.0001310105,-0.0004139766,6,1
-0.0001365208,-0.000385291,6,1
-0.000166989,-0.0003436402,6,1
-0.0002128535,-0.0003023136,6,1
-0.0002543422,-0.000268604,6,1
-0.0002752487,-0.0002452666,6,1
-0.000273628,-0.0002326255,6,1
-0.0002494803,-0.0002329496,6,1
-0.0002058847,-0.000248832,6,1
-0.0001449482,-0.0002822175,6,1
-7.23429e-05,-0.0003264613,6,1
-3.951337e-06,-0.0003650328,6,1
3.721326e-05,-0.0003783222,6,1
3.380988e-05,-0.0003540124,6,1
-1.464765e-05,-0.0002934,6,1
-8.417367e-05,-0.0002094502,6,1
-0.0001496481,-0.0001193418,6,1
-0.0002050744,-3.733679e-05,6,1
-0.0002545043,2.878586e-05,6,1
-0.0002966413,7.983644e-05,6,1
-0.0003246786,0.000123432,6,1
-0.0003365093,0.0001675138,6,1
-0.0003410472,0.0002161334,6,1
-0.0003525538,0.0002600531,6,1
-0.0003773498,0.0002926282,6,1
-0.0004112214,0.0003115899,6,1
-0.0004412035,0.000316776,6,1
-0.0004538446,0.0003132105,6,1
-0.0004395829,0.0003091589,6,1
-0.0003904771,0.000309321,6,1
-0.0003040963,0.0003154794,6,1
-0.0001856265,0.0003287688,6,1
-4.90055e-05,0.0003475684,6,1
7.756752e-05,0.0003700955,6,1
0.0001762653,0.0003901916,6,1
0.00024255,0.0004020224,6,1
0.0002867939,0.0004044533,6,1
0.0003333067,0.000401212,6,1
0.0004106118,0.0003942432,6,1
0.0005323229,0.000386302,6,1
0.0006798024,0.0003757678,6,1
0.0008193408,0.0003616681,6,1
0.0009251696,0.0003428685,6,1
0.0009966405,0.0003203414,6,1
0.001052391,0.0002963557,6,1
0.001103766,0.0002684805,6,1
0.001142013,0.0002406053,6,1
0.001144282,0.0002161334,6,1
0.001105873,0.0001957132,6,1
0.001051419,0.0001757791,6,1
0.001025326,0.000155521,6,1
0.001060818,0.0001347766,6,1
0.001160003,0.0001120874,6,1
0.001284469,8.777764e-05,6,1
0.00138025,6.03886e-05,6,1
0.001411042,3.024445e-05,6,1
0.001356912,1.720949e-06,6,1
0.001219319,-1.886135e-05,6,1
0.001017547,-3.117831e-05,6,1
0.0007681281,-3.976777e-05,6,1
0.0004824068,-4.981582e-05,6,1
0.0001662173,-6.213279e-05,6,1
-0.0001648822,-7.493595e-05,6,1
-0.0004888507,-8.465986e-05,6,1
-0.0007757063,-9.017008e-05,6,1
-0.0009967634,-9.389759e-05,6,1
-0.00113776,-0.0001034594,6,1
-0.001212148,-0.0001267968,6,1
-0.001238889,-0.0001575893,6,1
-0.001237754,-0.0001853024,6,1
-0.001230948,-0.0002021572,6,1
-0.001238565,-0.0002063709,6,1
-0.001256068,-0.0002049123,6,1
-0.00126255,-0.0002070192,6,1
-0.001236944,-0.0002156086,6,1
-0.001160611,-0.0002233878,6,1
-0.001025287,-0.0002266291,6,1
-0.0008348601,-0.0002261429,6,1
-0.0006071584,-0.0002225774,6,1
-0.0003789705,-0.0002175534,6,1
-0.0001896782,-0.0002117191,6,1
-6.521203e-05,-0.0002058847,6,1
-1.059602e-05,-0.0001976194,6,1
-1.140634e-05,-0.0001878955,6,1
-4.462973e-05,-0.000174444,6,1
-9.130454e-05,-0.0001548341,6,1
-0.0001439758,-0.0001264727,6,1
-0.0001883817,-9.098041e-05,6,1
-0.0002084778,-5.240886e-05,6,1
-0.0001932436,-1.837515e-05,6,1
-0.0001415448,4.151929e-06,6,1
-6.132246e-05,1.290346e-05,6,1
4.304761e-05,1.22552e-05,6,1
0.0001616794,8.689758e-06,6,1
0.0002679943,1.144487e-05,6,1
0.0003250413,2.489629e-05,6,1
0.0003010556,4.288554e-05,6,1
0.000190365,5.585077e-05,6,1
1.614476e-05,6.281957e-05,6,1
-0.0001674752,6.557468e-05,6,1
-0.0002998826,6.946425e-05,6,1
-0.0003468815,7.886404e-05,6,1
-0.0003042584,9.733949e-05,6,1
-0.0001935677,0.0001227837,6,1
-5.176061e-05,0.0001514693,6,1
8.097089e-05,0.0001799928,6,1
0.000170593,0.0002054371,6,1
0.0002008992,0.0002255332,6,1
0.0001765894,0.0002397949,6,1
0.0001150046,0.0002456293,6,1
3.18651e-05,0.0002444948,6,1
-6.375344e-05,0.0002344468,6,1
-0.0001648822,0.0002140265,6,1
-0.0002643903,0.0001809652,6,1
-0.0003494746,0.0001320215,6,1
-0.0004092767,6.395404e-05,6,1
-0.0004369898,-1.724069e-05,6,1
-0.0004390967,-0.0001010285,6,1
-0.00042759,-0.0001759026,6,1
-0.0004081422,-0.0002350565,6,1
-0.0003794566,-0.0002733039,6,1
-0.0003400748,-0.0002925897,6,1
-0.0002901587,-0.000301017,6,1
-0.000228898,-0.000310903,6,1
-0.0001601823,-0.0003277578,6,1
-9.730096e-05,-0.0003478539,6,1
-5.192267e-05,-0.0003611433,6,1
-3.069211e-05,-0.0003621157,6,1
-3.21507e-05,-0.0003465574,6,1
-5.062615e-05,-0.0003117133,6,1
-7.169464e-05,-0.0002567732,6,1
-7.801519e-05,-0.0001861127,6,1
-4.85193e-05,-0.0001138316,6,1
2.894792e-05,-5.078821e-05,6,1
0.0001435281,1.234753e-06,6,1
0.0002652392,4.742337e-05,6,1
0.0003610198,8.875003e-05,6,1
0.0004086671,0.0001235941,6,1
0.0004016982,0.0001517934,6,1
0.0003498373,0.0001748067,6,1
0.000274639,0.0001924718,6,1
0.0001996027,0.0002033302,6,1
0.0001513072,0.0002096508,6,1
0.0001577899,0.0002115956,6,1
0.000242388,0.0002114335,6,1
0.0004119083,0.0002109473,6,1
0.0006387999,0.0002104611,6,1
0.0008613158,0.0002067336,6,1
0.00100993,0.0001981441,6,1
0.00103116,0.0001843686,6,1
0.0009107458,0.000168,6,1
0.0006817472,0.000155683,6,1
0.0004166082,0.0001485521,6,1
0.0001892305,0.0001459591,6,1
3.299956e-05,0.0001428799,6,1
-5.791909e-05,0.000128456,6,1
-0.0001005423,9.328786e-05,6,1
-0.0001067007,3.591673e-05,6,1
-8.741498e-05,-3.863332e-05,6,1
-5.565017e-05,-0.0001243659,6,1
-1.772689e-05,-0.0002169052,6,1
3.526847e-05,-0.0003112272,6,1
0.0001213252,-0.0004065215,6,1
0.0002488706,-0.0005032745,6,1
0.0003997535,-0.0006000275,6,1
0.0005334574,-0.0006893255,6,1
0.0006021731,-0.0007606342,6,1
0.0005783495,-0.0007985575,6,1
0.0004666864,-0.0007919128,6,1
0.0002966799,-0.0007395657,6,1
0.0001044704,-0.0006502678,6,1
-7.363943e-05,-0.0005356876,6,1
-0.0002078295,-0.0004112214,6,1
-0.0002878898,-0.0002953447,6,1
-0.0003160891,-0.0001997262,6,1
-0.0003079858,-0.0001248521,6,1
-0.0002882139,-6.748094e-05,6,1
-0.0002825416,-1.950961e-05,6,1
-0.0002977757,2.781346e-05,6,1
-0.0003120375,8.04847e-05,6,1
-0.0002929138,0.0001396385,6,1
-0.0002222533,0.000200251,6,1
-0.0001060525,0.0002558394,6,1
2.570662e-05,0.0003013798,6,1
0.0001341283,0.0003368721,6,1
0.0001863134,0.0003660439,6,1
0.0001634622,0.0003950536,6,1
6.816773e-05,0.0004269804,6,1
-7.931171e-05,0.0004632831,6,1
-0.0002556388,0.0005062304,6,1
-0.0004389346,0.0005543638,6,1
-0.0006047274,0.0005999042,6,1
-0.0007282211,0.0006318311,6,1
-0.00079483,0.0006409068,6,1
-0.0007974231,0.0006248623,6,1
-0.0007500999,0.0005843459,6,1
-0.0006821946,0.0005292437,6,1
-0.0006183409,0.0004694416,6,1
-0.0005645352,0.0004140152,6,1
-0.0005061917,0.0003691231,6,1
-0.0004113835,0.0003349273,6,1
-0.0002564491,0.0003111037,6,1
-2.129233e-05,0.0002976523,6,1
0.0003109416,0.000289549,6,1
0.0007259911,0.0002837146,6,1
0.001164378,0.0002760976,6,1
0.001533078,0.0002650771,6,1
0.001739225,0.0002472499,6,1
0.001732094,0.0002192126,6,1
0.001530971,0.0001790204,6,1
0.00120765,0.0001304008,6,1
0.0008564538,8.226741e-05,6,1
0.0005465847,4.564065e-05,6,1
0.0003077003,2.538249e-05,6,1
0.0001344524,2.116879e-05,6,1
2.693341e-06,3.040651e-05,6,1
-0.0001096179,5.293359e-05,6,1
-0.000213988,8.145709e-05,6,1
-0.0003068514,0.0001044704,6,1
-0.0003734602,0.0001163011,6,1
-0.0004063595,0.0001112771,6,1
-0.0004110594,8.405014e-05,6,1
-0.0004045768,3.332369e-05,6,1
-0.0004031182,-3.053005e-05,6,1
-0.0004164075,-9.179074e-05,6,1
-0.000447362,-0.0001374932,6,1
-0.0004912817,-0.0001645581,6,1
-0.0005428185,-0.0001788198,6,1
-0.0005943552,-0.0001883817,6,1
-0.0006374646,-0.0002029675,6,1
-0.0006635571,-0.0002256567,6,1
-0.0006713362,-0.0002530457,6,1
-0.0006687432,-0.0002773555,6,1
-0.0006570745,-0.0002912931,6,1
-0.0006326026,-0.0002966413,6,1
-0.000583821,-0.0002987481,6,1
-0.0005040849,-0.0003002067,6,1
-0.0004005251,-0.0003053928,6,1
-0.0003000446,-0.0003121996,6,1
-0.0002305186,-0.0003177098,6,1
-0.0002086398,-0.0003193304,6,1
-0.0002266291,-0.000320789,6,1
-0.0002697385,-0.000328244,6,1
-0.0003222476,-0.000342992,6,1
-0.0003682741,-0.0003613053,6,1
-0.000387722,-0.0003750809,6,1
-0.0003715154,-0.0003758912,6,1
-0.0003224097,-0.0003588744,6,1
-0.0002523975,-0.0003259751,6,1
-0.0001658546,-0.0002869174,6,1
-6.423963e-05,-0.0002496423,6,1
4.969229e-05,-0.0002177155,6,1
0.0001584381,-0.0001865989,6,1
0.0002380122,-0.0001483515,6,1
0.0002735045,-9.519411e-05,6,1
0.0002668598,-2.210265e-05,6,1
0.0002373639,6.508849e-05,6,1
0.0002081922,0.0001586002,6,1
0.000192796,0.0002477361,6,1
0.0001867996,0.0003248792,6,1
0.0001824238,0.0003816021,6,1
0.0001820997,0.0004214702,6,1
0.0001960373,0.0004475628,6,1
0.0002188885,0.0004645796,6,1
0.000227478,0.0004786793,6,1
0.0001914995,0.0004919686,6,1
9.977047e-05,0.0005042856,6,1
-1.983374e-05,0.0005123889,6,1
-0.0001224211,0.0005107683,6,1
-0.0001840059,0.0004958582,6,1
-0.0002120432,0.000468145,6,1
-0.0002290601,0.000428277,6,1
-0.0002515871,0.0003770643,6,1
-0.0002797865,0.0003205035,6,1
-0.0002992343,0.0002657254,6,1
-0.0002974516,0.0002164575,6,1
-0.000266011,0.0001707551,6,1
-0.0002131776,0.0001232699,6,1
-0.0001532135,6.508849e-05,6,1
-9.519411e-05,-1.529591e-05,6,1
-4.544006e-05,-0.0001237176,6,1
-9.623623e-06,-0.0002583939,6,1
1.1769e-05,-0.0004121938,6,1
2.149292e-05,-0.0005690731,6,1
2.570662e-05,-0.0007168766,6,1
3.364782e-05,-0.0008418289,6,1
5.260946e-05,-0.0009257787,6,1
8.275361e-05,-0.0009497644,6,1
0.0001166253,-0.0009045482,6,1
0.000148228,-0.0007977472,6,1
0.00018291,-0.0006501057,6,1
0.000239957,-0.0004951713,6,1
0.0003354135,-0.0003634122,6,1
0.0004712243,-0.0002702246,6,1
0.0006358828,-0.0002110708,6,1
0.0008091307,-0.0001749302,6,1
0.0009783271,-0.0001477033,6,1
0.001131479,-0.0001182074,6,1
0.001246708,-7.898758e-05,6,1
0.001299217,-2.89094e-05,6,1
0.001270369,2.846173e-05,6,1
0.001158544,8.729144e-05,6,1
0.0009833511,0.0001436902,6,1
0.0007783383,0.0001965235,6,1
0.0005785116,0.0002435224,6,1
0.0004141773,0.0002809595,6,1
0.0002976523,0.0003065659,6,1
0.00022764,0.0003211517,6,1
0.0001976579,0.0003234207,6,1
0.0001958752,0.0003122381,6,1
0.0002184023,0.0002885766,6,1
0.0002621599,0.0002571359,6,1
0.0003154794,0.0002242366,6,1
0.0003537269,0.0001999268,6,1
0.0003498373,0.0001914995,6,1
0.0002961937,0.000195389,6,1
0.0002000889,0.0002015475,6,1
8.226741e-05,0.0002012234,6,1
-3.409549e-05,0.0001918236,6,1
-0.0001284175,0.0001761032,6,1
-0.0001922712,0.0001574657,6,1
-0.0002303566,0.0001354248,6,1
-0.0002592042,0.0001013911,6,1
-0.0002934,4.45062e-05,6,1
-0.0003446126,-3.798505e-05,6,1
-0.0004209454,-0.0001410586,6,1
-0.0005272602,-0.0002579077,6,1
-0.00065594,-0.0003765395,6,1
-0.0007844578,-0.0004843129,6,1
-0.000881697,-0.0005719902,6,1
-0.0009218892,-0.0006267683,6,1
-0.000894176,-0.0006355198,6,1
-0.0008136295,-0.0005932208,6,1
-0.0007197938,-0.0005039228,6,1
-0.000655778,-0.0003861013,6,1
-0.0006462161,-0.0002664971,6,1
-0.0006797637,-0.0001676373,6,1
-0.0007201179,-9.940781e-05,6,1
-0.0007248178,-6.002594e-05,6,1
-0.0006630709,-3.814712e-05,6,1
-0.0005283947,-1.756482e-05,6,1
-0.0003442885,1.387585e-05,6,1
-0.0001554824,6.168512e-05,6,1
-8.720959e-07,0.0001244044,6,1
0.0001028497,0.0001994406,6,1
0.0001551968,0.0002804733,6,1
0.0001647587,0.0003548613,6,1
0.0001449867,0.0004098015,6,1
0.0001007429,0.0004412422,6,1
3.478228e-05,0.0004550177,6,1
-4.252288e-05,0.0004634451,6,1
-0.0001117248,0.0004760863,6,1
-0.0001405724,0.0004955341,6,1
-9.211487e-05,0.000517575,6,1
5.115087e-05,0.0005366987,6,1
0.0002670219,0.0005485295,6,1
0.0005143337,0.000552419,6,1
0.000752894,0.0005527431,6,1
0.0009480208,0.0005506363,6,1
0.001074432,0.0005446399,6,1
0.001116245,0.0005313505,6,1
0.001066977,0.0005065545,6,1
0.0009365142,0.0004699278,6,1
0.0007498147,0.0004286011,6,1
0.0005446399,0.0003958639,6,1
0.0003653956,0.0003767402,6,1
0.0002482223,0.000366368,6,1
0.0002060853,0.000353889,6,1
0.0002208333,0.0003274723,6,1
0.0002444948,0.0002807975,6,1
0.0002211574,0.0002128921,6,1
0.0001145184,0.0001291043,6,1
-7.072225e-05,3.056858e-05,6,1
-0.0002942103,-8.125649e-05,6,1
-0.0004987367,-0.0002057227,6,1
-0.0006449196,-0.0003353749,6,1
-0.0007248178,-0.000452224,6,1
-0.000755124,-0.0005355255,6,1
-0.0007573929,-0.0005687489,6,1
-0.0007479931,-0.0005525423,6,1
-0.0007410243,-0.0005011677,6,1
-0.0007590136,-0.0004309934,6,1
-0.0008217328,-0.0003574158,6,1
-0.0009226995,-0.0002917793,6,1
-0.001019128,-0.0002374874,6,1
-0.001052676,-0.0001977815,6,1
-0.0009844464,-0.0001721751,6,1
-0.0008076332,-0.0001556445,6,1
-0.0005439529,-0.000144462,6,1
-0.0002446183,-0.0001379794,6,1
3.121684e-05,-0.0001363587,6,1
0.0002433604,-0.0001402483,6,1
0.0003922984,-0.0001480274,6,1
0.0005010443,-0.0001566169,6,1
0.0005930975,-0.0001603444,6,1
0.0006738061,-0.0001564548,6,1
0.0007319876,-0.000149486,6,1
0.0007447907,-0.0001452723,6,1
0.0006968193,-0.0001486757,6,1
0.0005913147,-0.0001580754,6,1
0.0004469145,-0.0001682856,6,1
0.0002916559,-0.0001734716,6,1
0.0001624898,-0.0001695821,6,1
9.085688e-05,-0.0001585616,6,1
8.907416e-05,-0.0001447861,6,1
0.0001595726,-0.0001313347,6,1
0.0002851732,-0.0001164247,6,1
0.0004198496,-9.405965e-05,6,1
0.0004885653,-6.683268e-05,6,1
0.0004300596,-4.398147e-05,6,1
0.0002339606,-3.085418e-05,6,1
-3.847125e-05,-2.745081e-05,6,1
-0.0002899966,-3.182657e-05,6,1
-0.0004379622,-3.911951e-05,6,1
-0.0004544929,-4.349527e-05,6,1
-0.0003664914,-3.798505e-05,6,1
-0.0002298704,-2.161646e-05,6,1
-9.2439e-05,2.04508e-06,6,1
1.290346e-05,2.959619e-05,6,1
6.78436e-05,5.811968e-05,6,1
5.747142e-05,8.405014e-05,6,1
-1.99958e-05,0.0001057669,6,1
-0.0001447861,0.0001226217,6,1
-0.0002754107,0.0001344524,6,1
-0.0003663294,0.000145797,6,1
-0.0003750809,0.0001595726,6,1
-0.0002720074,0.0001756171,6,1
-5.581224e-05,0.000192796,6,1
0.0002303951,0.0002086784,6,1
0.0005135234,0.0002214815,6,1
0.0007094605,0.0002281262,6,1
0.0007598628,0.0002295848,6,1
0.0006686199,0.0002279642,6,1
0.0004892136,0.0002248849,6,1
0.0002853353,0.000217592,6,1
9.717743e-05,0.0002054371,6,1
-6.521203e-05,0.0001940925,6,1
-0.0002021572,0.0001887444,6,1
-0.0003112272,0.0001911753,6,1
-0.0003809152,0.0001971717,6,1
-0.000400039,0.0002034923,6,1
-0.0003687603,0.0002055991,6,1
-0.0003018274,0.0001984683,6,1
-0.0002196603,0.0001816135,6,1
-0.0001387897,0.0001616794,6,1
-7.526008e-05,0.0001417454,6,1
-3.652646e-05,0.000125863,6,1
-2.518189e-05,0.0001140322,6,1
-4.43056e-05,0.0001075496,6,1
-8.806324e-05,0.0001075496,6,1
-0.0001434896,0.0001122495,6,1
-0.0001951884,0.0001150046,6,1
-0.0002358668,0.0001080358,6,1
-0.0002697385,8.79397e-05,6,1
-0.00030831,5.649903e-05,6,1
-0.0003544986,1.97102e-05,6,1
-0.0003959873,-1.821308e-05,6,1
-0.0004130042,-5.240886e-05,6,1
-0.0003933943,-7.898758e-05,6,1
-0.0003361852,-9.632857e-05,6,1
-0.0002558008,-0.0001044318,6,1
-0.0001707166,-0.0001086455,6,1
-0.000102325,-0.0001112386,6,1
-6.39155e-05,-0.0001154523,6,1
-6.197072e-05,-0.0001289037,6,1
-9.486997e-05,-0.0001566169,6,1
-0.0001532135,-0.0001969711,6,1
-0.0002198223,-0.0002394322,6,1
-0.0002752487,-0.0002695764,6,1
-0.0003089583,-0.0002831898,6,1
-0.0003204649,-0.0002820554,6,1
-0.0003162512,-0.0002742763,6,1
-0.0003002067,-0.0002674695,6,1
-0.0002754107,-0.0002689281,6,1
-0.0002485079,-0.0002831898,6,1
-0.0002280877,-0.0003115513,6,1
-0.0002235498,-0.0003473677,6,1
-0.0002368392,-0.0003801049,6,1
-0.0002616352,-0.0004083043,6,1
-0.0002895104,-0.0004287245,6,1
-0.0003156029,-0.0004421759,6,1
-0.000345585,-0.0004538446,6,1
-0.0003922598,-0.0004690787,6,1
-0.0004625961,-0.0004917679,6,1
-0.0005452494,-0.0005198052,6,1
-0.0006223925,-0.0005458977,6,1
-0.0006729569,-0.0005609698,6,1
-0.000680736,-0.0005551354,6,1
-0.0006449196,-0.0005282326,6,1
-0.0005750695,-0.0004818819,6,1
-0.0004867439,-0.0004204592,6,1
-0.0003848048,-0.0003540124,6,1
-0.0002533699,-0.0002916173,6,1
-7.169464e-05,-0.0002342462,6,1
0.0001628139,-0.0001794681,6,1
0.0004227667,-0.0001256624,6,1
0.000656465,-6.958779e-05,6,1
0.0008186926,-1.20546e-05,6,1
0.000894053,4.499239e-05,6,1
0.0008981046,9.798775e-05,6,1
0.0008707156,0.0001440143,6,1
0.0008559676,0.0001837203,6,1
0.0008835187,0.0002231022,6,1
0.0009702237,0.0002662116,6,1
0.001115272,0.0003101313,6,1
0.001301,0.0003534027,6,1
0.001492399,0.0003965121,6,1
0.001650413,0.0004362182,6,1
0.001742953,0.0004649037,6,1
0.001758349,0.0004801379,6,1
0.001699033,0.0004875929,6,1
0.001573432,0.0004965065,6,1
0.001394998,0.0005109303,6,1
0.001184474,0.0005345919,6,1
0.0009604999,0.0005666808,6,1
0.0007415494,0.0006081695,6,1
0.0005436675,0.0006553305,6,1
0.000383871,0.0007021675,6,1
0.000274639,0.000737984,6,1
0.0002161334,0.0007550009,6,1
0.0001950649,0.000750463,6,1
0.0001887444,0.0007209671,6,1
0.0001748067,0.0006601926,6,1
0.0001388282,0.0005704083,6,1
7.837785e-05,0.000465552,6,1
3.665733e-06,0.0003597233,6,1
-7.299116e-05,0.000267184,6,1
-0.0001421931,0.0001926339,6,1
-0.0002053985,0.0001328318,6,1
-0.0002621213,7.886404e-05,6,1
-0.00030831,2.424803e-05,6,1
-0.000342992,-3.231277e-05,6,1
-0.0003758912,-9.114248e-05,6,1
-0.0004136524,-0.0001530514,6,1
-0.0004590307,-0.0002183637,6,1
-0.0005079744,-0.0002838381,6,1
-0.0005510838,-0.0003407231,6,1
-0.0005797693,-0.0003823738,6,1
-0.0005867381,-0.0003993907,6,1
-0.0005698834,-0.0003909633,6,1
-0.0005356876,-0.0003546606,6,1
-0.0004941989,-0.0002976137,6,1
-0.0004549791,-0.0002327876,6,1
-0.0004267797,-0.0001739578,6,1
-0.0004196489,-0.0001363587,6,1
-0.0004321279,-0.0001314967,6,1
-0.0004554653,-0.0001629374,6,1
-0.0004732924,-0.0002186879,6,1
-0.0004737787,-0.0002749245,6,1
-0.0004554653,-0.0003152788,6,1
-0.0004303451,-0.0003313232,6,1
-0.0004143007,-0.0003219235,6,1
-0.0004157593,-0.0002977757,6,1
-0.0004305072,-0.0002677937,6,1
-0.0004510895,-0.0002331117,6,1
-0.0004687546,-0.0001909747,6,1
-0.0004817198,-0.0001428413,6,1
-0.0004860956,-9.260107e-05,6,1
-0.000479613,-5.500191e-05,6,1
-0.0004753993,-4.009191e-05,6,1
-0.0004901472,-4.770897e-05,6,1
-0.0005259637,-6.407757e-05,6,1
-0.0005627525,-7.623246e-05,6,1
-0.0005692351,-7.898758e-05,6,1
-0.0005321222,-7.785312e-05,6,1
-0.0004567618,-8.044617e-05,6,1
-0.0003663294,-8.595638e-05,6,1
-0.0002851347,-9.098041e-05,6,1
-0.000231329,-9.454585e-05,6,1
-0.0002045882,-9.081835e-05,6,1
-0.0001914609,-7.380149e-05,6,1
-0.0001815749,-4.171256e-05,6,1
-0.0001809267,2.369211e-06,6,1
-0.0002002124,5.034055e-05,6,1
-0.0002358668,9.344993e-05,6,1
-0.0002533699,0.0001274836,6,1
-0.0002075054,0.0001573037,6,1
-6.359137e-05,0.0001840444,6,1
0.0001773998,0.0002090025,6,1
0.0004689553,0.0002287745,6,1
0.0007349047,0.0002448189,6,1
0.000903939,0.0002594049,6,1
0.0009541793,0.0002707494,6,1
0.0009131767,0.0002743149,6,1
0.0008374922,0.0002705873,6,1
0.0007770417,0.0002592428,6,1
0.0007562974,0.000242388,6,1
0.0007695867,0.0002209954,6,1
0.0007888725,0.0001973338,6,1
0.0007820658,0.0001712413,6,1
0.0007360392,0.0001427178,6,1
0.0006618132,0.0001083599,6,1
0.0005849942,7.173317e-05,6,1
0.0005318367,4.531652e-05,6,1
0.0005115786,4.013043e-05,6,1
0.0005156302,5.763349e-05,6,1
0.0005240576,9.426025e-05,6,1
0.0005153061,0.0001419075,6,1
0.0004770586,0.0001942546,6,1
0.0004025085,0.0002414156,6,1
0.0002910076,0.0002751252,6,1
0.0001514693,0.0002918179,6,1
-2.654814e-06,0.0002916559,6,1
-0.0001481895,0.000274639,6,1
-0.0002655248,0.0002475741,6,1
-0.0003416954,0.0002182402,6,1
-0.0003765395,0.0001939304,6,1
-0.0003791325,0.0001811273,6,1
-0.0003707051,0.0001785342,6,1
-0.0003695707,0.0001803169,6,1
-0.0003805911,0.0001822617,6,1
-0.000395177,0.0001791825,6,1
-0.0004031182,0.000165569,6,1
-0.0004047388,0.0001422316,6,1
-0.0004099249,0.0001114392,6,1
-0.0004261314,7.221937e-05,6,1
-0.0004543308,2.441009e-05,6,1
-0.0004873921,-3.393342e-05,6,1
-0.0005154294,-0.0001026491,6,1
-0.0005330946,-0.0001807646,6,1
-0.0005411978,-0.0002671454,6,1
-0.0005356876,-0.0003538503,6,1
-0.0005081365,-0.0004308313,6,1
-0.0004494688,-0.0004854474,6,1
-0.0003562813,-0.0005105674,6,1
-0.0002400805,-0.0005055434,6,1
-0.0001107524,-0.0004762096,6,1
2.489629e-05,-0.0004287245,6,1
0.0001636242,-0.0003666535,6,1
0.0002986247,-0.0002938862,6,1
0.000410936,-0.0002232257,6,1
0.0004734932,-0.0001647201,6,1
0.0004694416,-0.0001211246,6,1
0.0003982949,-8.595638e-05,6,1
0.0002790148,-5.370539e-05,6,1
0.0001363972,-2.550602e-05,6,1
-7.100305e-07,-6.058186e-06,6,1
-0.0001007043,1.558884e-06,6,1
-0.0001475412,9.106227e-07,6,1
-0.0001515928,-5.89612e-06,6,1
-0.0001342519,-1.610624e-05,6,1
-0.0001209625,-3.020592e-05,6,1
-0.0001332795,-4.884343e-05,6,1
-0.0001823853,-7.574627e-05,6,1
-0.000261311,-0.0001083214,6,1
-0.0003493125,-0.0001493239,6,1
-0.0004185144,-0.0001998883,6,1
-0.000449793,-0.0002598524,6,1
-0.0004415277,-0.0003190063,6,1
-0.0004139766,-0.000360495,6,1
-0.0003844807,-0.0003736223,6,1
-0.0003595226,-0.0003598467,6,1
-0.0003345645,-0.0003277578,6,1
-0.0003016653,-0.0002874036,6,1
-0.0002476975,-0.0002486699,6,1
-0.0001603444,-0.0002211189,6,1
-3.377136e-05,-0.0002100984,6,1
0.0001302388,-0.0002173914,6,1
0.0003235827,-0.000233922,6,1
0.000532485,-0.0002556388,6,1
0.0007237222,-0.0002749245,6,1
0.0008527263,-0.0002841623,6,1
0.0008924323,-0.0002705488,6,1
0.0008361956,-0.0002229016,6,1
0.0006898505,-0.0001381414,6,1
0.0004736553,-2.631635e-05,6,1
0.0002279642,9.150514e-05,6,1
4.47606e-06,0.0001957132,6,1
-0.000152079,0.0002736666,6,1
-0.0002272773,0.0003250413,6,1
-0.0002337599,0.0003527545,6,1
-0.0001968091,0.0003629646,6,1
-0.0001425172,0.0003649094,6,1
-8.352541e-05,0.0003652335,6,1
-1.189254e-05,0.0003637749,6,1
8.372601e-05,0.0003563199,6,1
0.0002075439,0.0003438409,6,1
0.0003402755,0.000331686,6,1
0.0004439973,0.0003247172,6,1
