EMG1,EMG2,class,user
-0.0003588744,-5.581224e-05,9,1
-0.000377836,-6.456377e-05,9,1
-0.0003917736,-6.699475e-05,9,1
-0.0003930701,-5.127441e-05,9,1
-0.0003933943,-2.275091e-05,9,1
-0.0004053871,3.989864e-06,9,1
-0.0004241867,1.533444e-05,9,1
-0.0004309934,6.258778e-06,9,1
-0.0004008493,-1.918548e-05,9,1
-0.0003130099,-4.80331e-05,9,1
-0.000159534,-6.845333e-05,9,1
5.001642e-05,-7.493595e-05,9,1
0.0002874421,-6.715681e-05,9,1
0.0005153061,-4.932962e-05,9,1
0.0006939021,-3.182657e-05,9,1
0.0007888725,-2.113026e-05,9,1
0.000787576,-1.724069e-05,9,1
0.0007063812,-1.788895e-05,9,1
0.0005914768,-1.902341e-05,9,1
0.0004948858,-1.869928e-05,9,1
0.0004546936,-1.416145e-05,9,1
0.0004772207,-7.840905e-06,9,1
0.0005415607,-1.520357e-06,9,1
0.0006125454,1.072688e-06,9,1
0.0006545202,-2.168618e-06,9,1
0.0006444722,-7.840905e-06,9,1
0.0005778633,-1.189254e-05,9,1
0.0004595556,-1.383732e-05,9,1
0.0003028383,-1.740276e-05,9,1
0.0001265113,-2.388537e-05,9,1
-4.884343e-05,-3.182657e-05,9,1
-0.0002005366,-3.701266e-05,9,1
-0.0003136581,-3.798505e-05,9,1
-0.0003906392,-3.150244e-05,9,1
-0.000439907,-2.031993e-05,9,1
-0.0004664857,-9.785688e-06,9,1
-0.0004658375,-5.409925e-06,9,1
-0.0004340726,-6.706447e-06,9,1
-0.0003755671,-8.327101e-06,9,1
-0.0003039342,-8.651231e-06,9,1
-0.000231329,-6.868513e-06,9,1
-0.0001621271,-3.951337e-06,9,1
-9.29252e-05,-2.238346e-07,9,1
-2.275091e-05,4.962256e-06,9,1
4.628891e-05,1.452411e-05,9,1
0.0001041462,2.748934e-05,9,1
0.0001428799,4.191315e-05,9,1
0.0001600588,5.1475e-05,9,1
0.0001526038,5.455425e-05,9,1
0.000120839,5.374392e-05,9,1
7.756752e-05,5.277153e-05,9,1
5.423012e-05,5.325772e-05,9,1
7.740546e-05,5.1475e-05,9,1
0.0001526038,4.904402e-05,9,1
0.0002595669,5.017848e-05,9,1
0.0003717161,5.536457e-05,9,1
0.0004632831,6.103686e-05,9,1
0.0005086614,6.379197e-05,9,1
0.000487917,6.557468e-05,9,1
0.0003994293,6.816773e-05,9,1
0.0002607014,7.286763e-05,9,1
0.0001064152,7.708133e-05,9,1
-3.425755e-05,7.772959e-05,9,1
-0.0001426792,7.52986e-05,9,1
-0.0002123673,7.384002e-05,9,1
-0.000248832,7.351589e-05,9,1
-0.0002655248,7.465034e-05,9,1
-0.0002673075,7.546067e-05,9,1
-0.0002498044,7.465034e-05,9,1
-0.0002182017,6.881599e-05,9,1
-0.0001820611,5.747142e-05,9,1
-0.000159534,4.483033e-05,9,1
-0.0001663408,3.332369e-05,9,1
-0.0002110708,2.376183e-05,9,1
-0.0002838381,1.468618e-05,9,1
-0.0003611433,6.420843e-06,9,1
-0.0004245108,-1.520357e-06,9,1
-0.0004582204,-5.57199e-06,9,1
-0.0004601652,-4.437533e-06,9,1
-0.0004335865,-2.168618e-06,9,1
-0.0003864254,-2.654814e-06,9,1
-0.0003246786,-7.840905e-06,9,1
-0.0002522354,-1.772689e-05,9,1
-0.0001749302,-2.664048e-05,9,1
-0.0001005423,-2.777494e-05,9,1
-3.182657e-05,-2.080613e-05,9,1
2.619281e-05,-8.165035e-06,9,1
6.476436e-05,2.207145e-06,9,1
7.481241e-05,3.017472e-06,9,1
5.649903e-05,-7.030578e-06,9,1
2.052053e-05,-2.534396e-05,9,1
-2.177852e-05,-4.236082e-05,9,1
-6.699475e-05,-4.997789e-05,9,1
-0.0001190177,-4.495386e-05,9,1
-0.0001794681,-3.101625e-05,9,1
-0.0002451045,-1.659243e-05,9,1
-0.0003164132,-9.461558e-06,9,1
-0.0003917736,-1.286493e-05,9,1
-0.0004593548,-2.177852e-05,9,1
-0.0004997091,-2.988179e-05,9,1
-0.0004992229,-3.036798e-05,9,1
-0.0004659995,-2.161646e-05,9,1
-0.0004228902,-9.947754e-06,9,1
-0.0003912874,-3.465141e-06,9,1
-0.0003723258,-6.058186e-06,9,1
-0.0003470436,-1.497178e-05,9,1
-0.0003005308,-2.323711e-05,9,1
-0.0002418632,-2.145439e-05,9,1
-0.0001976194,-1.25408e-05,9,1
-0.00018433,-3.858999e-07,9,1
-0.0001945401,1.112074e-05,9,1
-0.0002032917,1.97102e-05,9,1
-0.0001909747,2.489629e-05,9,1
-0.0001473791,2.992031e-05,9,1
-7.65566e-05,3.672706e-05,9,1
9.338019e-06,4.677511e-05,9,1
0.0001004187,6.152305e-05,9,1
0.0001895547,7.886404e-05,9,1
0.0002681563,9.53947e-05,9,1
0.0003287688,0.0001047945,9,1
0.0003741471,0.0001038221,9,1
0.0004125566,9.68533e-05,9,1
0.0004525868,9.134307e-05,9,1
0.0004979651,8.988449e-05,9,1
0.0005496639,8.729144e-05,9,1
0.0006110868,8.242948e-05,9,1
0.0006798024,7.691926e-05,9,1
0.000737984,7.335383e-05,9,1
0.00076278,7.157111e-05,9,1
0.0007439804,6.849186e-05,9,1
0.0006841783,6.525056e-05,9,1
0.0005977973,6.330578e-05,9,1
0.0005123889,6.265751e-05,9,1
0.0004585832,6.444023e-05,9,1
0.0004577728,6.395404e-05,9,1
0.0005140096,5.893001e-05,9,1
0.0006101143,4.82337e-05,9,1
0.0007099467,3.624086e-05,9,1
0.0007729901,2.619281e-05,9,1
0.0007644006,2.262738e-05,9,1
0.0006728336,2.505836e-05,9,1
0.0005141716,3.105477e-05,9,1
0.0003111037,3.753739e-05,9,1
9.069481e-05,4.077869e-05,9,1
-0.0001146419,3.737532e-05,9,1
-0.0002703867,2.959619e-05,9,1
-0.0003525538,2.181705e-05,9,1
-0.0003577399,2.035846e-05,9,1
-0.0003031239,2.295151e-05,9,1
-0.0002271153,2.554455e-05,9,1
-0.0001673132,2.76514e-05,9,1
-0.0001430034,3.105477e-05,9,1
-0.0001566169,3.98063e-05,9,1
-0.0001968091,5.487838e-05,9,1
-0.0002431597,6.768154e-05,9,1
-0.000271035,7.20573e-05,9,1
-0.0002621213,6.751948e-05,9,1
-0.0002138259,6.006447e-05,9,1
-0.0001378173,5.325772e-05,9,1
-5.046408e-05,4.807163e-05,9,1
2.538249e-05,4.35338e-05,9,1
7.853991e-05,3.721326e-05,9,1
0.0001190562,2.748934e-05,9,1
0.0001650828,1.193106e-05,9,1
0.0002407673,-7.354709e-06,9,1
0.0003668542,-2.501983e-05,9,1
0.0005389676,-3.749886e-05,9,1
0.0007250187,-4.608832e-05,9,1
0.00088676,-5.338126e-05,9,1
0.000988213,-6.116039e-05,9,1
0.001001665,-6.634648e-05,9,1
0.0009152836,-6.586029e-05,9,1
0.0007434942,-5.662256e-05,9,1
0.0005253541,-4.317115e-05,9,1
0.0003039728,-2.777494e-05,9,1
0.0001026876,-1.562004e-05,9,1
-6.326724e-05,-1.043395e-05,9,1
-0.000189192,-8.651231e-06,9,1
-0.0002794623,-7.678839e-06,9,1
-0.0003467195,-4.599598e-06,9,1
-0.0004021458,-2.006553e-06,9,1
-0.0004515757,-1.520357e-06,9,1
-0.0005058676,-2.81688e-06,9,1
-0.0005690731,-6.544382e-06,9,1
-0.0006342233,-1.448558e-05,9,1
-0.000685598,-2.323711e-05,9,1
-0.0007110422,-3.198864e-05,9,1
-0.0007043975,-3.895745e-05,9,1
-0.0006679329,-4.495386e-05,9,1
-0.0006094273,-4.835724e-05,9,1
-0.0005381186,-4.722278e-05,9,1
-0.0004695649,-4.219875e-05,9,1
-0.0004277521,-3.571614e-05,9,1
-0.0004259694,-3.150244e-05,9,1
-0.000459679,-3.101625e-05,9,1
-0.0005076503,-3.474375e-05,9,1
-0.0005439529,-3.960571e-05,9,1
-0.0005489769,-4.187462e-05,9,1
-0.000519319,-3.782299e-05,9,1
-0.0004705373,-2.664048e-05,9,1
-0.0004267797,-1.448558e-05,9,1
-0.000405063,-6.382317e-06,9,1
-0.0004079801,-2.006553e-06,9,1
-0.0004224039,-7.100305e-07,9,1
-0.0004339106,-1.196227e-06,9,1
-0.0004303451,-1.682422e-06,9,1
-0.0004070078,5.86492e-07,9,1
-0.0003559572,9.66215e-06,9,1
-0.0002635799,2.489629e-05,9,1
-0.0001183694,4.531652e-05,9,1
7.951231e-05,6.687121e-05,9,1
0.0003089969,8.356394e-05,9,1
0.0005342677,9.150514e-05,9,1
0.0007170775,8.956036e-05,9,1
0.0008274441,8.04847e-05,9,1
0.0008564538,6.865393e-05,9,1
0.0008125341,5.633696e-05,9,1
0.0007076777,4.288554e-05,9,1
0.0005585775,3.073064e-05,9,1
0.0003903536,2.327564e-05,9,1
0.0002287745,2.295151e-05,9,1
9.588091e-05,3.105477e-05,9,1
-1.358292e-06,4.596478e-05,9,1
-7.218083e-05,6.200925e-05,9,1
-0.0001306864,7.351589e-05,9,1
-0.0001838438,7.837785e-05,9,1
-0.0002287359,7.983644e-05,9,1
-0.0002509389,8.161915e-05,9,1
-0.0002324634,8.356394e-05,9,1
-0.00016942,8.242948e-05,9,1
-8.093236e-05,7.708133e-05,9,1
1.047248e-05,6.865393e-05,9,1
8.194328e-05,5.876794e-05,9,1
0.0001252147,5.131294e-05,9,1
0.0001394765,5.001642e-05,9,1
0.0001316974,5.552663e-05,9,1
0.0001114392,6.022653e-05,9,1
9.588091e-05,6.055066e-05,9,1
0.0001018773,5.487838e-05,9,1
0.000133318,4.790957e-05,9,1
0.0001746447,4.175109e-05,9,1
0.0002012234,3.316162e-05,9,1
0.0001926339,2.505836e-05,9,1
0.0001488763,2.149292e-05,9,1
8.161915e-05,2.214118e-05,9,1
7.23117e-06,2.34377e-05,9,1
-6.245691e-05,2.39239e-05,9,1
-0.0001105903,2.084466e-05,9,1
-0.0001193418,1.614476e-05,9,1
-8.287715e-05,8.851824e-06,9,1
-6.220252e-06,1.072688e-06,9,1
9.863601e-05,-2.978945e-06,9,1
0.0002047888,-3.14101e-06,9,1
0.0002767458,-2.654814e-06,9,1
0.0002918179,-4.113403e-06,9,1
0.0002576221,-8.813297e-06,9,1
0.0002055991,-1.740276e-05,9,1
0.0001628139,-2.745081e-05,9,1
0.0001316974,-3.766092e-05,9,1
0.0001041462,-4.625038e-05,9,1
7.30297e-05,-5.013995e-05,9,1
3.624086e-05,-4.965376e-05,9,1
-6.220252e-06,-4.608832e-05,9,1
-5.176061e-05,-4.38194e-05,9,1
-0.0001007043,-4.155049e-05,9,1
-0.0001517549,-4.252288e-05,9,1
-0.0002028055,-4.868137e-05,9,1
-0.0002470493,-5.808115e-05,9,1
-0.0002724935,-6.375344e-05,9,1
-0.0002639041,-6.099833e-05,9,1
-0.0002109087,-5.32192e-05,9,1
-0.0001230693,-4.38194e-05,9,1
-2.583016e-05,-3.458168e-05,9,1
5.212327e-05,-2.777494e-05,9,1
9.150514e-05,-2.275091e-05,9,1
9.555677e-05,-1.67545e-05,9,1
7.789165e-05,-8.327101e-06,9,1
5.082674e-05,4.244267e-07,9,1
2.100672e-05,5.286387e-06,9,1
-6.058186e-06,6.096713e-06,9,1
-2.404744e-05,5.448452e-06,9,1
-2.680255e-05,4.313994e-06,9,1
-1.237873e-05,3.503668e-06,9,1
1.484824e-05,1.396819e-06,9,1
4.709924e-05,-1.844488e-06,9,1
7.756752e-05,-1.034161e-06,9,1
0.0001018773,6.90704e-06,9,1
0.0001174356,2.01964e-05,9,1
0.0001287802,3.656499e-05,9,1
0.0001423936,5.131294e-05,9,1
0.0001600588,6.265751e-05,9,1
0.0001824238,6.719535e-05,9,1
0.0002068957,6.751948e-05,9,1
0.0002336365,6.946425e-05,9,1
0.0002589186,7.400208e-05,9,1
0.0002829043,8.194328e-05,9,1
0.0003052694,9.26396e-05,9,1
0.0003321722,0.0001004187,9,1
0.0003679886,0.0001023635,9,1
0.0003969983,9.63671e-05,9,1
0.0003979707,8.648112e-05,9,1
0.0003581026,7.594687e-05,9,1
0.0002765838,6.897806e-05,9,1
0.0001639484,6.622294e-05,9,1
3.93201e-05,7.011252e-05,9,1
-6.958779e-05,7.659513e-05,9,1
-0.0001405724,7.999851e-05,9,1
-0.000166989,7.772959e-05,9,1
-0.0001627754,7.059871e-05,9,1
-0.0001543479,6.200925e-05,9,1
-0.0001663408,5.666109e-05,9,1
-0.0001972953,5.714729e-05,9,1
-0.0002280877,6.087479e-05,9,1
-0.0002344082,6.492643e-05,9,1
-0.0002083157,6.800567e-05,9,1
-0.0001478653,6.881599e-05,9,1
-5.386745e-05,6.541262e-05,9,1
6.816773e-05,5.860588e-05,9,1
0.0001996027,5.017848e-05,9,1
0.0003117519,3.996837e-05,9,1
0.0003772264,2.700314e-05,9,1
0.0003804677,1.695509e-05,9,1
0.000316938,1.533444e-05,9,1
0.0001905271,1.938607e-05,9,1
2.846173e-05,2.441009e-05,9,1
-0.0001326312,2.619281e-05,9,1
-0.0002572594,2.700314e-05,9,1
-0.0003267854,2.457216e-05,9,1
-0.0003418575,1.711715e-05,9,1
-0.0003154408,7.069105e-06,9,1
-0.0002724935,-1.196227e-06,9,1
-0.0002340841,-5.085794e-06,9,1
-0.0002104225,-4.599598e-06,9,1
-0.000201509,-2.654814e-06,9,1
-0.0001955125,-2.492749e-06,9,1
-0.0001809267,-5.89612e-06,9,1
-0.0001567789,-1.399939e-05,9,1
-0.0001323071,-2.647842e-05,9,1
-0.0001157764,-4.284701e-05,9,1
-0.0001029732,-5.986387e-05,9,1
-7.785312e-05,-7.477388e-05,9,1
-2.226472e-05,-8.887356e-05,9,1
6.298164e-05,-9.843541e-05,9,1
0.000163138,-0.0001007043,9,1
0.0002553532,-9.730096e-05,9,1
0.0003180725,-8.887356e-05,9,1
0.0003339549,-7.65566e-05,9,1
0.0002979764,-6.051213e-05,9,1
0.0002208333,-4.365734e-05,9,1
0.0001281319,-3.134038e-05,9,1
4.709924e-05,-2.647842e-05,9,1
-7.030578e-06,-2.745081e-05,9,1
-3.150244e-05,-3.182657e-05,9,1
-3.150244e-05,-3.668853e-05,9,1
-1.772689e-05,-3.798505e-05,9,1
-5.734056e-06,-3.409549e-05,9,1
-8.651231e-06,-2.388537e-05,9,1
-3.036798e-05,-8.651231e-06,9,1
-6.06742e-05,8.527692e-06,9,1
-8.498399e-05,2.522042e-05,9,1
-9.762509e-05,3.802358e-05,9,1
-0.0001081593,4.612685e-05,9,1
-0.0001276072,5.325772e-05,9,1
-0.0001530514,5.876794e-05,9,1
-0.0001737958,6.638502e-05,9,1
-0.0001830335,7.643307e-05,9,1
-0.0001820611,8.761557e-05,9,1
-0.0001712027,9.831188e-05,9,1
-0.0001507825,0.0001057669,9,1
-0.0001162626,0.0001062531,9,1
-6.359137e-05,9.604298e-05,9,1
-5.409925e-06,8.016057e-05,9,1
3.688912e-05,6.476436e-05,9,1
5.179914e-05,5.747142e-05,9,1
4.596478e-05,5.957827e-05,9,1
3.462021e-05,6.670914e-05,9,1
2.781346e-05,7.124698e-05,9,1
2.116879e-05,6.930219e-05,9,1
-2.238346e-07,6.233338e-05,9,1
-4.819517e-05,5.082674e-05,9,1
-0.0001230693,4.110282e-05,9,1
-0.0002039399,3.753739e-05,9,1
-0.0002603387,4.094075e-05,9,1
-0.0002635799,4.72613e-05,9,1
-0.0002045882,5.309566e-05,9,1
-0.0001029732,5.61749e-05,9,1
-1.844488e-06,5.56887e-05,9,1
5.876794e-05,5.56887e-05,9,1
6.395404e-05,5.374392e-05,9,1
2.441009e-05,5.098881e-05,9,1
-3.587821e-05,4.515445e-05,9,1
-0.0001013526,3.672706e-05,9,1
-0.0001710407,2.878586e-05,9,1
-0.0002499665,2.295151e-05,9,1
-0.0003337542,1.679302e-05,9,1
-0.0003948528,1.031041e-05,9,1
-0.0003882082,6.90704e-06,9,1
-0.0002833519,6.582909e-06,9,1
-0.0001026491,1.031041e-05,9,1
9.053275e-05,2.068259e-05,9,1
0.000235095,3.721326e-05,9,1
0.0003060797,5.244739e-05,9,1
0.0003145071,6.152305e-05,9,1
0.00027707,6.071273e-05,9,1
0.0002041406,5.212327e-05,9,1
0.000111115,3.818565e-05,9,1
2.473423e-05,2.457216e-05,9,1
-2.404744e-05,1.484824e-05,9,1
-1.383732e-05,9.500085e-06,9,1
4.175109e-05,6.744974e-06,9,1
0.0001081979,7.23117e-06,9,1
0.0001560072,1.031041e-05,9,1
0.0001825859,1.582063e-05,9,1
0.0002018716,2.084466e-05,9,1
0.0002269918,2.084466e-05,9,1
0.0002582704,1.241726e-05,9,1
0.000289387,-6.176923e-08,9,1
0.0003188828,-1.108221e-05,9,1
0.0003433547,-1.464765e-05,9,1
0.0003555096,-1.156841e-05,9,1
0.0003496752,-6.706447e-06,9,1
0.0003273102,-4.599598e-06,9,1
0.0002958695,-6.382317e-06,9,1
0.0002720459,-1.480971e-05,9,1
0.0002769079,-2.599222e-05,9,1
0.0003177483,-3.247483e-05,9,1
0.0003824125,-3.328516e-05,9,1
0.0004524247,-3.21507e-05,9,1
0.0005110924,-3.814712e-05,9,1
0.0005491778,-4.85193e-05,9,1
0.0005610085,-5.856735e-05,9,1
0.00053994,-6.423963e-05,9,1
0.0004864584,-6.294311e-05,9,1
0.0004054258,-5.483985e-05,9,1
0.000314345,-4.349527e-05,9,1
0.00022764,-3.539201e-05,9,1
0.0001551968,-3.231277e-05,9,1
0.0001022015,-3.150244e-05,9,1
6.930219e-05,-2.939559e-05,9,1
4.969229e-05,-2.372331e-05,9,1
2.959619e-05,-1.318906e-05,9,1
-1.196227e-06,2.623614e-07,9,1
-4.025397e-05,1.59827e-05,9,1
-7.720486e-05,2.943412e-05,9,1
-0.0001094559,3.915804e-05,9,1
-0.0001384655,4.385793e-05,9,1
-0.0001674752,4.499239e-05,9,1
-0.0001972953,4.158902e-05,9,1
-0.0002269532,3.478228e-05,9,1
-0.0002545043,2.910999e-05,9,1
-0.0002768693,2.894792e-05,9,1
-0.0002932379,3.721326e-05,9,1
-0.0003076617,5.19612e-05,9,1
-0.0003224097,6.930219e-05,9,1
-0.0003378059,8.631905e-05,9,1
-0.0003494746,9.733949e-05,9,1
-0.000350447,9.993253e-05,9,1
-0.0003418575,9.604298e-05,9,1
-0.0003386162,9.26396e-05,9,1
-0.0003541745,9.458438e-05,9,1
-0.0003914495,9.863601e-05,9,1
-0.0004382863,9.798775e-05,9,1
-0.0004608134,9.037068e-05,9,1
-0.0004178661,7.67572e-05,9,1
-0.0002938862,6.41161e-05,9,1
-0.0001208004,5.666109e-05,9,1
4.094075e-05,5.585077e-05,9,1
0.0001313732,6.217132e-05,9,1
0.0001292664,6.865393e-05,9,1
5.52025e-05,7.319176e-05,9,1
-5.581224e-05,7.870197e-05,9,1
-0.0001682856,8.631905e-05,9,1
-0.0002558008,9.069481e-05,9,1
-0.0003100927,8.761557e-05,9,1
-0.0003348887,7.546067e-05,9,1
-0.0003373197,5.795762e-05,9,1
-0.0003120375,4.272347e-05,9,1
-0.0002502906,2.927205e-05,9,1
-0.0001480274,1.582063e-05,9,1
-1.351319e-05,2.207145e-06,9,1
0.000133318,-1.124428e-05,9,1
0.0002675081,-2.177852e-05,9,1
0.0003613439,-2.923353e-05,9,1
0.0003944053,-3.393342e-05,9,1
0.0003613439,-3.766092e-05,9,1
0.0002749631,-4.317115e-05,9,1
0.0001684862,-5.370539e-05,9,1
7.594687e-05,-6.796714e-05,9,1
2.246531e-05,-7.866345e-05,9,1
1.112074e-05,-8.709085e-05,9,1
3.251336e-05,-9.503204e-05,9,1
7.999851e-05,-0.0001024871,9,1
0.0001454729,-0.0001034594,9,1
0.0002106232,-0.0001010285,9,1
0.0002547049,-9.568031e-05,9,1
0.0002663737,-8.773911e-05,9,1
0.0002443328,-7.688073e-05,9,1
0.0001932822,-6.537409e-05,9,1
0.0001216493,-5.937768e-05,9,1
3.786152e-05,-5.889148e-05,9,1
-4.819517e-05,-5.710876e-05,9,1
-0.0001178833,-5.013995e-05,9,1
-0.0001506204,-3.749886e-05,9,1
-0.0001396,-1.983374e-05,9,1
-9.730096e-05,1.002961e-07,9,1
-3.992984e-05,1.663096e-05,9,1
1.014835e-05,2.554455e-05,9,1
3.624086e-05,2.457216e-05,9,1
3.380988e-05,1.517237e-05,9,1
1.144487e-05,3.341602e-06,9,1
-1.805102e-05,-6.544382e-06,9,1
-4.511593e-05,-1.416145e-05,9,1
-6.229485e-05,-1.983374e-05,9,1
-6.375344e-05,-2.291298e-05,9,1
-4.657452e-05,-2.437157e-05,9,1
-1.270286e-05,-2.210265e-05,9,1
2.554455e-05,-1.62683e-05,9,1
5.163707e-05,-6.706447e-06,9,1
5.601284e-05,7.393236e-06,9,1
3.769945e-05,2.116879e-05,9,1
-4.599598e-06,2.943412e-05,9,1
-7.363943e-05,3.267542e-05,9,1
-0.0001634236,3.397195e-05,9,1
-0.000253856,3.462021e-05,9,1
-0.0003238683,3.170304e-05,9,1
-0.0003617915,3.056858e-05,9,1
-0.000370543,3.267542e-05,9,1
-0.0003593606,3.688912e-05,9,1
-0.0003318095,3.996837e-05,9,1
-0.0002921034,3.705119e-05,9,1
-0.0002415391,2.635488e-05,9,1
-0.0001781716,1.760335e-05,9,1
-0.000102325,1.695509e-05,9,1
-2.372331e-05,2.716521e-05,9,1
4.02925e-05,4.45062e-05,9,1
7.092284e-05,6.314371e-05,9,1
6.249545e-05,7.756752e-05,9,1
3.737532e-05,8.599492e-05,9,1
2.700314e-05,8.777764e-05,9,1
5.56887e-05,8.42122e-05,9,1
0.0001300767,8.145709e-05,9,1
0.0002532463,8.453633e-05,9,1
0.0004336251,9.344993e-05,9,1
0.0006684579,0.0001065772,9,1
0.0009300316,0.0001247285,9,1
0.001155303,0.0001469315,9,1
0.001274907,0.0001694586,9,1
0.001247842,0.0001846927,9,1
0.001089666,0.0001890685,9,1
0.0008579124,0.000185341,9,1
0.000624214,0.0001765894,9,1
0.0004394595,0.0001668655,9,1
0.0003099692,0.0001613553,9,1
0.0002143507,0.0001621656,9,1
0.0001273216,0.0001620036,9,1
3.964424e-05,0.000155521,9,1
-3.198864e-05,0.0001433661,9,1
-6.48879e-05,0.0001295905,9,1
-5.889148e-05,0.0001198666,9,1
-3.847125e-05,0.0001153287,9,1
-3.117831e-05,0.0001146805,9,1
-5.32192e-05,0.0001124116,9,1
-0.0001034594,0.0001078737,9,1
-0.0001689338,0.0001005808,9,1
-0.000231491,9.101894e-05,9,1
-0.0002796244,7.67572e-05,9,1
-0.0003100927,5.536457e-05,9,1
-0.0003248407,2.295151e-05,9,1
-0.0003322956,-1.740276e-05,9,1
-0.0003387782,-5.937768e-05,9,1
-0.0003447747,-9.778715e-05,9,1
-0.0003515814,-0.0001306864,9,1
-0.0003645466,-0.0001561307,9,1
-0.0003851289,-0.000176713,9,1
-0.0004066836,-0.0001950263,9,1
-0.0004212695,-0.0002160948,9,1
-0.0004248349,-0.0002407288,9,1
-0.0004206212,-0.0002674695,9,1
-0.0004097628,-0.0002963172,9,1
-0.0003943667,-0.0003264613,9,1
-0.0003812394,-0.00035304,9,1
-0.0003822118,-0.0003669776,9,1
-0.0003990665,-0.0003601709,9,1
-0.0004219178,-0.0003350507,9,1
-0.0004365036,-0.0002974516,9,1
-0.0004390967,-0.0002566112,9,1
-0.0004262935,-0.0002186879,9,1
-0.0003943667,-0.0001869231,9,1
-0.0003434782,-0.0001574272,9,1
-0.000276059,-0.0001259865,9,1
-0.0001995642,-9.162867e-05,9,1
-0.0001225832,-5.64605e-05,9,1
-5.22468e-05,-2.680255e-05,9,1
3.989864e-06,-7.840905e-06,9,1
4.207521e-05,3.827799e-06,9,1
5.99024e-05,1.22552e-05,9,1
6.314371e-05,2.311357e-05,9,1
6.816773e-05,3.867184e-05,9,1
9.004655e-05,5.844381e-05,9,1
0.0001326697,7.772959e-05,9,1
0.0001934442,9.458438e-05,9,1
0.0002705873,0.0001077117,9,1
0.0003636129,0.0001151667,9,1
0.0004788414,0.000120839,9,1
0.0006156246,0.0001302388,9,1
0.0007509492,0.0001445005,9,1
0.000842192,0.0001597346,9,1
0.0008583986,0.0001731861,9,1
0.0007948689,0.0001809652,9,1
0.0006747784,0.0001806411,9,1
0.0005316747,0.0001731861,9,1
0.0003973225,0.0001608691,9,1
0.0002892249,0.000150659,9,1
0.0002132162,0.0001492004,9,1
0.0001623277,0.0001548727,9,1
0.0001221355,0.0001665414,9,1
7.967438e-05,0.0001793446,9,1
2.133085e-05,0.000187934,9,1
-5.257093e-05,0.0001911753,9,1
-0.0001316588,0.0001889064,9,1
-0.0001940539,0.0001858272,9,1
-0.0002206326,0.0001840444,9,1
-0.0002042641,0.0001808031,9,1
-0.0001605064,0.0001714034,9,1
-0.000112373,0.0001553589,9,1
-8.44978e-05,0.0001370455,9,1
-9.260107e-05,0.0001206769,9,1
-0.0001402483,0.0001099806,9,1
-0.0002151224,0.0001023635,9,1
-0.0002953447,9.507057e-05,9,1
-0.0003611433,8.712937e-05,9,1
-0.0003972838,7.772959e-05,9,1
-0.0003948528,6.606088e-05,9,1
-0.0003566054,5.228533e-05,9,1
-0.0002961551,4.191315e-05,9,1
-0.0002342462,3.834771e-05,9,1
-0.0001909747,4.645098e-05,9,1
-0.0001755785,6.395404e-05,9,1
-0.0001854645,8.405014e-05,9,1
-0.0002081536,9.960841e-05,9,1
-0.0002321393,0.0001046324,9,1
-0.0002470493,9.750156e-05,9,1
-0.0002405667,8.032264e-05,9,1
-0.0002071812,5.358185e-05,9,1
-0.0001502963,2.522042e-05,9,1
-7.979791e-05,1.558884e-06,9,1
-2.654814e-06,-1.20546e-05,9,1
8.583286e-05,-1.788895e-05,9,1
0.0002025199,-2.194059e-05,9,1
0.0003556717,-2.809907e-05,9,1
0.0005243817,-3.668853e-05,9,1
0.0006679717,-4.527799e-05,9,1
0.0007425218,-5.159854e-05,9,1
0.0007175637,-5.2733e-05,9,1
0.0006005525,-5.078821e-05,9,1
0.0004350837,-4.819517e-05,9,1
0.0002704253,-4.770897e-05,9,1
0.0001344524,-4.835724e-05,9,1
3.948217e-05,-4.641245e-05,9,1
-1.740276e-05,-4.219875e-05,9,1
-5.257093e-05,-3.928157e-05,9,1
-7.072225e-05,-3.895745e-05,9,1
-6.229485e-05,-3.814712e-05,9,1
-1.594417e-05,-3.911951e-05,9,1
6.946425e-05,-4.657452e-05,9,1
0.0001694586,-5.937768e-05,9,1
0.0002470879,-6.974985e-05,9,1
0.0002765838,-7.477388e-05,9,1
0.0002641047,-7.898758e-05,9,1
0.0002266676,-8.303922e-05,9,1
0.0001748067,-8.790117e-05,9,1
0.000113546,-9.2439e-05,9,1
4.82337e-05,-9.632857e-05,9,1
-1.918548e-05,-9.762509e-05,9,1
-8.02841e-05,-9.29252e-05,9,1
-0.0001225832,-8.206682e-05,9,1
-0.0001410586,-6.715681e-05,9,1
-0.0001425172,-5.127441e-05,9,1
-0.0001392759,-3.928157e-05,9,1
-0.0001408965,-3.393342e-05,9,1
-0.0001496481,-3.506788e-05,9,1
-0.0001489998,-3.911951e-05,9,1
-0.0001253383,-4.187462e-05,9,1
-7.65566e-05,-3.587821e-05,9,1
-1.513384e-05,-2.064406e-05,9,1
4.126489e-05,2.623614e-07,9,1
8.161915e-05,2.084466e-05,9,1
0.0001043083,3.786152e-05,9,1
0.0001039842,5.374392e-05,9,1
8.145709e-05,7.043665e-05,9,1
3.802358e-05,8.680524e-05,9,1
-1.902341e-05,9.944634e-05,9,1
-7.282909e-05,0.000106091,9,1
-0.0001109144,0.0001098185,9,1
-0.0001263107,0.0001151667,9,1
-0.0001125351,0.0001201907,9,1
-6.845333e-05,0.000123432,9,1
8.203562e-06,0.0001247285,9,1
0.000110953,0.0001266733,9,1
0.000215161,0.0001294284,9,1
0.0002901973,0.0001351007,9,1
0.0003229345,0.0001449867,9,1
0.0003208276,0.000158114,9,1
0.0003065659,0.0001692965,9,1
0.0003047831,0.0001752929,9,1
0.000331848,0.0001728619,9,1
0.0003867882,0.0001589243,9,1
0.0004619866,0.0001344524,9,1
0.0005435055,0.0001046324,9,1
0.0006034696,7.886404e-05,9,1
0.0006136798,6.525056e-05,9,1
0.0005605224,6.508849e-05,9,1
0.0004469145,7.059871e-05,9,1
0.0002940868,7.448828e-05,9,1
0.0001391524,7.092284e-05,9,1
1.841368e-05,5.957827e-05,9,1
-5.240886e-05,4.580272e-05,9,1
-7.785312e-05,3.769945e-05,9,1
-7.428769e-05,3.591673e-05,9,1
-6.148453e-05,3.688912e-05,9,1
-6.0188e-05,3.445814e-05,9,1
-7.963584e-05,2.246531e-05,9,1
-0.0001170729,1.558884e-06,9,1
-0.000161965,-2.275091e-05,9,1
-0.0002032917,-4.284701e-05,9,1
-0.0002379736,-5.305713e-05,9,1
-0.0002681178,-5.289507e-05,9,1
-0.0002989102,-4.884343e-05,9,1
-0.0003379679,-4.673658e-05,9,1
-0.0003875599,-5.176061e-05,9,1
-0.0004431483,-6.083626e-05,9,1
-0.0004959816,-6.991193e-05,9,1
-0.0005266119,-7.461182e-05,9,1
-0.0005223983,-7.120844e-05,9,1
-0.00048723,-6.375344e-05,9,1
-0.0004382863,-5.759496e-05,9,1
-0.0003896668,-5.565017e-05,9,1
-0.0003499608,-5.921561e-05,9,1
-0.0003219235,-6.926366e-05,9,1
-0.000295993,-8.255302e-05,9,1
-0.0002652006,-9.584238e-05,9,1
-0.0002350565,-0.0001067007,9,1
-0.0002245222,-0.0001170729,9,1
-0.0002545043,-0.0001266348,9,1
-0.0003246786,-0.0001303623,9,1
-0.0004117076,-0.0001225832,9,1
-0.0004911196,-0.0001042698,9,1
-0.0005520562,-8.498399e-05,9,1
-0.0005870623,-7.412562e-05,9,1
-0.0005885208,-7.169464e-05,9,1
-0.0005458977,-7.526008e-05,9,1
-0.0004580583,-8.206682e-05,9,1
-0.0003319715,-8.433573e-05,9,1
-0.0001853024,-7.60704e-05,9,1
-4.155049e-05,-5.937768e-05,9,1
7.659513e-05,-4.025397e-05,9,1
0.0001527658,-2.226472e-05,9,1
0.0001872858,-6.868513e-06,9,1
0.0001908512,9.338019e-06,9,1
0.0001777239,2.359977e-05,9,1
0.0001701068,3.591673e-05,9,1
0.0001842065,4.466826e-05,9,1
0.0002213195,4.855783e-05,9,1
0.0002637806,4.693717e-05,9,1
0.0002905214,4.077869e-05,9,1
0.0002887387,3.494434e-05,9,1
0.0002619979,3.283749e-05,9,1
0.0002287745,3.299956e-05,9,1
0.0002141886,3.510641e-05,9,1
0.0002419018,3.98063e-05,9,1
0.000331686,4.742337e-05,9,1
0.0004762483,5.61749e-05,9,1
0.0006276174,6.395404e-05,9,1
0.000715781,7.270556e-05,9,1
0.0006937401,8.453633e-05,9,1
0.0005600362,9.63671e-05,9,1
0.0003606957,0.0001009049,9,1
0.0001553589,9.588091e-05,9,1
-4.275467e-06,8.891209e-05,9,1
-8.547019e-05,8.631905e-05,9,1
-8.595638e-05,9.069481e-05,9,1
-2.728874e-05,9.68533e-05,9,1
5.552663e-05,0.0001000946,9,1
0.0001365593,9.896015e-05,9,1
0.0001983062,9.458438e-05,9,1
0.0002295848,9.31258e-05,9,1
0.0002255332,9.831188e-05,9,1
0.0001837203,0.0001078737,9,1
0.0001091703,0.0001185701,9,1
2.003433e-05,0.0001248906,9,1
-5.532604e-05,0.0001266733,9,1
-9.892161e-05,0.0001203528,9,1
-0.0001105903,0.0001099806,9,1
-0.0001057284,0.0001015532,9,1
-9.551824e-05,9.63671e-05,9,1
-9.162867e-05,8.729144e-05,9,1
-9.519411e-05,6.897806e-05,9,1
-0.0001007043,4.207521e-05,9,1
-0.0001024871,1.582063e-05,9,1
-0.0001013526,-4.599598e-06,9,1
-0.0001081593,-1.513384e-05,9,1
-0.0001336036,-1.756482e-05,9,1
-0.0001797922,-1.610624e-05,9,1
-0.0002332737,-1.659243e-05,9,1
-0.000276221,-1.918548e-05,9,1
-0.0002976137,-2.161646e-05,9,1
-0.0002906449,-2.258885e-05,9,1
-0.0002545043,-1.837515e-05,9,1
-0.0002039399,-8.165035e-06,9,1
-0.0001645581,5.124321e-06,9,1
-0.0001506204,1.565857e-05,9,1
-0.0001637477,1.857574e-05,9,1
-0.0001896782,1.209313e-05,9,1
-0.0002182017,-2.81688e-06,9,1
-0.0002392702,-2.323711e-05,9,1
-0.0002481838,-4.187462e-05,9,1
-0.0002486699,-5.354332e-05,9,1
-0.0002498044,-5.678463e-05,9,1
-0.000258718,-5.565017e-05,9,1
-0.0002703867,-5.354332e-05,9,1
-0.0002655248,-5.208474e-05,9,1
-0.0002323013,-5.2733e-05,9,1
-0.0001707166,-5.565017e-05,9,1
-9.762509e-05,-6.132246e-05,9,1
-4.236082e-05,-6.456377e-05,9,1
-2.323711e-05,-6.342931e-05,9,1
-3.522994e-05,-5.727083e-05,9,1
-6.099833e-05,-4.997789e-05,9,1
-7.688073e-05,-4.252288e-05,9,1
-6.780507e-05,-3.63644e-05,9,1
-2.518189e-05,-3.441962e-05,9,1
5.439218e-05,-3.895745e-05,9,1
0.0001764274,-5.208474e-05,9,1
0.0003506476,-6.991193e-05,9,1
0.0005752703,-8.125649e-05,9,1
0.0008285785,-7.704279e-05,9,1
0.001064546,-5.629844e-05,9,1
0.001220291,-2.388537e-05,9,1
0.001240225,1.047248e-05,9,1
0.0011049,3.591673e-05,9,1
0.0008389507,4.807163e-05,9,1
0.0005144958,4.790957e-05,9,1
0.0002342847,4.02925e-05,9,1
8.032264e-05,3.089271e-05,9,1
7.789165e-05,2.262738e-05,9,1
0.0002012234,1.484824e-05,9,1
0.0003992672,6.582909e-06,9,1
0.0006112488,7.485573e-07,9,1
0.0007674799,2.623614e-07,9,1
0.000807348,8.203562e-06,9,1
0.0007115673,2.39239e-05,9,1
0.0005154681,4.402e-05,9,1
0.0002809595,5.957827e-05,9,1
6.719535e-05,6.541262e-05,9,1
-8.644259e-05,6.314371e-05,9,1
-0.0001640719,5.893001e-05,9,1
-0.0001770371,6.055066e-05,9,1
-0.0001566169,7.124698e-05,9,1
-0.000144624,9.16672e-05,9,1
-0.000171851,0.0001156529,9,1
-0.0002431597,0.0001372076,9,1
-0.0003288923,0.0001488763,9,1
-0.0003885323,0.000148228,9,1
-0.0004005251,0.0001398006,9,1
-0.0003734602,0.0001313732,9,1
-0.0003253268,0.0001276457,9,1
-0.0002744383,0.0001255389,9,1
-0.0002287359,0.0001227837,9,1
-0.0001935677,0.000121001,9,1
-0.0001663408,0.0001185701,9,1
-0.0001378173,0.0001101427,9,1
-0.0001044318,9.280167e-05,9,1
-7.704279e-05,7.011252e-05,9,1
-7.153257e-05,4.790957e-05,9,1
-9.19528e-05,3.202716e-05,9,1
-0.0001280934,2.01964e-05,9,1
-0.0001588858,9.013889e-06,9,1
-0.0001728234,-3.789272e-06,9,1
-0.0001614788,-2.015787e-05,9,1
-0.0001182074,-3.928157e-05,9,1
-3.555408e-05,-5.727083e-05,9,1
8.323981e-05,-7.137051e-05,9,1
0.0002171058,-7.509801e-05,9,1
0.0003313618,-6.294311e-05,9,1
0.0003982949,-3.377136e-05,9,1
0.0004057499,3.665733e-06,9,1
0.0003624784,3.996837e-05,9,1
0.000287118,6.719535e-05,9,1
0.0001944166,7.821578e-05,9,1
9.053275e-05,7.108491e-05,9,1
-2.583016e-05,5.001642e-05,9,1
-0.0001501342,2.554455e-05,9,1
-0.0002626076,4.638125e-06,9,1
-0.0003408851,-8.002969e-06,9,1
-0.0003716775,-9.785688e-06,9,1
-0.0003632501,-2.168618e-06,9,1
-0.000335699,8.365628e-06,9,1
-0.0003024756,1.533444e-05,9,1
-0.0002664971,1.436204e-05,9,1
-0.0002311669,6.258778e-06,9,1
-0.0002005366,-6.706447e-06,9,1
-0.000174282,-1.950961e-05,9,1
-0.0001439758,-2.615429e-05,9,1
-0.0001003802,-2.242678e-05,9,1
-4.706071e-05,-9.461558e-06,9,1
-2.238346e-07,8.527692e-06,9,1
2.068259e-05,2.39239e-05,9,1
8.041497e-06,3.251336e-05,9,1
-3.101625e-05,3.575467e-05,9,1
-7.509801e-05,3.915804e-05,9,1
-0.00010978,4.531652e-05,9,1
-0.0001266348,5.439218e-05,9,1
-0.0001250141,6.735741e-05,9,1
-0.0001169109,8.340187e-05,9,1
-0.0001217728,0.0001044704,9,1
-0.0001556445,0.000128456,9,1
-0.0002219292,0.0001526038,9,1
-0.0003173856,0.0001728619,9,1
-0.0004287245,0.0001872858,9,1
-0.0005363359,0.0001949028,9,1
-0.0006149375,0.0002007372,9,1
-0.0006371404,0.0002068957,9,1
-0.0005799314,0.0002111094,9,1
-0.0004332623,0.0002051129,9,1
-0.0002023193,0.0001876099,9,1
7.465034e-05,0.000160545,9,1
0.0003308757,0.0001269974,9,1
0.0005117406,8.891209e-05,9,1
0.000599256,4.239934e-05,9,1
0.0006083316,-1.513384e-05,9,1
0.0005614947,-8.109443e-05,9,1
0.0004874308,-0.0001439758,9,1
0.000420984,-0.0001976194,9,1
0.0003871123,-0.0002397564,9,1
0.0003859779,-0.0002692523,9,1
0.0004038051,-0.0002869174,9,1
0.0004128807,-0.0002917793,9,1
0.0003919743,-0.0002851347,9,1
0.0003358997,-0.000271197,9,1
0.0002529222,-0.0002554767,9,1
0.0001566554,-0.0002404046,9,1
6.152305e-05,-0.0002279256,9,1
-2.0482e-05,-0.0002183637,9,1
-8.222889e-05,-0.000208964,9,1
-0.0001255003,-0.0001982676,9,1
-0.0001553203,-0.0001840059,9,1
-0.0001721751,-0.0001634236,9,1
-0.0001689338,-0.0001384655,9,1
-0.0001384655,-0.0001088076,9,1
-7.963584e-05,-7.785312e-05,9,1
2.207145e-06,-4.770897e-05,9,1
9.21534e-05,-2.226472e-05,9,1
0.0001694586,-2.330684e-06,9,1
0.0002187264,1.776542e-05,9,1
0.0002397949,4.110282e-05,9,1
0.0002381743,5.99024e-05,9,1
0.0002232643,7.124698e-05,9,1
0.0001973338,7.724339e-05,9,1
0.0001633001,7.821578e-05,9,1
0.0001226217,7.870197e-05,9,1
7.400208e-05,8.097089e-05,9,1
1.873781e-05,8.729144e-05,9,1
-3.863332e-05,9.588091e-05,9,1
-9.227693e-05,0.0001072255,9,1
-0.0001353863,0.0001180839,9,1
-0.0001596961,0.0001229458,9,1
-0.0001614788,0.0001201907,9,1
-0.000144624,0.0001094944,9,1
-0.0001182074,9.26396e-05,9,1
-8.433573e-05,7.465034e-05,9,1
-4.511593e-05,6.022653e-05,9,1
-2.81688e-06,4.790957e-05,9,1
3.575467e-05,3.494434e-05,9,1
5.61749e-05,2.084466e-05,9,1
4.483033e-05,7.717366e-06,9,1
-1.844488e-06,-2.330684e-06,9,1
-7.574627e-05,-5.247859e-06,9,1
-0.000159534,-8.720959e-07,9,1
-0.0002300324,1.047248e-05,9,1
-0.0002650386,2.505836e-05,9,1
-0.0002575835,3.996837e-05,9,1
-0.0002146363,5.034055e-05,9,1
-0.0001554824,5.649903e-05,9,1
-0.0001065387,6.362991e-05,9,1
-9.049421e-05,7.254349e-05,9,1
-0.0001152902,8.097089e-05,9,1
-0.0001716889,8.615699e-05,9,1
-0.000231329,8.388807e-05,9,1
-0.0002673075,7.254349e-05,9,1
-0.0002643903,5.601284e-05,9,1
-0.0002285739,3.753739e-05,9,1
-0.0001857886,2.214118e-05,9,1
-0.0001695821,1.760335e-05,9,1
-0.000206695,2.457216e-05,9,1
-0.0003024756,3.656499e-05,9,1
-0.0004301831,4.790957e-05,9,1
-0.0005407116,5.552663e-05,9,1
-0.0005849554,5.795762e-05,9,1
-0.0005288809,6.249545e-05,9,1
-0.0003762153,7.092284e-05,9,1
-0.0001665028,8.04847e-05,9,1
3.688912e-05,8.777764e-05,9,1
0.0001728619,9.53947e-05,9,1
0.0002146748,0.00010366,9,1
0.0001749688,0.0001122495,9,1
9.21534e-05,0.0001192183,9,1
1.063454e-05,0.0001276457,9,1
-4.560212e-05,0.0001393144,9,1
-7.266703e-05,0.0001534141,9,1
-7.444975e-05,0.0001720516,9,1
-5.419158e-05,0.0001976579,9,1
-3.14101e-06,0.0002269918,9,1
8.939829e-05,0.000252436,9,1
0.000220023,0.0002704253,9,1
0.0003702575,0.0002807975,9,1
0.0005281092,0.0002817699,9,1
0.0006953608,0.0002736666,9,1
0.0008828705,0.000259729,9,1
0.001086425,0.0002422259,9,1
0.001285117,0.0002218057,9,1
0.001433083,0.000200251,9,1
0.001483161,0.0001811273,9,1
0.001415256,0.0001620036,9,1
0.001250597,0.0001396385,9,1
0.001035212,0.0001143563,9,1
0.0008139926,8.388807e-05,9,1
0.0006136798,4.82337e-05,9,1
0.0004444835,1.209313e-05,9,1
0.000307052,-1.805102e-05,9,1
0.0002008992,-4.317115e-05,9,1
0.0001213252,-7.18567e-05,9,1
6.087479e-05,-0.0001083214,9,1
5.934648e-06,-0.0001515928,9,1
-5.629844e-05,-0.0001979435,9,1
-0.0001238797,-0.0002439701,9,1
-0.0001814128,-0.0002856209,9,1
-0.0002250084,-0.0003162512,9,1
-0.0002622834,-0.0003314853,9,1
-0.0003018274,-0.0003305129,9,1
-0.0003402368,-0.000313334,9,1
-0.000367788,-0.000283514,9,1
-0.0003765395,-0.0002444563,9,1
-0.0003718396,-0.0001995642,9,1
-0.000365519,-0.0001574272,9,1
-0.0003661673,-0.0001240417,9,1
-0.0003736223,-0.0001011905,9,1
-0.0003794566,-8.611845e-05,9,1
-0.000370381,-7.282909e-05,9,1
-0.0003402368,-5.840528e-05,9,1
-0.0002998826,-4.38194e-05,9,1
-0.0002715212,-3.150244e-05,9,1
-0.0002707109,-2.339918e-05,9,1
-0.0002956689,-2.129233e-05,9,1
-0.0003293785,-2.388537e-05,9,1
-0.0003549848,-2.712668e-05,9,1
-0.0003626019,-2.858527e-05,9,1
-0.0003439643,-2.388537e-05,9,1
-0.0002867553,-1.092015e-05,9,1
-0.0001909747,5.610517e-06,9,1
-7.396356e-05,2.116879e-05,9,1
3.283749e-05,3.235129e-05,9,1
9.831188e-05,3.786152e-05,9,1
0.0001072255,3.769945e-05,9,1
6.379197e-05,3.380988e-05,9,1
-1.25408e-05,2.667901e-05,9,1
-9.908367e-05,1.582063e-05,9,1
-0.0001827094,-1.682422e-06,9,1
-0.0002577456,-2.064406e-05,9,1
-0.0003178718,-3.571614e-05,9,1
-0.0003523917,-4.365734e-05,9,1
-0.0003577399,-4.625038e-05,9,1
-0.0003462333,-4.689865e-05,9,1
-0.0003394265,-4.965376e-05,9,1
-0.0003467195,-5.046408e-05,9,1
-0.0003588744,-4.673658e-05,9,1
-0.000358064,-3.879538e-05,9,1
-0.0003360231,-3.117831e-05,9,1
-0.0002958309,-2.745081e-05,9,1
-0.000246401,-2.84232e-05,9,1
-0.00019924,-3.425755e-05,9,1
-0.0001577513,-4.122636e-05,9,1
-0.000112211,-4.527799e-05,9,1
-5.775702e-05,-3.928157e-05,9,1
-4.275467e-06,-2.388537e-05,9,1
3.60788e-05,-2.654814e-06,9,1
5.666109e-05,2.01964e-05,9,1
6.314371e-05,3.98063e-05,9,1
7.221937e-05,5.585077e-05,9,1
0.0001041462,6.946425e-05,9,1
0.0001658931,7.853991e-05,9,1
0.0002514636,8.567078e-05,9,1
0.0003462718,9.199134e-05,9,1
0.0004392974,9.831188e-05,9,1
0.0005272989,0.00010366,9,1
0.0006193521,0.0001101427,9,1
0.0007216153,0.0001156529,9,1
0.0008319819,0.0001190562,9,1
0.0009379727,0.0001197045,9,1
0.001022571,0.0001198666,9,1
0.001063898,0.0001219734,9,1
0.00104445,0.0001247285,9,1
0.0009562862,0.000128294,9,1
0.0008031343,0.0001326697,9,1
0.0006060627,0.0001365593,9,1
0.0003979707,0.0001368834,9,1
0.00021273,0.0001310491,9,1
6.670914e-05,0.000121001,9,1
-3.879538e-05,0.0001091703,9,1
-0.0001117248,9.63671e-05,9,1
-0.0001679614,8.583286e-05,9,1
-0.0002237119,7.772959e-05,9,1
-0.0002883759,7.367795e-05,9,1
-0.0003650328,7.416415e-05,9,1
-0.0004437966,7.610894e-05,9,1
-0.0005099192,7.52986e-05,9,1
-0.0005598353,7.092284e-05,9,1
-0.0005985689,6.46023e-05,9,1
-0.0006329267,5.730935e-05,9,1
-0.0006659881,4.936815e-05,9,1
-0.0006946736,4.094075e-05,9,1
-0.0007175248,3.380988e-05,9,1
-0.0007335693,2.570662e-05,9,1
-0.0007468587,1.711715e-05,9,1
-0.000760148,1.095867e-05,9,1
-0.0007765166,8.851824e-06,9,1
-0.0007846198,1.031041e-05,9,1
-0.0007643617,1.014835e-05,9,1
-0.0006987253,7.23117e-06,9,1
-0.0005836589,1.720949e-06,9,1
-0.0004285624,-3.951337e-06,9,1
-0.0002596904,-5.734056e-06,9,1
-9.746302e-05,-3.951337e-06,9,1
4.758544e-05,-4.437533e-06,9,1
0.0001743205,-1.25408e-05,9,1
0.0002848491,-2.404744e-05,9,1
0.000383709,-3.425755e-05,9,1
0.0004838654,-4.122636e-05,9,1
0.0006028214,-4.495386e-05,9,1
0.0007470596,-4.446767e-05,9,1
0.0008956737,-4.05781e-05,9,1
0.001013009,-3.441962e-05,9,1
0.001068273,-2.728874e-05,9,1
0.001056929,-2.242678e-05,9,1
0.0009979371,-2.177852e-05,9,1
0.0009199835,-2.566809e-05,9,1
0.0008498091,-3.150244e-05,9,1
0.0007989206,-3.458168e-05,9,1
0.0007585663,-3.036798e-05,9,1
0.0007117294,-2.177852e-05,9,1
0.0006423654,-1.3027e-05,9,1
0.0005394538,-9.785688e-06,9,1
0.0004123946,-1.464765e-05,9,1
0.0002809595,-2.631635e-05,9,1
0.000162976,-4.025397e-05,9,1
6.978839e-05,-5.208474e-05,9,1
-5.57199e-06,-6.326724e-05,9,1
-8.384954e-05,-7.55842e-05,9,1
-0.0001786577,-8.757704e-05,9,1
-0.0002778417,-9.29252e-05,9,1
-0.000355633,-8.919769e-05,9,1
-0.0003873979,-7.704279e-05,9,1
-0.0003663294,-6.099833e-05,9,1
-0.0003121996,-4.462973e-05,9,1
-0.0002592042,-3.150244e-05,9,1
-0.0002337599,-2.015787e-05,9,1
-0.0002433218,-1.027188e-05,9,1
-0.0002807589,-2.330684e-06,9,1
-0.0003254889,6.90704e-06,9,1
-0.0003606571,1.679302e-05,9,1
-0.0003797808,2.473423e-05,9,1
-0.0003861013,3.202716e-05,9,1
-0.0003796187,4.02925e-05,9,1
-0.0003540124,5.066468e-05,9,1
-0.0003006929,5.698522e-05,9,1
-0.0002212809,5.893001e-05,9,1
-0.000134738,5.779555e-05,9,1
-7.444975e-05,5.56887e-05,9,1
-5.710876e-05,5.228533e-05,9,1
-7.509801e-05,4.790957e-05,9,1
-0.0001094559,4.288554e-05,9,1
-0.0001454344,4.272347e-05,9,1
-0.0001791439,4.612685e-05,9,1
-0.0002160948,5.19612e-05,9,1
-0.0002593663,5.666109e-05,9,1
-0.0003105789,5.811968e-05,9,1
-0.0003681121,5.666109e-05,9,1
-0.0004185144,5.455425e-05,9,1
-0.0004431483,5.552663e-05,9,1
-0.0004280762,6.573675e-05,9,1
-0.0003872358,8.259155e-05,9,1
-0.0003412093,0.0001002567,9,1
-0.0003050687,0.000113384,9,1
-0.0002888622,0.0001192183,9,1
-0.0002872415,0.0001151667,9,1
-0.0002942103,0.0001047945,9,1
-0.000310741,9.555677e-05,9,1
-0.000340561,8.875003e-05,9,1
-0.0003637363,8.226741e-05,9,1
-0.0003415334,7.465034e-05,9,1
-0.0002417012,6.492643e-05,9,1
-5.565017e-05,5.471631e-05,9,1
0.0001999268,4.661304e-05,9,1
0.0004824068,3.98063e-05,9,1
0.0007285841,3.348575e-05,9,1
0.0008840049,2.81376e-05,9,1
0.0009376486,2.586868e-05,9,1
0.0009159319,2.505836e-05,9,1
0.0008561297,2.133085e-05,9,1
0.0007807693,1.371378e-05,9,1
0.0006866092,7.485573e-07,9,1
0.0005587396,-1.562004e-05,9,1
0.0003947294,-2.988179e-05,9,1
0.0002133783,-4.155049e-05,9,1
4.45062e-05,-4.835724e-05,9,1
-9.000802e-05,-5.143648e-05,9,1
-0.0001836818,-5.143648e-05,9,1
-0.0002391081,-4.85193e-05,9,1
-0.000268604,-4.495386e-05,9,1
-0.0002831898,-4.106429e-05,9,1
-0.0002901587,-3.522994e-05,9,1
-0.0002906449,-2.583016e-05,9,1
-0.0002805968,-1.62683e-05,9,1
-0.000256287,-1.027188e-05,9,1
-0.0002250084,-9.623623e-06,9,1
-0.0002047502,-1.383732e-05,9,1
-0.0002109087,-1.788895e-05,9,1
-0.0002371633,-2.031993e-05,9,1
-0.0002606628,-1.837515e-05,9,1
-0.000258718,-1.270286e-05,9,1
-0.0002250084,-3.789272e-06,9,1
-0.0001588858,9.500085e-06,9,1
-6.602235e-05,2.781346e-05,9,1
3.478228e-05,4.758544e-05,9,1
0.0001239182,6.541262e-05,9,1
0.0001940925,8.323981e-05,9,1
0.0002527602,0.0001046324,9,1
0.000304297,0.0001297526,9,1
0.0003324963,0.0001551968,9,1
0.0003219621,0.0001741585,9,1
0.0002701012,0.0001830721,9,1
0.0001900409,0.0001814514,9,1
0.0001064152,0.0001722137,9,1
4.094075e-05,0.0001584381,9,1
4.638125e-06,0.0001441764,9,1
-3.789272e-06,0.0001352628,9,1
8.365628e-06,0.0001329939,9,1
3.397195e-05,0.0001354248,9,1
7.189524e-05,0.0001404489,9,1
0.0001148425,0.0001419075,9,1
0.0001529279,0.0001334801,9,1
0.0001850168,0.0001127357,9,1
0.0002104611,8.356394e-05,9,1
0.0002269918,5.115087e-05,9,1
0.0002355812,1.760335e-05,9,1
0.0002448189,-1.497178e-05,9,1
0.000259891,-4.981582e-05,9,1
0.0002752873,-8.628052e-05,9,1
0.0002817699,-0.0001245279,9,1
0.0002694529,-0.0001652063,9,1
0.0002346088,-0.0002060468,9,1
0.0001785342,-0.0002397564,9,1
0.0001078737,-0.000261311,9,1
3.170304e-05,-0.0002705488,9,1
-4.187462e-05,-0.0002666592,9,1
-9.794922e-05,-0.0002528836,9,1
-0.0001240417,-0.0002324634,9,1
-0.0001183694,-0.000206533,9,1
-9.454585e-05,-0.0001755785,9,1
-7.056019e-05,-0.0001412206,9,1
-5.856735e-05,-0.0001034594,9,1
-7.023606e-05,-6.245691e-05,9,1
-0.0001089697,-2.080613e-05,9,1
-0.0001677994,2.295151e-05,9,1
-0.0002301945,6.703327e-05,9,1
-0.0002749245,0.0001047945,9,1
-0.0002880518,0.0001271595,9,1
-0.0002679557,0.0001266733,9,1
-0.0002259808,0.0001033359,9,1
-0.0001815749,6.751948e-05,9,1
-0.0001412206,3.267542e-05,9,1
-9.973194e-05,1.095867e-05,9,1
-5.32192e-05,9.338019e-06,9,1
-7.516774e-06,2.846173e-05,9,1
2.39239e-05,5.714729e-05,9,1
3.202716e-05,8.178122e-05,9,1
1.64689e-05,9.523264e-05,9,1
-1.318906e-05,9.442231e-05,9,1
-4.398147e-05,8.194328e-05,9,1
-6.423963e-05,6.298164e-05,9,1
-5.791909e-05,4.547859e-05,9,1
-1.610624e-05,3.510641e-05,9,1
5.698522e-05,3.462021e-05,9,1
0.0001423936,4.239934e-05,9,1
0.0002222919,5.260946e-05,9,1
0.0002882525,5.779555e-05,9,1
0.0003384927,5.698522e-05,9,1
0.0003824125,5.293359e-05,9,1
0.0004303838,4.709924e-05,9,1
0.0004793275,4.077869e-05,9,1
0.0005114165,3.316162e-05,9,1
0.0005123889,2.570662e-05,9,1
0.0004820827,2.39239e-05,9,1
0.0004412422,2.716521e-05,9,1
0.0004188772,3.462021e-05,9,1
0.0004245494,4.304761e-05,9,1
0.0004465904,5.066468e-05,9,1
0.0004642555,5.61749e-05,9,1
0.0004571246,5.94162e-05,9,1
0.000411098,6.200925e-05,9,1
0.0003324963,6.719535e-05,9,1
0.0002436845,7.497447e-05,9,1
0.0001701068,8.032264e-05,9,1
0.0001261871,7.935024e-05,9,1
0.0001101427,7.465034e-05,9,1
0.0001046324,7.189524e-05,9,1
8.729144e-05,7.108491e-05,9,1
3.624086e-05,7.254349e-05,9,1
-5.889148e-05,7.20573e-05,9,1
-0.0001862748,6.930219e-05,9,1
-0.0003146305,6.346784e-05,9,1
-0.0004061974,5.471631e-05,9,1
-0.0004303451,4.35338e-05,9,1
-0.000380267,3.024445e-05,9,1
-0.0002801106,1.630683e-05,9,1
-0.0001699062,5.448452e-06,9,1
-9.114248e-05,-4.437533e-06,9,1
-6.926366e-05,-1.189254e-05,9,1
-0.0001079973,-1.659243e-05,9,1
-0.0001856265,-1.545797e-05,9,1
-0.000268766,-5.247859e-06,9,1
-0.0003259751,1.014835e-05,9,1
-0.0003392644,2.424803e-05,9,1
-0.0003113892,3.218923e-05,9,1
-0.0002700626,3.429608e-05,9,1
-0.0002514251,3.089271e-05,9,1
-0.0002721694,2.846173e-05,9,1
-0.0003246786,3.413401e-05,9,1
-0.0003919357,4.531652e-05,9,1
-0.0004520619,5.844381e-05,9,1
-0.0004825302,6.995045e-05,9,1
-0.0004574101,7.772959e-05,9,1
-0.0003561192,7.886404e-05,9,1
-0.0001737958,7.351589e-05,9,1
6.265751e-05,6.735741e-05,9,1
0.0002968419,6.395404e-05,9,1
0.0004642555,6.265751e-05,9,1
0.0005174129,5.94162e-05,9,1
0.0004435111,5.228533e-05,9,1
0.0002670219,4.434413e-05,9,1
3.737532e-05,4.094075e-05,9,1
-0.0001810887,4.320967e-05,9,1
-0.0003360231,5.034055e-05,9,1
-0.0004112214,5.974033e-05,9,1
-0.0004240246,6.638502e-05,9,1
-0.0004047388,6.962632e-05,9,1
-0.0003792946,7.20573e-05,9,1
-0.0003535262,7.335383e-05,9,1
-0.0003326198,7.189524e-05,9,1
-0.000325813,6.865393e-05,9,1
-0.0003358611,6.573675e-05,9,1
-0.0003475298,6.330578e-05,9,1
-0.0003342404,6.492643e-05,9,1
-0.0002812451,6.978839e-05,9,1
-0.0001922712,7.351589e-05,9,1
-8.368748e-05,7.221937e-05,9,1
2.295151e-05,6.168512e-05,9,1
0.0001022015,4.013043e-05,9,1
0.0001360731,6.582909e-06,9,1
0.0001318594,-3.360929e-05,9,1
0.0001106288,-6.780507e-05,9,1
9.037068e-05,-8.417367e-05,9,1
7.724339e-05,-8.40116e-05,9,1
6.930219e-05,-7.623246e-05,9,1
6.638502e-05,-6.877746e-05,9,1
6.687121e-05,-6.650855e-05,9,1
7.416415e-05,-7.363943e-05,9,1
9.458438e-05,-8.482193e-05,9,1
0.000133318,-9.146661e-05,9,1
0.0001842065,-9.114248e-05,9,1
0.0002307193,-8.482193e-05,9,1
0.0002560015,-7.720486e-05,9,1
0.0002511395,-7.007399e-05,9,1
0.0002211574,-6.456377e-05,9,1
0.0001775618,-5.937768e-05,9,1
0.0001436902,-5.32192e-05,9,1
0.0001451488,-4.43056e-05,9,1
0.0001955511,-3.555408e-05,9,1
0.0002861456,-2.696461e-05,9,1
0.0003830607,-2.113026e-05,9,1
0.0004464283,-1.967167e-05,9,1
0.0004498317,-2.242678e-05,9,1
0.0003955397,-2.534396e-05,9,1
0.0003083486,-2.583016e-05,9,1
0.0002156472,-2.129233e-05,9,1
0.0001388282,-1.367526e-05,9,1
8.956036e-05,-8.975362e-06,9,1
6.41161e-05,-1.092015e-05,9,1
4.985435e-05,-1.967167e-05,9,1
3.753739e-05,-3.555408e-05,9,1
1.841368e-05,-6.083626e-05,9,1
-1.124428e-05,-9.438378e-05,9,1
-5.046408e-05,-0.0001324691,9,1
-9.114248e-05,-0.0001695821,9,1
-0.0001256624,-0.0002000504,9,1
-0.0001499722,-0.0002194982,9,1
-0.0001658546,-0.0002308428,9,1
-0.0001747682,-0.0002378116,9,1
-0.0001775233,-0.0002470493,9,1
-0.0001771992,-0.0002574215,9,1
-0.0001773612,-0.0002658489,9,1
-0.0001804405,-0.0002707109,9,1
-0.0001864369,-0.0002733039,9,1
-0.0001948643,-0.0002741142,9,1
-0.000208964,-0.0002723315,9,1
-0.0002327876,-0.0002664971,9,1
-0.0002663351,-0.0002515871,9,1
-0.0002972895,-0.0002207947,9,1
-0.0003097686,-0.000171851,9,1
-0.0002890242,-0.0001114006,9,1
-0.000219012,-4.916756e-05,9,1
-9.503204e-05,1.160693e-05,9,1
7.594687e-05,7.092284e-05,9,1
0.0002657254,0.0001261871,9,1
0.0004339493,0.0001796687,9,1
0.0005522569,0.0002294227,9,1
0.000611735,0.0002691288,9,1
0.000621783,0.0002916559,9,1
0.0006012007,0.0002924662,9,1
0.0005674912,0.0002764217,9,1
0.0005285954,0.0002566497,9,1
0.0004896998,0.0002436845,9,1
0.0004444835,0.0002397949,9,1
0.0003843572,0.000242388,9,1
0.0003085106,0.0002454672,9,1
0.0002205092,0.0002431983,9,1
0.0001325077,0.0002333123,9,1
6.136099e-05,0.0002162954,9,1
1.501031e-05,0.0001981441,9,1
-8.327101e-06,0.0001859892,9,1
-1.740276e-05,0.00018291,9,1
-2.534396e-05,0.00018291,9,1
-3.604027e-05,0.0001798307,9,1
-5.111234e-05,0.0001743205,9,1
-7.023606e-05,0.0001671896,9,1
-8.660465e-05,0.0001598967,9,1
-9.049421e-05,0.000155683,9,1
-7.493595e-05,0.0001561692,9,1
-3.960571e-05,0.0001597346,9,1
2.855407e-06,0.0001579519,9,1
3.202716e-05,0.0001480659,9,1
2.635488e-05,0.0001316974,9,1
-1.62683e-05,0.0001130598,9,1
-7.850138e-05,9.604298e-05,9,1
-0.000134576,8.388807e-05,9,1
-0.0001621271,7.594687e-05,9,1
-0.0001472171,6.978839e-05,9,1
-9.260107e-05,5.94162e-05,9,1
-2.015787e-05,4.142696e-05,9,1
3.753739e-05,1.727922e-05,9,1
4.82337e-05,-5.734056e-06,9,1
-3.951337e-06,-2.161646e-05,9,1
-0.0001062146,-2.761287e-05,9,1
-0.0002256567,-2.583016e-05,9,1
-0.000328082,-2.113026e-05,9,1
-0.000392746,-1.513384e-05,9,1
-0.0004074939,-7.030578e-06,9,1
-0.0003734602,3.503668e-06,9,1
-0.0002997205,1.695509e-05,9,1
-0.0002000504,2.894792e-05,9,1
-9.000802e-05,3.786152e-05,9,1
8.527692e-06,4.515445e-05,9,1
7.448828e-05,5.244739e-05,9,1
9.717743e-05,5.56887e-05,9,1
8.04847e-05,4.953022e-05,9,1
4.142696e-05,3.478228e-05,9,1
-6.176923e-08,1.387585e-05,9,1
-2.404744e-05,-7.192643e-06,9,1
-1.99958e-05,-1.853722e-05,9,1
1.241726e-05,-1.62683e-05,9,1
5.61749e-05,-4.437533e-06,9,1
8.858796e-05,1.322759e-05,9,1
9.977047e-05,2.975825e-05,9,1
9.26396e-05,4.272347e-05,9,1
7.52986e-05,4.82337e-05,9,1
5.325772e-05,4.580272e-05,9,1
2.603075e-05,4.094075e-05,9,1
-9.299493e-06,3.753739e-05,9,1
-4.981582e-05,3.867184e-05,9,1
-8.44978e-05,4.239934e-05,9,1
-9.730096e-05,4.434413e-05,9,1
-7.801519e-05,4.288554e-05,9,1
-3.604027e-05,3.769945e-05,9,1
1.079661e-05,3.364782e-05,9,1
4.904402e-05,3.235129e-05,9,1
8.210535e-05,3.462021e-05,9,1
0.0001180839,3.786152e-05,9,1
0.0001611932,3.850978e-05,9,1
0.0002090025,3.753739e-05,9,1
0.0002540567,3.575467e-05,9,1
0.0002851732,3.202716e-05,9,1
0.0002879283,2.505836e-05,9,1
0.0002632944,1.501031e-05,9,1
0.0002284504,5.286387e-06,9,1
0.0002039785,-1.034161e-06,9,1
0.0001973338,-2.330684e-06,9,1
0.0001984683,1.002961e-07,9,1
0.0001918236,2.855407e-06,9,1
0.0001688103,3.341602e-06,9,1
0.0001247285,1.558884e-06,9,1
6.265751e-05,-4.923729e-06,9,1
-5.89612e-06,-1.367526e-05,9,1
-6.423963e-05,-2.129233e-05,9,1
-9.357346e-05,-2.404744e-05,9,1
-8.417367e-05,-2.031993e-05,9,1
-4.398147e-05,-1.156841e-05,9,1
3.665733e-06,2.623614e-07,9,1
3.705119e-05,1.403791e-05,9,1
3.996837e-05,2.554455e-05,9,1
3.989864e-06,3.445814e-05,9,1
-7.169464e-05,4.126489e-05,9,1
-0.0001710407,4.547859e-05,9,1
-0.0002729798,4.612685e-05,9,1
-0.0003522297,4.272347e-05,9,1
-0.0003989045,3.60788e-05,9,1
-0.0004118697,3.105477e-05,9,1
-0.0003942046,2.943412e-05,9,1
-0.0003591985,2.797553e-05,9,1
-0.0003248407,2.635488e-05,9,1
-0.0002992343,2.34377e-05,9,1
-0.0002823795,1.987227e-05,9,1
-0.0002653627,1.322759e-05,9,1
-0.0002408908,4.47606e-06,9,1
-0.0002037779,-6.220252e-06,9,1
-0.0001571031,-1.756482e-05,9,1
-0.0001105903,-2.728874e-05,9,1
-7.477388e-05,-3.312309e-05,9,1
-4.608832e-05,-3.312309e-05,9,1
-1.108221e-05,-2.777494e-05,9,1
3.202716e-05,-2.307504e-05,9,1
7.983644e-05,-2.631635e-05,9,1
0.0001260251,-3.701266e-05,9,1
0.0001667035,-4.85193e-05,9,1
0.0002047888,-5.483985e-05,9,1
0.0002362295,-5.581224e-05,9,1
0.0002590807,-5.257093e-05,9,1
0.0002736666,-4.511593e-05,9,1
0.0002858215,-3.63644e-05,9,1
0.0003067279,-3.150244e-05,9,1
0.0003423823,-3.134038e-05,9,1
0.0003884089,-3.247483e-05,9,1
0.0004256839,-3.069211e-05,9,1
0.0004305459,-2.745081e-05,9,1
0.0003884089,-2.194059e-05,9,1
0.0003065659,-1.724069e-05,9,1
0.0002068957,-1.464765e-05,9,1
0.0001151667,-1.545797e-05,9,1
4.920609e-05,-1.724069e-05,9,1
1.1769e-05,-2.09682e-05,9,1
-7.516774e-06,-2.453363e-05,9,1
-1.99958e-05,-2.599222e-05,9,1
-3.134038e-05,-2.210265e-05,9,1
-4.560212e-05,-1.399939e-05,9,1
-6.699475e-05,-5.085794e-06,9,1
-9.260107e-05,1.558884e-06,9,1
-0.000114804,4.47606e-06,9,1
-0.0001214487,4.962256e-06,9,1
-0.0001063766,3.179537e-06,9,1
-7.039812e-05,1.883015e-06,9,1
-2.971972e-05,3.341602e-06,9,1
-8.651231e-06,9.013889e-06,9,1
-1.643037e-05,2.246531e-05,9,1
-4.673658e-05,4.466826e-05,9,1
-8.222889e-05,7.011252e-05,9,1
-0.0001067007,8.761557e-05,9,1
-0.0001178833,9.442231e-05,9,1
-0.0001211246,9.182927e-05,9,1
-0.0001232314,8.696731e-05,9,1
-0.0001274451,8.437427e-05,9,1
-0.0001336036,8.259155e-05,9,1
-0.0001357104,7.691926e-05,9,1
-0.0001290658,6.687121e-05,9,1
-0.0001109144,5.504044e-05,9,1
-8.012204e-05,4.304761e-05,9,1
-3.928157e-05,3.251336e-05,9,1
-1.682422e-06,2.181705e-05,9,1
2.603075e-05,1.112074e-05,9,1
4.045456e-05,3.017472e-06,9,1
3.802358e-05,-2.238346e-07,9,1
1.792748e-05,1.072688e-06,9,1
-2.064406e-05,2.04508e-06,9,1
-7.412562e-05,-3.14101e-06,9,1
-0.0001342519,-1.286493e-05,9,1
-0.0001877334,-2.356124e-05,9,1
-0.0002222533,-2.89094e-05,9,1
-0.000231329,-2.437157e-05,9,1
-0.0002107467,-1.189254e-05,9,1
-0.0001554824,2.531276e-06,9,1
-6.39155e-05,1.403791e-05,9,1
5.56887e-05,1.97102e-05,9,1
0.000180479,1.906194e-05,9,1
0.0002780424,1.209313e-05,9,1
0.0003269861,3.017472e-06,9,1
0.0003328204,-2.654814e-06,9,1
0.0003159656,2.855407e-06,9,1
0.0002906835,1.954813e-05,9,1
0.0002631324,4.02925e-05,9,1
0.0002286124,5.649903e-05,9,1
0.00018291,6.152305e-05,9,1
0.0001274836,5.682316e-05,9,1
7.270556e-05,4.72613e-05,9,1
2.829966e-05,3.915804e-05,9,1
-3.627206e-06,3.60788e-05,9,1
-2.874733e-05,3.915804e-05,9,1
-5.532604e-05,4.369587e-05,9,1
-8.595638e-05,4.369587e-05,9,1
-0.0001120489,3.591673e-05,9,1
-0.0001259865,2.732727e-05,9,1
-0.0001308485,2.311357e-05,9,1
-0.0001340898,2.214118e-05,9,1
-0.0001378173,2.068259e-05,9,1
-0.000134576,1.744129e-05,9,1
-0.0001188556,1.193106e-05,9,1
-9.405965e-05,2.531276e-06,9,1
-6.91016e-05,-1.416145e-05,9,1
-5.613637e-05,-3.928157e-05,9,1
-6.650855e-05,-7.088431e-05,9,1
-0.0001031353,-0.0001015147,9,1
-0.0001566169,-0.0001232314,9,1
-0.0002052365,-0.0001340898,9,1
-0.0002227395,-0.0001344139,9,1
-0.0001823853,-0.0001284175,9,1
-7.55842e-05,-0.0001180453,9,1
7.724339e-05,-0.0001026491,9,1
0.0002370398,-8.287715e-05,9,1
0.0003640991,-5.743289e-05,9,1
0.0004414042,-2.728874e-05,9,1
0.0004721967,5.124321e-06,9,1
0.000477869,3.705119e-05,9,1
0.0004777069,6.46023e-05,9,1
0.0004734932,8.46984e-05,9,1
0.0004465904,9.831188e-05,9,1
0.0003804677,0.000111115,9,1
0.0002811216,0.0001248906,9,1
0.000170593,0.0001362352,9,1
7.708133e-05,0.0001428799,9,1
1.97102e-05,0.0001425557,9,1
-4.923729e-06,0.0001386662,9,1
-1.513384e-05,0.0001354248,9,1
-2.356124e-05,0.0001349386,9,1
-2.923353e-05,0.0001347766,9,1
-2.339918e-05,0.0001334801,9,1
-6.544382e-06,0.0001299146,9,1
1.565857e-05,0.0001216493,9,1
3.510641e-05,0.0001088461,9,1
4.499239e-05,9.182927e-05,9,1
4.402e-05,7.30297e-05,9,1
3.656499e-05,5.341979e-05,9,1
2.230325e-05,3.299956e-05,9,1
-1.358292e-06,1.014835e-05,9,1
-3.344723e-05,-1.594417e-05,9,1
-7.056019e-05,-4.43056e-05,9,1
-0.0001050801,-7.315322e-05,9,1
-0.0001308485,-0.0001037836,9,1
-0.0001415448,-0.0001329553,9,1
-0.0001392759,-0.0001524032,9,1
-0.0001394379,-0.0001549962,9,1
-0.0001562927,-0.0001379794,9,1
-0.000189192,-0.0001026491,9,1
-0.0002151224,-5.69467e-05,9,1
-0.0002113949,-1.043395e-05,9,1
-0.0001763888,3.008238e-05,9,1
-0.0001287416,5.99024e-05,9,1
-8.692878e-05,8.064677e-05,9,1
-5.500191e-05,9.361199e-05,9,1
-3.053005e-05,0.0001064152,9,1
-7.840905e-06,0.0001218114,9,1
1.582063e-05,0.0001368834,9,1
3.769945e-05,0.0001488763,9,1
4.953022e-05,0.0001553589,9,1
4.094075e-05,0.0001524417,9,1
-1.844488e-06,0.0001398006,9,1
-8.530812e-05,0.0001224596,9,1
-0.0002003745,0.0001078737,9,1
-0.000320789,9.766362e-05,9,1
-0.0004190006,9.134307e-05,9,1
-0.0004742648,8.307774e-05,9,1
-0.000477182,6.978839e-05,9,1
-0.0004301831,5.260946e-05,9,1
-0.0003553089,3.60788e-05,9,1
-0.0002749245,2.133085e-05,9,1
-0.0001958367,9.013889e-06,9,1
-0.0001186936,-6.220252e-06,9,1
-3.620233e-05,-2.89094e-05,9,1
6.508849e-05,-5.662256e-05,9,1
0.0002008992,-8.303922e-05,9,1
0.0003884089,-0.0001026491,9,1
0.0006175694,-0.0001136696,9,1
0.0008509436,-0.0001188556,9,1
0.001041371,-0.0001214487,9,1
0.001152548,-0.0001212866,9,1
0.001176209,-0.0001183694,9,1
0.001130182,-0.0001144799,9,1
0.001041046,-0.0001091317,9,1
0.0009288971,-9.794922e-05,9,1
0.0008008654,-8.109443e-05,9,1
0.000661165,-6.245691e-05,9,1
0.000520168,-4.689865e-05,9,1
0.0003916502,-3.441962e-05,9,1
0.0002957075,-2.323711e-05,9,1
0.000250005,-1.399939e-05,9,1
0.0002511395,-6.382317e-06,9,1
0.0002733424,-1.682422e-06,9,1
0.0002793389,-2.006553e-06,9,1
0.0002389846,-5.57199e-06,9,1
0.0001448246,-8.165035e-06,9,1
1.565857e-05,-2.978945e-06,9,1
-0.0001177212,1.274139e-05,9,1
-0.0002323013,2.927205e-05,9,1
-0.0003177098,4.207521e-05,9,1
-0.0003732982,5.309566e-05,9,1
-0.0003995528,6.249545e-05,9,1
-0.0003924218,6.735741e-05,9,1
-0.000355633,6.622294e-05,9,1
-0.000310741,6.168512e-05,9,1
-0.0002804347,5.860588e-05,9,1
-0.0002733039,6.03886e-05,9,1
-0.0002827037,6.525056e-05,9,1
-0.0002943724,7.092284e-05,9,1
-0.0003045825,7.57848e-05,9,1
-0.0003222476,8.145709e-05,9,1
-0.0003583881,8.858796e-05,9,1
-0.0004121938,9.831188e-05,9,1
-0.0004766958,0.0001091703,9,1
-0.0005450874,0.0001169494,9,1
-0.0006149375,0.0001187321,9,1
-0.0006784671,0.0001119254,9,1
-0.0007196317,0.0001023635,9,1
-0.0007209282,9.458438e-05,9,1
-0.0006747396,9.037068e-05,9,1
-0.0005851175,9.21534e-05,9,1
-0.0004635685,0.0001000946,9,1
-0.00032322,0.0001120874,9,1
-0.000179306,0.0001224596,9,1
-5.176061e-05,0.0001271595,9,1
4.126489e-05,0.0001235941,9,1
9.280167e-05,0.0001088461,9,1
0.0001072255,8.729144e-05,9,1
8.923623e-05,6.897806e-05,9,1
4.531652e-05,6.022653e-05,9,1
-2.031993e-05,5.925414e-05,9,1
-9.551824e-05,5.811968e-05,9,1
-0.0001624512,5.439218e-05,9,1
-0.0002063709,5.212327e-05,9,1
-0.0002230636,5.212327e-05,9,1
-0.0002182017,5.504044e-05,9,1
-0.0002006986,5.649903e-05,9,1
-0.0001859507,5.244739e-05,9,1
-0.0001827094,3.996837e-05,9,1
-0.0001929195,2.246531e-05,9,1
-0.0001994021,4.962256e-06,9,1
-0.000179306,-7.516774e-06,9,1
-0.0001157764,-8.813297e-06,9,1
-7.516774e-06,-5.479652e-07,9,1
0.0001240803,1.095867e-05,9,1
0.0002401191,1.841368e-05,9,1
0.0003064038,1.808955e-05,9,1
0.0003088348,1.355172e-05,9,1
0.0002621599,9.175954e-06,9,1
0.0001973338,5.124321e-06,9,1
0.0001493625,-5.479652e-07,9,1
0.0001433661,-9.623623e-06,9,1
0.0001846927,-2.356124e-05,9,1
0.0002602152,-3.766092e-05,9,1
0.0003418961,-4.689865e-05,9,1
0.0003910019,-4.868137e-05,9,1
0.000388733,-4.446767e-05,9,1
0.0003396272,-3.587821e-05,9,1
0.0002631324,-2.664048e-05,9,1
0.0001843686,-2.339918e-05,9,1
0.0001125736,-2.761287e-05,9,1
4.515445e-05,-3.701266e-05,9,1
-1.691656e-05,-4.787104e-05,9,1
-6.359137e-05,-5.808115e-05,9,1
-8.530812e-05,-6.359137e-05,9,1
-7.55842e-05,-6.326724e-05,9,1
-3.231277e-05,-5.889148e-05,9,1
3.883391e-05,-4.80331e-05,9,1
0.0001195424,-2.955766e-05,9,1
0.0001843686,-7.192643e-06,9,1
0.0002240746,1.338965e-05,9,1
0.0002466017,2.862379e-05,9,1
0.0002621599,3.899597e-05,9,1
0.0002709115,4.499239e-05,9,1
0.0002688046,4.661304e-05,9,1
0.0002540567,4.628891e-05,9,1
0.0002260194,4.839576e-05,9,1
0.0001863134,5.504044e-05,9,1
0.0001320215,6.330578e-05,9,1
6.83298e-05,6.687121e-05,9,1
2.693341e-06,6.184718e-05,9,1
-5.775702e-05,4.499239e-05,9,1
-0.0001088076,1.825161e-05,9,1
-0.0001423551,-1.318906e-05,9,1
-0.000152079,-4.462973e-05,9,1
-0.0001410586,-7.542214e-05,9,1
-0.000119666,-0.0001094559,9,1
-0.0001005423,-0.0001502963,9,1
-9.19528e-05,-0.0001935677,9,1
-9.162867e-05,-0.0002347323,9,1
-9.179074e-05,-0.0002666592,9,1
-8.579432e-05,-0.0002846485,9,1
-7.785312e-05,-0.0002877277,9,1
-7.736692e-05,-0.000276059,9,1
-9.162867e-05,-0.0002520733,9,1
-0.0001195039,-0.0002157707,9,1
-0.0001541859,-0.0001703924,9,1
-0.0001875713,-0.0001240417,9,1
-0.0002102605,-8.514606e-05,9,1
-0.0002104225,-4.997789e-05,9,1
-0.0001784957,-1.270286e-05,9,1
-0.0001075111,2.81376e-05,9,1
1.720949e-06,7.221937e-05,9,1
0.0001453108,0.0001169494,9,1
0.0003046211,0.0001576278,9,1
0.0004499937,0.0001921477,9,1
0.0005503122,0.0002161334,9,1
0.0005824011,0.0002260194,9,1
0.00053994,0.000220023,9,1
0.0004334631,0.0002068957,9,1
0.0002843629,0.0001924718,9,1
0.0001232699,0.0001782101,9,1
-2.226472e-05,0.0001621656,9,1
-0.0001334415,0.0001419075,9,1
-0.0002050744,0.0001201907,9,1
-0.0002468872,0.0001043083,9,1
-0.0002652006,9.750156e-05,9,1
-0.0002643903,9.571884e-05,9,1
-0.0002472114,9.296373e-05,9,1
-0.0002188499,8.972242e-05,9,1
-0.0001901644,8.534666e-05,9,1
-0.0001681235,8.145709e-05,9,1
-0.00015451,7.513654e-05,9,1
-0.0001394379,6.687121e-05,9,1
-0.0001128592,5.666109e-05,9,1
-7.282909e-05,4.645098e-05,9,1
-2.550602e-05,3.591673e-05,9,1
2.408596e-05,2.716521e-05,9,1
7.90261e-05,1.987227e-05,9,1
0.0001423936,1.517237e-05,9,1
0.0002109473,1.663096e-05,9,1
0.0002838767,2.457216e-05,9,1
0.0003606957,3.543054e-05,9,1
0.0004321665,4.499239e-05,9,1
0.0004822447,4.77475e-05,9,1
0.0005010443,4.223728e-05,9,1
0.0004921307,3.13789e-05,9,1
0.000467983,2.34377e-05,9,1
0.0004392974,2.457216e-05,9,1
0.000411098,3.445814e-05,9,1
0.0003854917,4.645098e-05,9,1
0.0003589129,5.504044e-05,9,1
0.0003248792,5.52025e-05,9,1
0.0002804733,5.131294e-05,9,1
0.0002355812,4.612685e-05,9,1
0.0002030061,4.045456e-05,9,1
0.0001884202,3.445814e-05,9,1
0.0001817755,3.218923e-05,9,1
0.0001616794,3.251336e-05,9,1
0.0001099806,3.283749e-05,9,1
2.700314e-05,2.505836e-05,9,1
-6.829127e-05,7.485573e-07,9,1
-0.0001512687,-4.074016e-05,9,1
-0.0002079916,-9.260107e-05,9,1
-0.0002358668,-0.0001426792,9,1
-0.0002400805,-0.0001773612,9,1
-0.0002292221,-0.0001909747,9,1
-0.0002104225,-0.0001870851,9,1
-0.0001804405,-0.0001776853,9,1
-0.0001340898,-0.0001687718,9,1
-7.509801e-05,-0.0001559686,9,1
-1.140634e-05,-0.0001349001,9,1
4.158902e-05,-0.0001002181,9,1
6.476436e-05,-5.824322e-05,9,1
4.304761e-05,-1.62683e-05,9,1
-2.275091e-05,1.987227e-05,9,1
-0.0001149661,4.645098e-05,9,1
-0.0002006986,6.103686e-05,9,1
-0.0002499665,6.281957e-05,9,1
-0.0002519113,5.94162e-05,9,1
-0.0002156086,5.61749e-05,9,1
-0.0001613168,5.56887e-05,9,1
-0.0001182074,5.779555e-05,9,1
-0.0001029732,6.573675e-05,9,1
-0.0001107524,8.242948e-05,9,1
-0.0001310105,0.0001070634,9,1
-0.000161965,0.0001354248,9,1
-0.0002076674,0.000160545,9,1
-0.0002684419,0.0001723757,9,1
-0.0003366714,0.0001678379,9,1
-0.0004037664,0.0001503349,9,1
-0.0004676201,0.0001257009,9,1
-0.0005227224,0.0001007429,9,1
-0.0005559457,8.275361e-05,9,1
-0.0005523803,7.67572e-05,9,1
-0.0005057055,8.437427e-05,9,1
-0.0004246728,0.0001004187,9,1
-0.0003318095,0.0001166253,9,1
-0.0002468872,0.0001250527,9,1
-0.0001749302,0.000123432,9,1
-0.0001115627,0.0001145184,9,1
-5.22468e-05,0.000103498,9,1
3.179537e-06,9.280167e-05,9,1
5.19612e-05,8.340187e-05,9,1
9.620504e-05,7.67572e-05,9,1
0.000143204,7.286763e-05,9,1
0.000195389,7.367795e-05,9,1
0.0002459534,8.064677e-05,9,1
0.0002880904,9.26396e-05,9,1
0.0003161277,0.0001075496,9,1
0.0003362238,0.0001200286,9,1
0.0003642611,0.0001252147,9,1
0.0004127187,0.0001216493,9,1
0.0004785172,0.0001120874,9,1
0.0005488536,0.0001020394,9,1
0.0006002283,9.53947e-05,9,1
0.0006097901,8.891209e-05,9,1
0.0005708945,7.821578e-05,9,1
0.0005016926,6.395404e-05,9,1
0.00043087,4.466826e-05,9,1
0.000381278,2.489629e-05,9,1
0.000361506,1.257933e-05,9,1
0.0003624784,1.1769e-05,9,1
0.0003636129,1.727922e-05,9,1
0.0003475684,2.246531e-05,9,1
0.0003047831,2.003433e-05,9,1
0.0002336365,9.500085e-06,9,1
0.0001438522,-7.030578e-06,9,1
4.45062e-05,-2.194059e-05,9,1
-6.06742e-05,-3.231277e-05,9,1
-0.0001682856,-3.830919e-05,9,1
-0.0002724935,-3.944364e-05,9,1
-0.0003694086,-3.944364e-05,9,1
-0.0004559515,-4.284701e-05,9,1
-0.000529205,-5.192267e-05,9,1
-0.0005881967,-6.634648e-05,9,1
-0.0006279027,-7.995997e-05,9,1
-0.0006416783,-9.000802e-05,9,1
-0.000631144,-9.600444e-05,9,1
-0.0006019723,-9.568031e-05,9,1
-0.0005650214,-8.725291e-05,9,1
-0.0005259637,-7.444975e-05,9,1
-0.000482044,-6.213279e-05,9,1
-0.0004298589,-5.257093e-05,9,1
-0.0003789705,-4.673658e-05,9,1
-0.0003360231,-4.252288e-05,9,1
-0.000295993,-3.652646e-05,9,1
-0.0002415391,-3.150244e-05,9,1
-0.0001543479,-3.053005e-05,9,1
-3.134038e-05,-3.134038e-05,9,1
0.0001080358,-3.328516e-05,9,1
0.000225209,-3.458168e-05,9,1
0.0002850112,-3.425755e-05,9,1
0.0002827423,-3.117831e-05,9,1
0.0002316917,-2.453363e-05,9,1
0.0001566554,-1.156841e-05,9,1
8.064677e-05,5.448452e-06,9,1
2.230325e-05,1.906194e-05,9,1
-9.947754e-06,2.197911e-05,9,1
-1.270286e-05,1.501031e-05,9,1
1.533444e-05,2.693341e-06,9,1
7.189524e-05,-1.20546e-05,9,1
0.0001500107,-2.437157e-05,9,1
0.0002446569,-2.955766e-05,9,1
0.0003610198,-2.518189e-05,9,1
0.0005119027,-1.25408e-05,9,1
0.0006872575,7.485573e-07,9,1
0.0008525642,9.175954e-06,9,1
0.0009639032,1.371378e-05,9,1
0.0009849718,1.711715e-05,9,1
0.0009041011,2.133085e-05,9,1
0.0007438183,2.667901e-05,9,1
0.0005462606,3.364782e-05,9,1
0.0003600474,4.191315e-05,9,1
0.0002182402,5.131294e-05,9,1
0.000135911,6.152305e-05,9,1
9.296373e-05,7.124698e-05,9,1
4.969229e-05,7.562274e-05,9,1
-2.161646e-05,7.157111e-05,9,1
-0.000119666,6.03886e-05,9,1
-0.000216419,4.953022e-05,9,1
-0.0002801106,4.499239e-05,9,1
-0.0003000446,4.628891e-05,9,1
-0.0002875656,5.034055e-05,9,1
-0.0002668213,5.714729e-05,9,1
-0.0002624455,6.200925e-05,9,1
-0.0002854588,6.103686e-05,9,1
-0.0003339163,5.406805e-05,9,1
-0.0003961493,4.596478e-05,9,1
-0.0004593548,3.899597e-05,9,1
-0.0005086227,3.348575e-05,9,1
-0.0005340669,2.603075e-05,9,1
-0.0005283947,1.760335e-05,9,1
-0.0004961436,1.160693e-05,9,1
-0.0004478482,8.041497e-06,9,1
-0.0004096008,3.665733e-06,9,1
-0.0004011734,-4.275467e-06,9,1
-0.000430021,-1.173047e-05,9,1
-0.0004823681,-1.448558e-05,9,1
-0.0005352014,-1.416145e-05,9,1
-0.000559187,-1.270286e-05,9,1
-0.0005293671,-1.124428e-05,9,1
-0.0004343968,-9.785688e-06,9,1
-0.0002877277,-1.237873e-05,9,1
-0.0001284175,-2.0482e-05,9,1
-2.006553e-06,-3.296103e-05,9,1
6.897806e-05,-4.608832e-05,9,1
9.085688e-05,-5.483985e-05,9,1
9.21534e-05,-5.970181e-05,9,1
0.0001072255,-6.326724e-05,9,1
0.0001728619,-6.926366e-05,9,1
0.000304297,-8.02841e-05,9,1
0.0004858102,-9.130454e-05,9,1
0.0006686199,-9.730096e-05,9,1
0.0007937344,-9.373552e-05,9,1
0.0008250132,-7.720486e-05,9,1
0.0007767176,-5.176061e-05,9,1
0.000701033,-2.275091e-05,9,1
0.000661327,-2.492749e-06,9,1
0.0006964952,3.503668e-06,9,1
0.000799893,-7.840905e-06,9,1
0.0009123664,-3.344723e-05,9,1
0.0009570965,-6.456377e-05,9,1
0.0008900014,-9.422172e-05,9,1
0.0007238843,-0.0001157764,9,1
0.0005102821,-0.0001266348,9,1
0.0003073762,-0.0001280934,9,1
0.0001477418,-0.0001251762,9,1
3.721326e-05,-0.0001199901,9,1
-3.360929e-05,-0.0001083214,9,1
-7.801519e-05,-8.482193e-05,9,1
-0.0001114006,-5.127441e-05,9,1
-0.0001478653,-1.691656e-05,9,1
-0.0001947022,1.160693e-05,9,1
-0.0002481838,3.154097e-05,9,1
-0.0002950206,4.483033e-05,9,1
-0.0003198166,5.666109e-05,9,1
-0.0003190063,6.914012e-05,9,1
-0.0003003688,8.42122e-05,9,1
-0.0002776796,9.928428e-05,9,1
-0.0002627696,0.0001124116,9,1
-0.0002656868,0.0001211631,9,1
-0.0002856209,0.0001278078,9,1
-0.0003165753,0.0001346145,9,1
-0.000350447,0.0001409351,9,1
-0.000377836,0.0001394765,9,1
-0.0003930701,0.0001302388,9,1
-0.0003814014,0.0001205148,9,1
-0.0003301888,0.0001179218,9,1
-0.0002405667,0.0001250527,9,1
-0.0001374932,0.000135911,9,1
-5.548811e-05,0.0001414213,9,1
-6.220252e-06,0.0001370455,9,1
2.635488e-05,0.0001289422,9,1
5.893001e-05,0.0001250527,9,1
9.490851e-05,0.0001266733,9,1
0.0001198666,0.000128456,9,1
0.0001292664,0.0001227837,9,1
0.0001406109,0.0001112771,9,1
0.0001816135,0.0001026876,9,1
0.0002689667,0.0001044704,9,1
0.0003882468,0.0001148425,9,1
0.0004939134,0.0001295905,9,1
0.0005391297,0.0001430419,9,1
0.0004999099,0.0001503349,9,1
0.0003845193,0.0001480659,9,1
0.0002292607,0.0001349386,9,1
7.983644e-05,0.0001140322,9,1
-3.117831e-05,9.101894e-05,9,1
-0.0001003802,6.995045e-05,9,1
-0.0001433275,5.179914e-05,9,1
-0.0001763888,3.332369e-05,9,1
-0.0002070192,1.387585e-05,9,1
-0.0002301945,7.485573e-07,9,1
-0.0002373254,-1.034161e-06,9,1
-0.0002232257,8.851824e-06,9,1
-0.0001984297,2.39239e-05,9,1
-0.0001733096,3.672706e-05,9,1
-0.0001536997,4.337174e-05,9,1
-0.0001434896,4.223728e-05,9,1
-0.0001499722,3.543054e-05,9,1
-0.0001818991,2.619281e-05,9,1
-0.0002378116,1.501031e-05,9,1
-0.0003016653,2.369211e-06,9,1
-0.0003481781,-9.137427e-06,9,1
-0.000360333,-1.902341e-05,9,1
-0.0003387782,-2.988179e-05,9,1
-0.0002976137,-4.592625e-05,9,1
-0.0002554767,-6.715681e-05,9,1
-0.0002267911,-9.260107e-05,9,1
-0.0002170672,-0.0001188556,9,1
-0.000221605,-0.0001433275,9,1
-0.0002323013,-0.0001635857,9,1
-0.0002421874,-0.0001796301,9,1
-0.0002501286,-0.0001934057,9,1
-0.0002483458,-0.0002037779,9,1
-0.0002324634,-0.000209126,9,1
-0.0002036158,-0.0002109087,9,1
-0.0001650443,-0.0002097743,9,1
-0.0001159385,-0.0002060468,9,1
-5.532604e-05,-0.0002002124,9,1
1.12828e-05,-0.0001925954,9,1
7.643307e-05,-0.0001809267,9,1
0.0001346145,-0.0001609926,9,1
0.0001858272,-0.0001314967,9,1
0.000232502,-9.503204e-05,9,1
0.0002744769,-5.69467e-05,9,1
0.0003052694,-2.194059e-05,9,1
0.0003227724,6.582909e-06,9,1
0.0003383307,2.829966e-05,9,1
0.0003657197,4.35338e-05,9,1
0.0004083429,5.61749e-05,9,1
0.0004589073,6.638502e-05,9,1
0.000502827,7.546067e-05,9,1
0.0005245438,8.42122e-05,9,1
0.0005106062,9.733949e-05,9,1
0.0004559901,0.0001138702,9,1
0.0003694472,0.0001279698,9,1
0.0002662116,0.000135749,9,1
0.0001642725,0.000138342,9,1
8.032264e-05,0.0001398006,9,1
1.857574e-05,0.0001438522,9,1
-2.129233e-05,0.0001514693,9,1
-3.863332e-05,0.0001611932,9,1
-3.522994e-05,0.0001744826,9,1
-2.226472e-05,0.0001926339,9,1
-2.437157e-05,0.0002145127,9,1
-6.44017e-05,0.0002331503,9,1
-0.0001358725,0.0002380122,9,1
-0.0002070192,0.0002268297,9,1
-0.0002425115,0.0002031682,9,1
-0.0002209568,0.0001759412,9,1
-0.0001438137,0.000150659,9,1
-2.761287e-05,0.0001295905,9,1
0.000103498,0.0001140322,9,1
0.0002193747,0.000106091,9,1
0.000294573,0.00010366,9,1
0.0003166139,0.0001041462,9,1
0.0002898731,0.0001054428,9,1
0.000230071,0.0001051186,9,1
0.0001579519,0.0001043083,9,1
9.21534e-05,0.0001044704,9,1
4.337174e-05,0.000106091,9,1
1.160693e-05,0.000105929,9,1
-1.351319e-05,9.960841e-05,9,1
-4.122636e-05,8.194328e-05,9,1
-7.493595e-05,5.260946e-05,9,1
-0.0001016767,2.052053e-05,9,1
-0.0001018388,-7.516774e-06,9,1
-5.808115e-05,-2.501983e-05,9,1
3.154097e-05,-3.036798e-05,9,1
0.0001513072,-2.826114e-05,9,1
0.0002720459,-2.339918e-05,9,1
0.0003626405,-1.918548e-05,9,1
0.0004018603,-1.724069e-05,9,1
0.0003833848,-1.432352e-05,9,1
0.0003171001,-7.678839e-06,9,1
0.0002242366,2.369211e-06,9,1
0.0001331559,1.112074e-05,9,1
6.184718e-05,1.257933e-05,9,1
2.116879e-05,6.258778e-06,9,1
6.582909e-06,-4.923729e-06,9,1
4.244267e-07,-1.610624e-05,9,1
-1.578211e-05,-2.550602e-05,9,1
-5.095028e-05,-3.490581e-05,9,1
-9.956988e-05,-4.495386e-05,9,1
-0.0001504584,-5.030202e-05,9,1
-0.0001885437,-4.754691e-05,9,1
-0.0002018331,-3.992984e-05,9,1
-0.0001908126,-3.101625e-05,9,1
-0.0001661787,-2.339918e-05,9,1
-0.0001389517,-2.015787e-05,9,1
-0.0001185315,-2.194059e-05,9,1
-0.0001063766,-2.615429e-05,9,1
-9.470791e-05,-3.053005e-05,9,1
-7.169464e-05,-3.798505e-05,9,1
-2.712668e-05,-4.754691e-05,9,1
3.802358e-05,-5.451572e-05,9,1
0.000108522,-5.22468e-05,9,1
0.0001649207,-4.414354e-05,9,1
0.0001895547,-3.26369e-05,9,1
0.0001775618,-1.902341e-05,9,1
0.0001338042,-4.437533e-06,9,1
6.751948e-05,6.258778e-06,9,1
-1.221667e-05,8.851824e-06,9,1
-9.568031e-05,2.693341e-06,9,1
-0.0001639098,-9.947754e-06,9,1
-0.000208964,-2.307504e-05,9,1
-0.0002373254,-3.247483e-05,9,1
-0.0002551526,-3.360929e-05,9,1
-0.0002639041,-2.550602e-05,9,1
-0.0002666592,-1.237873e-05,9,1
-0.0002703867,-6.176923e-08,9,1
-0.0002791382,1.1769e-05,9,1
-0.000286107,2.505836e-05,9,1
-0.000281083,4.142696e-05,9,1
-0.0002556388,5.957827e-05,9,1
-0.0002104225,7.238143e-05,9,1
-0.0001559686,7.67572e-05,9,1
-0.0001044318,7.497447e-05,9,1
-6.521203e-05,7.027458e-05,9,1
-4.041603e-05,6.200925e-05,9,1
-2.988179e-05,4.888196e-05,9,1
-3.069211e-05,2.910999e-05,9,1
-3.506788e-05,3.503668e-06,9,1
-3.409549e-05,-2.566809e-05,9,1
-2.291298e-05,-5.500191e-05,9,1
-4.923729e-06,-8.303922e-05,9,1
1.144487e-05,-0.0001102662,9,1
1.9224e-05,-0.000137169,9,1
1.776542e-05,-0.0001656925,9,1
6.096713e-06,-0.0001893541,9,1
-1.270286e-05,-0.0002019951,9,1
-3.036798e-05,-0.0002049123,9,1
-2.971972e-05,-0.0002010227,9,1
7.485573e-07,-0.0001880575,9,1
5.341979e-05,-0.000166989,9,1
0.0001057669,-0.000137169,9,1
0.0001402868,-9.859748e-05,9,1
0.0001501728,-5.240886e-05,9,1
0.0001406109,-3.465141e-06,9,1
0.0001203528,3.996837e-05,9,1
9.409818e-05,7.238143e-05,9,1
5.957827e-05,9.280167e-05,9,1
2.003433e-05,0.0001026876,9,1
-1.108221e-05,0.0001022015,9,1
-1.643037e-05,0.000101067,9,1
1.387585e-05,0.0001088461,9,1
6.687121e-05,0.0001266733,9,1
0.0001145184,0.0001459591,9,1
0.0001231079,0.0001577899,9,1
8.097089e-05,0.0001584381,9,1
2.04508e-06,0.0001479039,9,1
-8.676672e-05,0.0001294284,9,1
-0.0001533756,0.0001052807,9,1
-0.0001746061,7.853991e-05,9,1
-0.0001464067,5.601284e-05,9,1
-8.611845e-05,4.547859e-05,9,1
-2.647842e-05,4.871989e-05,9,1
1.614476e-05,6.006447e-05,9,1
4.288554e-05,6.962632e-05,9,1
6.816773e-05,7.189524e-05,9,1
0.0001072255,6.670914e-05,9,1
0.0001671896,6.006447e-05,9,1
0.0002410915,5.828175e-05,9,1
0.0003073762,6.573675e-05,9,1
0.0003448133,7.691926e-05,9,1
0.0003470822,8.307774e-05,9,1
0.000324231,7.821578e-05,9,1
0.0002958695,6.022653e-05,9,1
0.000282256,3.105477e-05,9,1
0.0002863077,-2.330684e-06,9,1
0.0002936006,-3.21507e-05,9,1
0.000282256,-5.159854e-05,9,1
0.0002370398,-5.678463e-05,9,1
0.0001547106,-5.208474e-05,9,1
4.304761e-05,-4.203669e-05,9,1
-7.282909e-05,-2.809907e-05,9,1
-0.0001635857,-1.448558e-05,9,1
-0.0002138259,-1.682422e-06,9,1
-0.0002295462,1.257933e-05,9,1
-0.0002243602,2.81376e-05,9,1
-0.0002154466,4.191315e-05,9,1
-0.0002130156,4.936815e-05,9,1
-0.0002173914,5.358185e-05,9,1
-0.0002204706,5.601284e-05,9,1
-0.0002191741,5.552663e-05,9,1
-0.0002131776,5.260946e-05,9,1
-0.000199078,4.920609e-05,9,1
-0.0001737958,4.758544e-05,9,1
-0.0001413827,5.082674e-05,9,1
-0.0001092938,6.119892e-05,9,1
-8.125649e-05,7.935024e-05,9,1
-4.544006e-05,0.0001015532,9,1
1.873781e-05,0.0001211631,9,1
0.0001218114,0.0001341283,9,1
0.0002581083,0.0001422316,9,1
0.0004049396,0.0001470936,9,1
0.0005292437,0.0001472556,9,1
0.0006049282,0.0001433661,9,1
0.0006146522,0.0001386662,9,1
0.0005553362,0.0001328318,9,1
0.0004422146,0.0001257009,9,1
0.0003000832,0.0001167873,9,1
0.0001492004,0.0001065772,9,1
7.879432e-06,9.68533e-05,9,1
-0.000112373,8.826383e-05,9,1
-0.0002032917,8.129502e-05,9,1
-0.0002634179,7.140904e-05,9,1
-0.000295993,5.423012e-05,9,1
-0.0003039342,2.39239e-05,9,1
-0.0002972895,-2.09682e-05,9,1
-0.0002788141,-7.55842e-05,9,1
-0.0002499665,-0.0001332795,9,1
-0.0002175534,-0.0001802784,9,1
-0.0001922712,-0.0002079916,9,1
-0.0001823853,-0.0002186879,9,1
-0.0001929195,-0.0002157707,9,1
-0.0002173914,-0.0002023193,9,1
-0.0002425115,-0.0001797922,9,1
-0.0002595283,-0.0001460826,9,1
-0.0002642282,-9.924574e-05,9,1
-0.0002558008,-4.187462e-05,9,1
-0.0002373254,1.760335e-05,9,1
-0.000211557,6.622294e-05,9,1
-0.0001831956,9.588091e-05,9,1
-0.0001572651,0.0001073875,9,1
-0.0001392759,0.0001026876,9,1
-0.0001397621,9.069481e-05,9,1
-0.0001705545,8.550872e-05,9,1
-0.0002248464,9.280167e-05,9,1
-0.0002788141,0.0001073875,9,1
-0.0003060411,0.0001151667,9,1
-0.0002938862,0.0001054428,9,1
-0.0002386219,7.821578e-05,9,1
-0.0001407345,4.304761e-05,9,1
-5.409925e-06,1.12828e-05,9,1
0.0001495245,-1.513384e-05,9,1
0.0002926282,-4.041603e-05,9,1
0.0003908399,-6.618442e-05,9,1
0.0004226047,-9.568031e-05,9,1
0.0003884089,-0.0001332795,9,1
0.0003026763,-0.0001773612,9,1
0.0001871237,-0.0002191741,9,1
7.173317e-05,-0.0002502906,9,1
-1.983374e-05,-0.000268766,9,1
-6.974985e-05,-0.0002747625,9,1
-6.197072e-05,-0.0002713591,9,1
6.744974e-06,-0.0002614731,9,1
0.000125863,-0.0002412149,9,1
0.0002683184,-0.0002110708,9,1
0.0004078567,-0.0001757406,9,1
0.000522599,-0.0001374932,9,1
0.0005997422,-9.341139e-05,9,1
0.0006363689,-4.446767e-05,9,1
0.0006358828,2.04508e-06,9,1
0.0006059006,3.55926e-05,9,1
0.0005567948,5.52025e-05,9,1
0.0005020167,6.46023e-05,9,1
0.0004576108,6.881599e-05,9,1
0.0004341113,7.157111e-05,9,1
0.0004295735,7.789165e-05,9,1
0.0004344354,9.069481e-05,9,1
0.0004399457,0.0001067393,9,1
0.0004360561,0.0001240803,9,1
0.0004200116,0.0001412592,9,1
0.0003965121,0.0001542244,9,1
0.0003819262,0.0001608691,9,1
0.0003908399,0.0001639484,9,1
0.0004229288,0.000168162,9,1
0.0004589073,0.0001762653,9,1
0.0004786793,0.0001840444,9,1
0.0004739794,0.0001864754,9,1
0.0004441593,0.000177886,9,1
0.0003957018,0.000160545,9,1
0.0003378445,0.0001425557,9,1
0.0002778803,0.0001297526,9,1
0.00021273,0.0001174356,9,1
0.000135911,0.000101067,9,1
4.418206e-05,7.643307e-05,9,1
-6.375344e-05,4.596478e-05,9,1
-0.0001796301,1.355172e-05,9,1
-0.0002862691,-1.383732e-05,9,1
-0.0003689224,-3.312309e-05,9,1
-0.0004245108,-4.47918e-05,9,1
-0.0004587066,-4.965376e-05,9,1
-0.0004857715,-4.835724e-05,9,1
-0.00052175,-3.830919e-05,9,1
-0.000571342,-1.983374e-05,9,1
-0.0006167202,9.338019e-06,9,1
-0.0006351956,4.871989e-05,9,1
-0.0006191512,9.63671e-05,9,1
-0.0005791211,0.0001477418,9,1
-0.0005334187,0.0001942546,9,1
-0.0004982505,0.0002278021,9,1
-0.000474589,0.0002477361,9,1
-0.0004535205,0.0002538946,9,1
-0.00042759,0.0002488706,9,1
-0.0003899909,0.0002406053,9,1
-0.0003353749,0.0002302331,9,1
-0.000268766,0.0002193747,9,1
-0.000206533,0.0002086784,9,1
-0.0001739578,0.0001983062,9,1
-0.0001888679,0.0001882582,9,1
-0.000256287,0.0001765894,9,1
-0.0003512573,0.0001602208,9,1
-0.0004296969,0.0001354248,9,1
-0.0004553032,0.0001077117,9,1
-0.0004215936,8.583286e-05,9,1
-0.0003459091,7.513654e-05,9,1
-0.000258718,7.221937e-05,9,1
-0.0001896782,6.670914e-05,9,1
-0.0001483515,4.920609e-05,9,1
-0.0001276072,1.744129e-05,9,1
-0.0001125351,-2.210265e-05,9,1
-0.0001015147,-6.180866e-05,9,1
-9.973194e-05,-9.470791e-05,9,1
-0.000114804,-0.000117235,9,1
-0.0001441378,-0.0001300382,9,1
-0.0001789819,-0.0001394379,9,1
-0.0002167431,-0.0001472171,9,1
-0.0002570974,-0.0001517549,9,1
-0.0002966413,-0.0001502963,9,1
-0.000328244,-0.0001365208,9,1
-0.0003494746,-0.0001081593,9,1
-0.0003663294,-7.120844e-05,9,1
-0.0003825359,-3.020592e-05,9,1
-0.000387722,6.90704e-06,9,1
-0.0003619536,3.721326e-05,9,1
-0.0002946965,6.152305e-05,9,1
-0.0001869231,8.161915e-05,9,1
-5.402952e-05,9.31258e-05,9,1
8.486046e-05,9.361199e-05,9,1
0.0002075439,8.729144e-05,9,1
0.0002950592,7.805372e-05,9,1
0.0003326584,6.670914e-05,9,1
0.0003209897,5.260946e-05,9,1
0.0002798251,3.364782e-05,9,1
0.0002415777,9.824215e-06,9,1
0.0002282883,-1.821308e-05,9,1
0.000239957,-4.641245e-05,9,1
0.000267184,-7.137051e-05,9,1
0.0002939248,-9.130454e-05,9,1
0.0003161277,-0.0001112386,9,1
0.0003418961,-0.000137007,9,1
0.0003869503,-0.0001723372,9,1
0.0004546936,-0.0002182017,9,1
0.0005337815,-0.0002700626,9,1
0.0005947181,-0.0003165753,9,1
0.0006118971,-0.0003462333,9,1
0.0005793219,-0.0003569296,9,1
0.0005067165,-0.0003541745,9,1
0.0004170944,-0.0003426678,9,1
0.0003346032,-0.0003209511,9,1
0.000272208,-0.0002895104,9,1
0.0002284504,-0.0002523975,9,1
0.000192958,-0.0002133397,9,1
0.0001548727,-0.0001716889,9,1
0.0001116012,-0.0001285796,9,1
6.557468e-05,-8.239095e-05,9,1
1.825161e-05,-3.296103e-05,9,1
-2.372331e-05,1.582063e-05,9,1
-5.565017e-05,5.730935e-05,9,1
-7.898758e-05,9.199134e-05,9,1
-9.989401e-05,0.0001193804,9,1
-0.0001199901,0.0001380179,9,1
-0.0001396,0.0001504969,9,1
-0.0001551583,0.0001623277,9,1
-0.0001660166,0.0001741585,9,1
-0.0001677994,0.0001837203,9,1
-0.00015451,0.0001902029,9,1
-0.0001128592,0.000195227,9,1
-3.328516e-05,0.0002012234,9,1
7.999851e-05,0.000210299,9,1
0.0002119197,0.0002209954,9,1
0.0003352514,0.0002318537,9,1
0.0004153117,0.0002357433,9,1
0.0004334631,0.0002294227,9,1
0.0003903536,0.0002137024,9,1
0.0003112658,0.0001957132,9,1
0.0002307193,0.0001785342,9,1
0.0001744826,0.0001652449,9,1
0.0001516314,0.0001566554,9,1
0.000158114,0.0001527658,9,1
0.0001746447,0.0001490383,9,1
0.0001788584,0.0001414213,9,1
0.0001589243,0.0001278078,9,1
0.0001216493,0.0001112771,9,1
8.340187e-05,9.733949e-05,9,1
6.184718e-05,8.664318e-05,9,1
6.330578e-05,7.967438e-05,9,1
8.810177e-05,7.513654e-05,9,1
0.0001222976,7.432621e-05,9,1
0.0001466074,7.594687e-05,9,1
0.0001539003,7.546067e-05,9,1
0.00015309,6.930219e-05,9,1
0.0001527658,5.601284e-05,9,1
0.000155521,3.737532e-05,9,1
0.0001504969,1.727922e-05,9,1
0.0001216493,-2.81688e-06,9,1
6.233338e-05,-1.99958e-05,9,1
-1.545797e-05,-3.409549e-05,9,1
-8.725291e-05,-4.284701e-05,9,1
-0.000137169,-4.268495e-05,9,1
-0.0001655305,-3.68506e-05,9,1
-0.0001846542,-3.085418e-05,9,1
-0.0002099363,-2.89094e-05,9,1
-0.0002455907,-3.668853e-05,9,1
-0.0002836761,-5.370539e-05,9,1
-0.0003105789,-7.250496e-05,9,1
-0.0003246786,-8.222889e-05,9,1
-0.0003259751,-8.07703e-05,9,1
-0.0003060411,-6.91016e-05,9,1
-0.0002567732,-5.2733e-05,9,1
-0.0001806025,-3.863332e-05,9,1
-8.854943e-05,-3.312309e-05,9,1
1.031041e-05,-3.360929e-05,9,1
0.0001065772,-3.21507e-05,9,1
0.00019782,-2.291298e-05,9,1
0.000274801,-1.059602e-05,9,1
0.0003294171,-3.14101e-06,9,1
0.0003517821,-4.275467e-06,9,1
0.0003354135,-1.270286e-05,9,1
0.000287118,-2.307504e-05,9,1
0.000217592,-3.279896e-05,9,1
0.0001401247,-3.652646e-05,9,1
6.946425e-05,-3.409549e-05,9,1
2.035846e-05,-2.761287e-05,9,1
-4.437533e-06,-2.339918e-05,9,1
-1.286493e-05,-2.210265e-05,9,1
-1.643037e-05,-2.275091e-05,9,1
-2.323711e-05,-2.307504e-05,9,1
-3.830919e-05,-2.388537e-05,9,1
-6.099833e-05,-2.388537e-05,9,1
-9.373552e-05,-2.404744e-05,9,1
-0.0001425172,-2.583016e-05,9,1
-0.0002021572,-2.583016e-05,9,1
-0.0002684419,-1.983374e-05,9,1
-0.000333106,-7.678839e-06,9,1
-0.0003911253,8.365628e-06,9,1
-0.0004368278,2.554455e-05,9,1
-0.0004648651,4.191315e-05,9,1
-0.0004669719,5.795762e-05,9,1
-0.0004322899,7.481241e-05,9,1
-0.0003587123,9.134307e-05,9,1
-0.0002609869,0.0001069013,9,1
-0.0001587237,0.0001179218,9,1
-6.634648e-05,0.0001229458,9,1
4.638125e-06,0.0001271595,9,1
4.320967e-05,0.0001313732,9,1
5.228533e-05,0.0001321835,9,1
4.077869e-05,0.0001279698,9,1
2.489629e-05,0.0001172735,9,1
1.517237e-05,0.0001067393,9,1
1.517237e-05,9.669123e-05,9,1
1.873781e-05,8.696731e-05,9,1
1.938607e-05,7.805372e-05,9,1
1.776542e-05,7.043665e-05,9,1
1.987227e-05,6.46023e-05,9,1
3.154097e-05,5.876794e-05,9,1
5.536457e-05,4.985435e-05,9,1
9.426025e-05,3.478228e-05,9,1
0.0001621656,1.582063e-05,9,1
0.0002712356,1.002961e-07,9,1
0.0004242253,-4.113403e-06,9,1
0.0006086557,6.744974e-06,9,1
0.0007972999,2.327564e-05,9,1
0.0009575827,3.462021e-05,9,1
0.001053525,3.202716e-05,9,1
0.001054012,1.889987e-05,9,1
0.0009446174,3.989864e-06,9,1
0.000745439,-4.437533e-06,9,1
0.0005000719,-6.220252e-06,9,1
0.0002600531,-8.002969e-06,9,1
5.682316e-05,-1.497178e-05,9,1
-9.811128e-05,-3.020592e-05,9,1
-0.0002058847,-4.625038e-05,9,1
-0.0002739521,-5.532604e-05,9,1
-0.0003112272,-5.22468e-05,9,1
-0.0003275957,-3.814712e-05,9,1
-0.000333106,-1.821308e-05,9,1
-0.000333268,-8.720959e-07,9,1
-0.0003284061,8.851824e-06,9,1
-0.0003165753,6.420843e-06,9,1
-0.0002958309,-7.030578e-06,9,1
-0.0002626076,-2.89094e-05,9,1
-0.0002183637,-5.289507e-05,9,1
-0.0001737958,-7.120844e-05,9,1
-0.0001442999,-8.206682e-05,9,1
-0.0001417068,-8.547019e-05,9,1
-0.000166827,-8.352541e-05,9,1
-0.0002117191,-7.850138e-05,9,1
-0.0002629317,-7.347736e-05,9,1
-0.0003063652,-6.877746e-05,9,1
-0.0003327818,-6.359137e-05,9,1
-0.000335699,-5.435365e-05,9,1
-0.0003115513,-4.138842e-05,9,1
-0.0002639041,-2.647842e-05,9,1
-0.0001948643,-1.140634e-05,9,1
-0.0001102662,-1.034161e-06,9,1
-1.934754e-05,7.485573e-07,9,1
6.654708e-05,-2.492749e-06,9,1
0.0001226217,-1.124428e-05,9,1
0.0001261871,-2.0482e-05,9,1
7.270556e-05,-2.42095e-05,9,1
-1.562004e-05,-2.226472e-05,9,1
-0.0001052422,-1.610624e-05,9,1
-0.0001647201,-6.868513e-06,9,1
-0.0001770371,3.665733e-06,9,1
-0.0001404103,1.727922e-05,9,1
-7.55842e-05,3.283749e-05,9,1
-1.156841e-05,4.677511e-05,9,1
2.862379e-05,5.439218e-05,9,1
4.499239e-05,5.666109e-05,9,1
5.260946e-05,5.747142e-05,9,1
6.670914e-05,5.682316e-05,9,1
9.328786e-05,5.536457e-05,9,1
0.0001287802,5.034055e-05,9,1
0.0001616794,4.35338e-05,9,1
0.0001816135,3.526847e-05,9,1
0.0001735102,3.008238e-05,9,1
0.0001297526,3.299956e-05,9,1
5.131294e-05,4.547859e-05,9,1
-4.80331e-05,6.217132e-05,9,1
-0.0001449482,7.821578e-05,9,1
-0.000213988,8.810177e-05,9,1
-0.0002382978,9.182927e-05,9,1
-0.000213988,9.26396e-05,9,1
-0.0001541859,9.426025e-05,9,1
-8.060823e-05,9.426025e-05,9,1
-1.869928e-05,9.037068e-05,9,1
9.986281e-06,8.194328e-05,9,1
-8.489166e-06,6.800567e-05,9,1
-6.569822e-05,5.179914e-05,9,1
-0.000137007,3.818565e-05,9,1
-0.0001951884,3.299956e-05,9,1
-0.0002277635,3.834771e-05,9,1
-0.0002382978,5.212327e-05,9,1
-0.0002412149,6.638502e-05,9,1
-0.0002475355,7.481241e-05,9,1
-0.0002627696,7.756752e-05,9,1
-0.0002812451,7.562274e-05,9,1
-0.0002927517,6.962632e-05,9,1
-0.0002945344,6.395404e-05,9,1
-0.0002901587,6.006447e-05,9,1
-0.0002856209,5.487838e-05,9,1
-0.0002799486,5.244739e-05,9,1
-0.0002663351,5.471631e-05,9,1
-0.0002405667,6.508849e-05,9,1
-0.0002037779,8.161915e-05,9,1
-0.0001575893,9.782569e-05,9,1
-0.0001021629,0.0001039842,9,1
-3.425755e-05,9.669123e-05,9,1
5.1475e-05,7.870197e-05,9,1
0.0001620036,5.730935e-05,9,1
0.0002931144,3.769945e-05,9,1
0.0004303838,2.149292e-05,9,1
0.0005460985,6.096713e-06,9,1
0.0006144901,-1.448558e-05,9,1
0.0006190279,-4.43056e-05,9,1
0.0005700842,-8.433573e-05,9,1
0.0005007202,-0.0001329553,9,1
0.0004486972,-0.0001827094,9,1
0.0004444835,-0.0002220912,9,1
0.0004919686,-0.0002457528,9,1
0.0005665187,-0.0002515871,9,1
0.0006255105,-0.0002431597,9,1
0.0006287518,-0.0002267911,9,1
0.0005608465,-0.0002076674,9,1
0.0004373526,-0.0001851404,9,1
0.00029198,-0.0001549962,9,1
0.0001587623,-0.0001162626,9,1
5.795762e-05,-7.315322e-05,9,1
-5.085794e-06,-3.21507e-05,9,1
-3.668853e-05,4.244267e-07,9,1
-4.787104e-05,1.9224e-05,9,1
-5.078821e-05,2.376183e-05,9,1
-5.370539e-05,2.424803e-05,9,1
-6.310517e-05,3.170304e-05,9,1
-8.044617e-05,4.693717e-05,9,1
-0.0001107524,6.654708e-05,9,1
-0.0001621271,8.42122e-05,9,1
-0.0002361909,9.63671e-05,9,1
-0.0003177098,9.669123e-05,9,1
-0.0003765395,8.729144e-05,9,1
-0.0003911253,7.837785e-05,9,1
-0.0003587123,7.772959e-05,9,1
-0.0002916173,8.777764e-05,9,1
-0.0002071812,0.0001039842,9,1
-0.0001216107,0.0001193804,9,1
-4.300908e-05,0.0001260251,9,1
3.364782e-05,0.0001226217,9,1
0.0001143563,0.0001150046,9,1
0.0001974959,0.0001104668,9,1
0.0002743149,0.000110953,9,1
0.000339141,0.000113384,9,1
0.0003824125,0.0001137081,9,1
0.0003921364,0.000113384,9,1
0.0003606957,0.0001106288,9,1
0.0002965178,0.0001054428,9,1
0.0002138645,9.328786e-05,9,1
0.0001315353,7.270556e-05,9,1
6.41161e-05,4.596478e-05,9,1
2.181705e-05,1.857574e-05,9,1
1.396819e-06,-4.437533e-06,9,1
3.179537e-06,-2.210265e-05,9,1
2.862379e-05,-3.425755e-05,9,1
7.465034e-05,-4.203669e-05,9,1
0.0001260251,-4.495386e-05,9,1
0.0001675138,-4.122636e-05,9,1
0.0001872858,-3.085418e-05,9,1
0.0001786963,-1.497178e-05,9,1
0.0001462832,2.693341e-06,9,1
9.896015e-05,2.165498e-05,9,1
4.499239e-05,4.077869e-05,9,1
-5.57199e-06,6.152305e-05,9,1
-4.495386e-05,8.275361e-05,9,1
-6.81292e-05,9.669123e-05,9,1
-7.542214e-05,9.798775e-05,9,1
-7.898758e-05,8.858796e-05,9,1
-8.741498e-05,7.30297e-05,9,1
-0.0001018388,5.828175e-05,9,1
-0.0001170729,4.920609e-05,9,1
-0.0001311726,5.179914e-05,9,1
-0.0001472171,6.492643e-05,9,1
-0.0001671511,8.016057e-05,9,1
-0.0001882196,9.118101e-05,9,1
-0.0002060468,9.879808e-05,9,1
-0.0002170672,0.0001038221,9,1
-0.000224036,0.0001065772,9,1
-0.0002323013,0.0001077117,9,1
-0.0002412149,0.0001077117,9,1
-0.0002417012,0.0001056048,9,1
-0.000223874,9.977047e-05,9,1
-0.0001854645,9.069481e-05,9,1
-0.000142031,8.04847e-05,9,1
-0.0001118868,6.751948e-05,9,1
-0.0001011905,5.050261e-05,9,1
-0.0001054042,3.121684e-05,9,1
-0.0001157764,1.144487e-05,9,1
-0.000127283,-7.030578e-06,9,1
-0.0001366828,-2.46957e-05,9,1
-0.0001433275,-4.138842e-05,9,1
-0.0001465688,-5.629844e-05,9,1
-0.0001449482,-6.456377e-05,9,1
-0.0001336036,-6.423963e-05,9,1
-0.0001154523,-5.727083e-05,9,1
-0.0001003802,-4.819517e-05,9,1
-9.746302e-05,-3.976777e-05,9,1
-0.0001028112,-3.360929e-05,9,1
-0.0001055663,-2.89094e-05,9,1
-9.470791e-05,-2.712668e-05,9,1
-6.650855e-05,-2.518189e-05,9,1
-2.777494e-05,-2.064406e-05,9,1
1.711715e-05,-1.25408e-05,9,1
6.687121e-05,-2.238346e-07,9,1
0.0001242423,1.468618e-05,9,1
0.000187934,3.024445e-05,9,1
0.0002514636,3.899597e-05,9,1
0.0003098072,3.98063e-05,9,1
0.0003647473,3.462021e-05,9,1
0.0004316803,2.603075e-05,9,1
0.0005242196,1.695509e-05,9,1
0.0006261588,8.365628e-06,9,1
0.0007044364,1.558884e-06,9,1
0.0007302048,-4.437533e-06,9,1
0.0006882299,-3.789272e-06,9,1
0.0005845079,-2.238346e-07,9,1
0.0004392974,5.448452e-06,9,1
0.0002827423,1.436204e-05,9,1
0.0001462832,2.214118e-05,9,1
5.682316e-05,2.684107e-05,9,1
2.992031e-05,2.700314e-05,9,1
5.374392e-05,2.197911e-05,9,1
9.733949e-05,1.047248e-05,9,1
0.0001339663,-8.002969e-06,9,1
0.000150659,-3.069211e-05,9,1
0.0001461212,-5.386745e-05,9,1
0.0001286181,-7.169464e-05,9,1
0.0001120874,-8.336335e-05,9,1
0.0001088461,-8.692878e-05,9,1
0.0001278078,-8.255302e-05,9,1
0.000168162,-6.942573e-05,9,1
0.0002172679,-4.738484e-05,9,1
0.0002618358,-1.886135e-05,9,1
0.0002931144,7.23117e-06,9,1
0.0003051073,2.538249e-05,9,1
0.000304459,3.640293e-05,9,1
0.0003075383,4.369587e-05,9,1
0.0003274723,5.487838e-05,9,1
0.0003637749,7.189524e-05,9,1
0.0003971604,9.247754e-05,9,1
0.0003957018,0.0001120874,9,1
0.0003302274,0.0001250527,9,1
0.0001981441,0.0001315353,9,1
2.975825e-05,0.0001287802,9,1
-0.0001306864,0.0001197045,9,1
-0.0002468872,0.0001098185,9,1
-0.0003062031,0.0001022015,9,1
-0.0003139823,9.63671e-05,9,1
-0.0002906449,9.134307e-05,9,1
-0.0002627696,8.583286e-05,9,1
-0.0002548284,7.740546e-05,9,1
-0.0002840002,6.751948e-05,9,1
-0.0003501228,5.56887e-05,9,1
-0.0004358554,4.385793e-05,9,1
-0.0005172121,3.218923e-05,9,1
-0.0005742591,2.116879e-05,9,1
-0.0006014861,1.193106e-05,9,1
-0.000606186,4.638125e-06,9,1
-0.0005932208,9.106227e-07,9,1
-0.0005640491,2.693341e-06,9,1
-0.0005202913,8.851824e-06,9,1
-0.0004687546,1.468618e-05,9,1
-0.0004191627,1.501031e-05,9,1
-0.0003767015,9.013889e-06,9,1
-0.0003416954,9.106227e-07,9,1
-0.0003138202,-5.085794e-06,9,1
-0.000288538,-8.489166e-06,9,1
-0.0002609869,-1.335113e-05,9,1
-0.000233922,-1.821308e-05,9,1
-0.000216419,-1.967167e-05,9,1
-0.0002170672,-1.756482e-05,9,1
-0.0002318152,-1.545797e-05,9,1
-0.0002491561,-1.416145e-05,9,1
-0.0002577456,-1.286493e-05,9,1
-0.0002574215,-1.237873e-05,9,1
-0.0002548284,-1.448558e-05,9,1
-0.0002569353,-2.388537e-05,9,1
-0.0002580697,-4.414354e-05,9,1
-0.0002507768,-7.104638e-05,9,1
-0.0002382978,-9.551824e-05,9,1
-0.0002287359,-0.0001065387,9,1
-0.0002253326,-0.0001028112,9,1
-0.0002233878,-9.049421e-05,9,1
-0.0002105846,-7.882551e-05,9,1
-0.0001776853,-7.250496e-05,9,1
-0.0001284175,-6.991193e-05,9,1
-7.963584e-05,-6.456377e-05,9,1
-5.32192e-05,-5.289507e-05,9,1
-5.775702e-05,-3.555408e-05,9,1
-7.995997e-05,-1.740276e-05,9,1
-9.681477e-05,-4.599598e-06,9,1
-9.584238e-05,-1.196227e-06,9,1
-6.731888e-05,-5.247859e-06,9,1
-9.461558e-06,-1.432352e-05,9,1
7.57848e-05,-2.485776e-05,9,1
0.000187772,-3.587821e-05,9,1
0.000324393,-5.289507e-05,9,1
0.0004791655,-7.931171e-05,9,1
0.0006378276,-0.0001078352,9,1
0.0007807693,-0.000127121,9,1
0.0008831946,-0.0001298761,9,1
0.0009185249,-0.0001182074,9,1
0.0008734707,-9.892161e-05,9,1
0.0007582422,-7.60704e-05,9,1
0.0006031455,-4.949169e-05,9,1
0.0004389733,-2.485776e-05,9,1
0.0002892249,-5.409925e-06,9,1
0.0001650828,1.241726e-05,9,1
6.78436e-05,3.380988e-05,9,1
-3.951337e-06,6.217132e-05,9,1
-4.916756e-05,9.555677e-05,9,1
-6.991193e-05,0.0001287802,9,1
-6.407757e-05,0.0001547106,9,1
-2.09682e-05,0.0001689724,9,1
6.41161e-05,0.000170431,9,1
0.0001676758,0.0001624898,9,1
0.0002503292,0.0001501728,9,1
0.0002801492,0.0001368834,9,1
0.0002504913,0.0001206769,9,1
0.0001720516,0.0001007429,9,1
7.043665e-05,7.90261e-05,9,1
-2.372331e-05,6.03886e-05,9,1
-8.40116e-05,4.35338e-05,9,1
-9.940781e-05,2.586868e-05,9,1
-7.218083e-05,5.448452e-06,9,1
-1.416145e-05,-1.25408e-05,9,1
5.536457e-05,-2.161646e-05,9,1
0.000108522,-1.983374e-05,9,1
0.0001198666,-1.059602e-05,9,1
8.405014e-05,2.855407e-06,9,1
1.533444e-05,1.630683e-05,9,1
-5.905355e-05,3.073064e-05,9,1
-0.0001133454,4.790957e-05,9,1
-0.0001386276,6.330578e-05,9,1
-0.0001460826,7.708133e-05,9,1
-0.0001528894,8.826383e-05,9,1
-0.0001699062,9.63671e-05,9,1
-0.0002028055,9.977047e-05,9,1
-0.0002502906,0.0001000946,9,1
-0.0003023136,0.0001009049,9,1
-0.0003442885,0.0001056048,9,1
-0.0003710293,0.0001120874,9,1
-0.0003773498,0.0001150046,9,1
-0.0003575778,0.0001093323,9,1
-0.0003087962,9.377406e-05,9,1
-0.0002420253,7.432621e-05,9,1
-0.0001765509,5.828175e-05,9,1
-0.0001337657,4.661304e-05,9,1
-0.0001237176,3.510641e-05,9,1
-0.0001365208,1.744129e-05,9,1
-0.0001511067,-9.623623e-06,9,1
-0.0001468929,-4.47918e-05,9,1
-0.0001146419,-7.931171e-05,9,1
-5.370539e-05,-0.0001054042,9,1
2.781346e-05,-0.000117235,9,1
0.0001195424,-0.0001161005,9,1
0.0002065715,-0.0001102662,9,1
0.0002760976,-0.0001088076,9,1
0.0003219621,-0.0001130213,9,1
0.0003470822,-0.0001162626,9,1
0.0003569682,-0.0001088076,9,1
0.000356482,-8.644259e-05,9,1
0.0003472443,-5.176061e-05,9,1
0.0003290929,-1.399939e-05,9,1
0.0003055935,1.663096e-05,9,1
0.0002812837,3.105477e-05,9,1
0.0002660495,3.283749e-05,9,1
0.0002610255,3.105477e-05,9,1
0.0002645909,3.526847e-05,9,1
0.0002804733,4.612685e-05,9,1
0.0003111037,6.330578e-05,9,1
0.0003474063,8.259155e-05,9,1
0.0003736609,9.63671e-05,9,1
0.0003867882,0.0001023635,9,1
0.0003897054,0.0001026876,9,1
0.0003858158,0.000103498,9,1
0.0003759298,0.0001067393,9,1
0.0003600474,0.0001098185,9,1
0.0003276344,0.0001070634,9,1
0.0002723701,9.280167e-05,9,1
0.0001900409,6.962632e-05,9,1
8.956036e-05,4.385793e-05,9,1
-1.124428e-05,2.084466e-05,9,1
-9.276313e-05,3.017472e-06,9,1
-0.000144462,-8.813297e-06,9,1
-0.0001634236,-1.221667e-05,9,1
-0.0001528894,-7.354709e-06,9,1
-0.0001274451,1.558884e-06,9,1
-0.0001016767,1.371378e-05,9,1
-7.720486e-05,2.700314e-05,9,1
-4.754691e-05,3.948217e-05,9,1
-1.124428e-05,5.082674e-05,9,1
2.878586e-05,5.844381e-05,9,1
6.557468e-05,6.395404e-05,9,1
9.069481e-05,7.319176e-05,9,1
9.377406e-05,8.729144e-05,9,1
7.610894e-05,0.00010366,9,1
4.483033e-05,0.0001137081,9,1
8.851824e-06,0.0001122495,9,1
-2.923353e-05,9.896015e-05,9,1
-7.428769e-05,7.659513e-05,9,1
-0.0001327933,5.536457e-05,9,1
-0.0002047502,4.256141e-05,9,1
-0.0002841623,4.094075e-05,9,1
-0.0003591985,4.920609e-05,9,1
-0.0004248349,6.476436e-05,9,1
-0.0004762096,8.307774e-05,9,1
-0.000509595,0.0001002567,9,1
-0.0005232086,0.0001124116,9,1
-0.0005164018,0.0001177597,9,1
-0.0004901472,0.0001153287,9,1
-0.0004478482,0.0001049566,9,1
-0.0003893426,8.956036e-05,9,1
-0.0003134961,7.384002e-05,9,1
-0.0002227395,6.200925e-05,9,1
-0.0001224211,5.779555e-05,9,1
-2.615429e-05,5.747142e-05,9,1
5.131294e-05,5.666109e-05,9,1
9.831188e-05,5.260946e-05,9,1
0.0001137081,4.35338e-05,9,1
0.0001064152,3.18651e-05,9,1
8.858796e-05,1.954813e-05,9,1
6.654708e-05,7.717366e-06,9,1
3.769945e-05,-4.599598e-06,9,1
1.002961e-07,-1.448558e-05,9,1
-3.749886e-05,-1.918548e-05,9,1
-5.64605e-05,-1.950961e-05,9,1
-4.090223e-05,-1.659243e-05,9,1
1.9224e-05,-1.529591e-05,9,1
0.0001219734,-1.529591e-05,9,1
0.0002482223,-1.610624e-05,9,1
0.0003681507,-1.707863e-05,9,1
0.0004602039,-1.62683e-05,9,1
0.0005106062,-1.562004e-05,9,1
0.0005240576,-1.318906e-05,9,1
0.000515144,-9.785688e-06,9,1
0.0005000719,-9.947754e-06,9,1
0.0004890515,-1.286493e-05,9,1
0.0004843516,-1.821308e-05,9,1
0.0004802999,-2.615429e-05,9,1
0.0004673347,-3.247483e-05,9,1
0.0004316803,-3.571614e-05,9,1
0.0003658818,-3.68506e-05,9,1
0.0002741528,-3.863332e-05,9,1
0.0001683241,-4.365734e-05,9,1
6.265751e-05,-5.013995e-05,9,1
-3.247483e-05,-5.062615e-05,9,1
-0.00010978,-4.414354e-05,9,1
-0.0001640719,-3.976777e-05,9,1
-0.0001984297,-4.544006e-05,9,1
-0.0002180396,-6.650855e-05,9,1
-0.0002280877,-9.924574e-05,9,1
-0.0002324634,-0.0001327933,9,1
-0.0002344082,-0.0001572651,9,1
-0.0002379736,-0.0001650443,9,1
-0.0002451045,-0.0001533756,9,1
-0.0002559629,-0.0001274451,9,1
-0.0002664971,-9.551824e-05,9,1
-0.000261311,-6.342931e-05,9,1
-0.0002211189,-3.247483e-05,9,1
-0.0001319829,-5.409925e-06,9,1
-2.006553e-06,9.824215e-06,9,1
0.0001334801,1.047248e-05,9,1
0.00022764,1.234753e-06,9,1
0.0002406053,-1.108221e-05,9,1
0.0001667035,-1.756482e-05,9,1
3.591673e-05,-1.189254e-05,9,1
-0.0001081593,6.90704e-06,9,1
-0.0002274394,3.705119e-05,9,1
-0.0003002067,7.157111e-05,9,1
-0.0003227338,0.0001041462,9,1
-0.0003074997,0.0001276457,9,1
-0.0002767073,0.0001376938,9,1
-0.0002506147,0.0001355869,9,1
-0.0002394322,0.0001255389,9,1
-0.0002433218,0.0001099806,9,1
-0.000253694,8.972242e-05,9,1
-0.0002582318,7.221937e-05,9,1
-0.0002548284,6.508849e-05,9,1
-0.0002374874,6.83298e-05,9,1
-0.0001976194,7.870197e-05,9,1
-0.0001240417,8.956036e-05,9,1
-9.137427e-06,9.733949e-05,9,1
0.0001394765,0.0001000946,9,1
0.0002992729,9.604298e-05,9,1
0.0004397836,8.79397e-05,9,1
0.0005362125,7.983644e-05,9,1
0.00056976,7.497447e-05,9,1
0.0005345919,7.157111e-05,9,1
0.0004415663,6.654708e-05,9,1
0.0003219621,5.844381e-05,9,1
0.0002049509,4.304761e-05,9,1
0.0001088461,2.149292e-05,9,1
3.705119e-05,-2.978945e-06,9,1
-1.3027e-05,-2.647842e-05,9,1
-4.689865e-05,-4.819517e-05,9,1
-7.250496e-05,-7.023606e-05,9,1
-9.260107e-05,-9.454585e-05,9,1
-0.0001003802,-0.0001170729,9,1
-9.211487e-05,-0.0001332795,9,1
-6.991193e-05,-0.0001363587,9,1
-4.673658e-05,-0.0001170729,9,1
-3.555408e-05,-7.785312e-05,9,1
-4.657452e-05,-2.761287e-05,9,1
-7.931171e-05,2.473423e-05,9,1
-0.0001199901,7.076078e-05,9,1
-0.0001524032,0.000101067,9,1
-0.000171851,0.0001088461,9,1
-0.0001906506,9.328786e-05,9,1
-0.0002230636,5.925414e-05,9,1
-0.0002689281,1.695509e-05,9,1
-0.0003139823,-2.291298e-05,9,1
-0.0003402368,-5.062615e-05,9,1
-0.0003376438,-6.035007e-05,9,1
-0.0003128478,-5.59743e-05,9,1
-0.0002773555,-4.090223e-05,9,1
-0.0002429977,-2.161646e-05,9,1
-0.0002183637,-3.627206e-06,9,1
-0.0002146363,8.041497e-06,9,1
-0.0002384598,1.371378e-05,9,1
-0.0002833519,1.695509e-05,9,1
-0.0003361852,1.97102e-05,9,1
-0.0003760533,1.97102e-05,9,1
-0.0003870737,1.59827e-05,9,1
-0.0003608192,1.241726e-05,9,1
-0.0003000446,8.527692e-06,9,1
-0.0002125294,3.665733e-06,9,1
-9.762509e-05,-2.006553e-06,9,1
5.163707e-05,-7.030578e-06,9,1
0.0002344468,-1.25408e-05,9,1
0.0004324906,-2.0482e-05,9,1
0.0006075213,-3.328516e-05,9,1
0.0007259911,-5.257093e-05,9,1
0.0007674799,-7.720486e-05,9,1
0.0007334462,-0.0001016767,9,1
0.0006433378,-0.0001217728,9,1
0.0005274609,-0.0001366828,9,1
0.0004179048,-0.0001459206,9,1
0.0003373583,-0.0001472171,9,1
0.0002923041,-0.0001428413,9,1
0.0002759355,-0.0001329553,9,1
0.0002743149,-0.0001138316,9,1
0.0002738286,-8.336335e-05,9,1
0.0002657254,-4.203669e-05,9,1
0.0002464396,3.827799e-06,9,1
0.000220185,4.742337e-05,9,1
0.0001949028,7.999851e-05,9,1
0.0001731861,9.928428e-05,9,1
0.0001526038,0.0001072255,9,1
0.0001295905,0.0001104668,9,1
0.0001022015,0.0001078737,9,1
7.059871e-05,0.0001020394,9,1
3.429608e-05,9.831188e-05,9,1
-1.358292e-06,9.944634e-05,9,1
-3.458168e-05,0.0001039842,9,1
-6.423963e-05,0.0001075496,9,1
-8.854943e-05,0.0001075496,9,1
-0.0001026491,0.0001070634,9,1
-0.000102325,0.0001091703,9,1
-8.174268e-05,0.0001158149,9,1
-3.895745e-05,0.000128456,9,1
2.214118e-05,0.0001445005,9,1
8.79397e-05,0.0001592484,9,1
0.0001427178,0.000170431,9,1
0.0001691344,0.0001770756,9,1
0.0001590864,0.0001819376,9,1
0.0001198666,0.0001859892,9,1
6.78436e-05,0.000190365,9,1
1.792748e-05,0.0001932822,9,1
-2.307504e-05,0.0001918236,9,1
-5.743289e-05,0.0001820997,9,1
-8.935975e-05,0.0001660552,9,1
-0.0001195039,0.0001485521,9,1
-0.0001425172,0.000135911,9,1
-0.0001491618,0.0001292664,9,1
-0.0001353863,0.0001265113,9,1
-0.0001146419,0.0001240803,9,1
-0.0001070249,0.0001198666,9,1
-0.0001227452,0.0001128978,9,1
-0.0001590478,0.0001018773,9,1
-0.0002068571,8.664318e-05,9,1
-0.0002481838,6.946425e-05,9,1
-0.0002668213,5.504044e-05,9,1
-0.0002630937,4.596478e-05,9,1
-0.0002485079,4.094075e-05,9,1
-0.0002360289,3.93201e-05,9,1
-0.0002316531,4.142696e-05,9,1
-0.0002300324,4.239934e-05,9,1
-0.0002191741,3.348575e-05,9,1
-0.0001854645,1.047248e-05,9,1
-0.0001191798,-2.372331e-05,9,1
-3.069211e-05,-5.889148e-05,9,1
4.904402e-05,-8.417367e-05,9,1
8.615699e-05,-9.29252e-05,9,1
7.027458e-05,-8.498399e-05,9,1
2.035846e-05,-6.893953e-05,9,1
-2.745081e-05,-5.662256e-05,9,1
-4.041603e-05,-5.289507e-05,9,1
-7.840905e-06,-5.743289e-05,9,1
5.730935e-05,-6.893953e-05,9,1
0.0001346145,-8.320128e-05,9,1
0.000210137,-9.29252e-05,9,1
0.0002743149,-9.568031e-05,9,1
0.000326824,-9.568031e-05,9,1
0.0003700955,-9.827335e-05,9,1
0.0004013741,-0.000104918,9,1
0.0004190393,-0.0001107524,9,1
0.0004221185,-0.0001126972,9,1
0.0004149876,-0.0001091317,9,1
0.0003989431,-0.0001020008,9,1
0.0003720403,-9.454585e-05,9,1
0.0003347652,-8.838737e-05,9,1
0.0002927903,-8.320128e-05,9,1
0.0002574601,-8.060823e-05,9,1
0.0002352571,-8.012204e-05,9,1
0.0002247229,-7.671866e-05,9,1
0.0002158093,-6.699475e-05,9,1
0.0001932822,-5.159854e-05,9,1
0.0001464453,-3.539201e-05,9,1
7.772959e-05,-2.145439e-05,9,1
2.207145e-06,-1.25408e-05,9,1
-6.39155e-05,-8.651231e-06,9,1
-0.0001183694,-4.761664e-06,9,1
-0.0001673132,3.665733e-06,9,1
-0.0002177155,1.452411e-05,9,1
-0.0002715212,2.214118e-05,9,1
-0.0003227338,2.489629e-05,9,1
-0.0003570916,2.538249e-05,9,1
-0.0003575778,2.943412e-05,9,1
-0.0003100927,4.142696e-05,9,1
-0.0002235498,5.56887e-05,9,1
-0.0001227452,6.638502e-05,9,1
-3.733679e-05,6.735741e-05,9,1
1.160693e-05,6.006447e-05,9,1
2.376183e-05,4.855783e-05,9,1
1.112074e-05,3.834771e-05,9,1
-7.840905e-06,3.267542e-05,9,1
-2.323711e-05,3.299956e-05,9,1
-3.020592e-05,3.640293e-05,9,1
-2.453363e-05,4.013043e-05,9,1
-7.678839e-06,4.207521e-05,9,1
1.54965e-05,4.094075e-05,9,1
4.045456e-05,3.299956e-05,9,1
5.974033e-05,1.873781e-05,9,1
6.800567e-05,2.693341e-06,9,1
6.703327e-05,-5.085794e-06,9,1
6.606088e-05,-1.358292e-06,9,1
7.189524e-05,1.1769e-05,9,1
8.534666e-05,2.76514e-05,9,1
9.863601e-05,4.256141e-05,9,1
0.0001002567,5.19612e-05,9,1
8.016057e-05,5.633696e-05,9,1
3.672706e-05,6.006447e-05,9,1
-2.194059e-05,6.444023e-05,9,1
-7.914964e-05,7.092284e-05,9,1
-0.0001190177,8.016057e-05,9,1
-0.0001282554,9.280167e-05,9,1
-0.0001071869,0.0001031738,9,1
-6.796714e-05,0.0001077117,9,1
-2.194059e-05,0.0001075496,9,1
2.894792e-05,0.000103498,9,1
9.361199e-05,9.733949e-05,9,1
0.0001761032,9.16672e-05,9,1
0.0002602152,8.680524e-05,9,1
0.0003182346,8.194328e-05,9,1
0.0003284447,7.821578e-05,9,1
0.0002843629,7.448828e-05,9,1
0.0001934442,6.589881e-05,9,1
7.546067e-05,5.325772e-05,9,1
-4.819517e-05,4.077869e-05,9,1
-0.0001614788,2.894792e-05,9,1
-0.0002559629,1.792748e-05,9,1
-0.0003297026,7.069105e-06,9,1
-0.0003856151,-2.654814e-06,9,1
-0.0004253211,-1.027188e-05,9,1
-0.0004467137,-1.788895e-05,9,1
-0.0004468758,-2.826114e-05,9,1
-0.0004272659,-4.333321e-05,9,1
-0.0003893426,-6.261898e-05,9,1
-0.0003394265,-7.882551e-05,9,1
-0.0002825416,-8.676672e-05,9,1
-0.0002277635,-8.384954e-05,9,1
-0.0001877334,-7.60704e-05,9,1
-0.0001661787,-6.667062e-05,9,1
-0.0001536997,-6.099833e-05,9,1
-0.000142031,-5.889148e-05,9,1
-0.0001280934,-5.791909e-05,9,1
-0.0001117248,-5.386745e-05,9,1
-9.19528e-05,-4.414354e-05,9,1
-6.180866e-05,-3.150244e-05,9,1
-2.161646e-05,-1.740276e-05,9,1
1.9224e-05,-4.761664e-06,9,1
5.034055e-05,4.313994e-06,9,1
6.897806e-05,7.717366e-06,9,1
7.432621e-05,6.420843e-06,9,1
7.30297e-05,7.879432e-06,9,1
7.140904e-05,1.744129e-05,9,1
6.816773e-05,3.624086e-05,9,1
6.330578e-05,6.055066e-05,9,1
6.395404e-05,8.194328e-05,9,1
6.881599e-05,9.296373e-05,9,1
7.059871e-05,9.037068e-05,9,1
6.508849e-05,8.113296e-05,9,1
5.666109e-05,7.043665e-05,9,1
5.293359e-05,6.281957e-05,9,1
5.19612e-05,5.649903e-05,9,1
4.855783e-05,5.131294e-05,9,1
4.239934e-05,4.936815e-05,9,1
3.867184e-05,5.050261e-05,9,1
3.737532e-05,5.244739e-05,9,1
3.154097e-05,5.406805e-05,9,1
1.517237e-05,5.163707e-05,9,1
-1.869928e-05,4.385793e-05,9,1
-5.970181e-05,2.959619e-05,9,1
-8.935975e-05,1.452411e-05,9,1
-8.465986e-05,1.883015e-06,9,1
-2.46957e-05,-5.89612e-06,9,1
0.0001054428,-1.20546e-05,9,1
0.0002916559,-1.3027e-05,9,1
0.0004966686,-1.027188e-05,9,1
0.0006760749,-4.113403e-06,9,1
0.0007916276,3.017472e-06,9,1
0.0008190167,7.879432e-06,9,1
0.0007605111,1.257933e-05,9,1
0.0006469032,2.035846e-05,9,1
0.0005120648,3.494434e-05,9,1
0.0003817642,5.585077e-05,9,1
0.0002702632,7.886404e-05,9,1
0.0001845306,9.879808e-05,9,1
0.0001269974,0.0001122495,9,1
9.069481e-05,0.0001148425,9,1
6.865393e-05,0.0001067393,9,1
4.790957e-05,9.604298e-05,9,1
1.484824e-05,8.550872e-05,9,1
-3.814712e-05,7.691926e-05,9,1
-0.0001065387,7.124698e-05,9,1
-0.0001731475,7.092284e-05,9,1
-0.0002295462,7.20573e-05,9,1
-0.0002734659,6.978839e-05,9,1
-0.0003066893,6.103686e-05,9,1
-0.0003264613,4.807163e-05,9,1
-0.0003269475,3.267542e-05,9,1
-0.0003031239,1.54965e-05,9,1
-0.0002616352,-2.654814e-06,9,1
-0.000219012,-1.983374e-05,9,1
-0.0001937298,-3.620233e-05,9,1
-0.0001938919,-4.965376e-05,9,1
-0.0002083157,-6.164659e-05,9,1
-0.0002230636,-7.137051e-05,9,1
-0.0002266291,-7.979791e-05,9,1
-0.0002126914,-8.741498e-05,9,1
-0.0001776853,-9.730096e-05,9,1
-0.0001193418,-0.0001128592,9,1
-3.928157e-05,-0.0001329553,9,1
5.552663e-05,-0.0001489998,9,1
0.0001517934,-0.0001556445,9,1
0.0002337985,-0.0001571031,9,1
0.0002856594,-0.0001561307,9,1
0.0002957075,-0.0001530514,9,1
0.0002645909,-0.0001439758,9,1
0.0002020337,-0.0001302002,9,1
0.0001171115,-0.0001141558,9,1
2.538249e-05,-9.66527e-05,9,1
-5.435365e-05,-7.526008e-05,9,1
-0.0001055663,-4.965376e-05,9,1
-0.0001233935,-2.404744e-05,9,1
-0.0001135075,-2.168618e-06,9,1
-8.611845e-05,1.322759e-05,9,1
-5.338126e-05,2.165498e-05,9,1
-2.258885e-05,3.13789e-05,9,1
-8.720959e-07,4.580272e-05,9,1
1.095867e-05,6.427817e-05,9,1
1.1769e-05,8.437427e-05,9,1
5.610517e-06,0.0001015532,9,1
1.072688e-06,0.0001127357,9,1
4.638125e-06,0.0001138702,9,1
2.133085e-05,0.0001020394,9,1
4.661304e-05,8.097089e-05,9,1
7.400208e-05,5.828175e-05,9,1
9.588091e-05,4.142696e-05,9,1
0.000113384,3.429608e-05,9,1
0.0001299146,3.624086e-05,9,1
0.0001446626,4.661304e-05,9,1
0.000153252,6.330578e-05,9,1
0.0001498487,7.805372e-05,9,1
0.0001334801,8.388807e-05,9,1
0.0001067393,8.080883e-05,9,1
7.594687e-05,7.594687e-05,9,1
4.434413e-05,7.513654e-05,9,1
1.484824e-05,7.935024e-05,9,1
-1.464765e-05,8.956036e-05,9,1
-4.462973e-05,0.0001043083,9,1
-7.120844e-05,0.0001177597,9,1
-9.260107e-05,0.0001281319,9,1
-0.0001118868,0.0001339663,9,1
-0.0001361966,0.0001362352,9,1
-0.0001747682,0.0001336421,9,1
-0.0002344082,0.0001287802,9,1
-0.000310903,0.0001268354,9,1
-0.0003815635,0.0001260251,9,1
-0.0004112214,0.0001218114,9,1
-0.0003775118,0.0001151667,9,1
-0.0002865932,0.0001070634,9,1
-0.0001572651,9.766362e-05,9,1
-1.221667e-05,8.74535e-05,9,1
0.0001291043,8.080883e-05,9,1
0.000252274,8.097089e-05,9,1
0.0003423823,9.069481e-05,9,1
0.0003848434,0.0001030118,9,1
0.0003749574,0.0001091703,9,1
0.0003153174,0.000105929,9,1
0.000222616,9.231547e-05,9,1
0.0001206769,7.092284e-05,9,1
3.105477e-05,4.920609e-05,9,1
-2.777494e-05,3.397195e-05,9,1
-4.868137e-05,2.781346e-05,9,1
-3.879538e-05,2.781346e-05,9,1
-8.165035e-06,3.024445e-05,9,1
3.18651e-05,3.18651e-05,9,1
7.30297e-05,3.13789e-05,9,1
0.0001043083,2.586868e-05,9,1
0.0001180839,1.663096e-05,9,1
0.0001156529,7.393236e-06,9,1
0.0001056048,3.341602e-06,9,1
9.717743e-05,5.448452e-06,9,1
0.0001022015,1.582063e-05,9,1
0.0001331559,3.299956e-05,9,1
0.0002038164,4.693717e-05,9,1
0.0003158036,4.985435e-05,9,1
0.0004535592,4.094075e-05,9,1
0.0005854804,2.359977e-05,9,1
0.0006733199,3.341602e-06,9,1
0.0006914712,-1.464765e-05,9,1
0.0006276174,-2.858527e-05,9,1
0.0004935893,-3.928157e-05,9,1
0.0003250413,-4.997789e-05,9,1
0.000165569,-5.905355e-05,9,1
4.742337e-05,-6.537409e-05,9,1
-1.62683e-05,-6.926366e-05,9,1
-3.117831e-05,-7.250496e-05,9,1
-1.270286e-05,-7.444975e-05,9,1
1.59827e-05,-7.315322e-05,9,1
3.380988e-05,-6.958779e-05,9,1
2.797553e-05,-6.44017e-05,9,1
-5.409925e-06,-5.808115e-05,9,1
-6.504996e-05,-5.419158e-05,9,1
-0.0001454344,-5.710876e-05,9,1
-0.000236353,-6.845333e-05,9,1
-0.000320789,-8.465986e-05,9,1
-0.0003755671,-0.000102325,9,1
-0.000387884,-0.0001136696,9,1
-0.000353202,-0.0001110765,9,1
-0.0002856209,-9.486997e-05,9,1
-0.0002053985,-7.315322e-05,9,1
-0.0001353863,-5.678463e-05,9,1
-9.746302e-05,-5.030202e-05,9,1
-9.681477e-05,-5.240886e-05,9,1
-0.0001256624,-5.678463e-05,9,1
-0.000164396,-5.905355e-05,9,1
-0.0001984297,-5.937768e-05,9,1
-0.0002180396,-5.953974e-05,9,1
-0.0002235498,-6.148453e-05,9,1
-0.0002282497,-6.44017e-05,9,1
-0.0002433218,-6.796714e-05,9,1
-0.0002705488,-7.088431e-05,9,1
-0.0003024756,-6.974985e-05,9,1
-0.0003272716,-6.375344e-05,9,1
-0.0003358611,-5.208474e-05,9,1
-0.0003277578,-3.68506e-05,9,1
-0.0003057169,-1.837515e-05,9,1
-0.0002734659,2.855407e-06,9,1
-0.0002308428,2.522042e-05,9,1
-0.0001788198,4.790957e-05,9,1
-0.0001191798,6.83298e-05,9,1
-5.483985e-05,8.259155e-05,9,1
1.403791e-05,8.84259e-05,9,1
8.956036e-05,8.858796e-05,9,1
0.0001684862,8.858796e-05,9,1
0.000242388,9.053275e-05,9,1
0.0002961937,9.68533e-05,9,1
0.0003195311,0.0001075496,9,1
0.0003158036,0.0001197045,9,1
0.0002927903,0.0001295905,9,1
0.0002618358,0.0001360731,9,1
0.0002305572,0.0001404489,9,1
0.0002057612,0.0001428799,9,1
0.0001872858,0.0001464453,9,1
0.0001650828,0.0001534141,9,1
0.0001274836,0.0001608691,9,1
7.027458e-05,0.0001663793,9,1
-6.176923e-08,0.0001686482,9,1
-7.380149e-05,0.0001662173,9,1
-0.0001391138,0.0001587623,9,1
-0.0001815749,0.000145797,9,1
-0.0001898403,0.0001269974,9,1
-0.0001661787,0.0001046324,9,1
-0.00012469,8.178122e-05,9,1
-8.709085e-05,6.314371e-05,9,1
-7.315322e-05,5.309566e-05,9,1
-8.984595e-05,5.082674e-05,9,1
-0.0001365208,4.936815e-05,9,1
-0.0002005366,4.110282e-05,9,1
-0.000266011,2.603075e-05,9,1
-0.0003172236,5.772582e-06,9,1
-0.0003512573,-1.707863e-05,9,1
-0.0003638984,-3.928157e-05,9,1
-0.0003551469,-5.808115e-05,9,1
-0.0003311612,-7.218083e-05,9,1
-0.0003066893,-8.07703e-05,9,1
-0.000293562,-8.125649e-05,9,1
-0.0002899966,-7.493595e-05,9,1
-0.0002882139,-6.342931e-05,9,1
-0.0002822175,-5.240886e-05,9,1
-0.0002666592,-4.90055e-05,9,1
-0.0002285739,-5.565017e-05,9,1
-0.000152079,-6.926366e-05,9,1
-2.761287e-05,-8.271508e-05,9,1
0.0001385041,-9.049421e-05,9,1
0.0003177483,-9.438378e-05,9,1
0.0004597176,-9.778715e-05,9,1
0.0005255162,-0.0001015147,9,1
0.0005065545,-0.0001029732,9,1
0.000423415,-9.746302e-05,9,1
0.0003159656,-8.060823e-05,9,1
0.0002263435,-5.354332e-05,9,1
0.0001919856,-2.226472e-05,9,1
0.00022764,1.079661e-05,9,1
0.000319207,3.737532e-05,9,1
0.0004255218,5.293359e-05,9,1
0.0004987754,5.698522e-05,9,1
0.0005044477,5.066468e-05,9,1
0.0004428628,4.142696e-05,9,1
0.0003384927,3.640293e-05,9,1
0.0002281262,3.624086e-05,9,1
0.0001409351,3.769945e-05,9,1
8.79397e-05,3.996837e-05,9,1
6.265751e-05,4.158902e-05,9,1
5.390598e-05,3.996837e-05,9,1
4.758544e-05,3.624086e-05,9,1
3.008238e-05,3.364782e-05,9,1
-7.030578e-06,3.154097e-05,9,1
-6.278104e-05,2.992031e-05,9,1
-0.0001259865,2.651694e-05,9,1
-0.0001814128,2.489629e-05,9,1
-0.0002183637,2.522042e-05,9,1
-0.0002368392,2.667901e-05,9,1
-0.0002423494,2.781346e-05,9,1
-0.0002337599,2.992031e-05,9,1
-0.0002138259,3.624086e-05,9,1
-0.000186761,4.693717e-05,9,1
-0.00015451,5.893001e-05,9,1
-0.0001021629,6.46023e-05,9,1
-4.275467e-06,5.666109e-05,9,1
0.0001628139,3.786152e-05,9,1
0.0004033189,2.052053e-05,9,1
0.0006879058,1.501031e-05,9,1
0.000958231,2.214118e-05,9,1
0.001147037,3.494434e-05,9,1
0.001205705,4.790957e-05,9,1
0.001121107,5.601284e-05,9,1
0.0009216042,5.925414e-05,9,1
0.0006650545,5.698522e-05,9,1
0.0004169324,5.293359e-05,9,1
0.0002284504,5.325772e-05,9,1
0.0001286181,6.055066e-05,9,1
0.000111115,7.789165e-05,9,1
0.000145635,0.0001005808,9,1
0.0001923098,0.000123432,9,1
0.0002138645,0.0001404489,9,1
0.0001884202,0.0001469315,9,1
0.000120839,0.000143204,9,1
3.705119e-05,0.0001360731,9,1
-3.26369e-05,0.0001295905,9,1
-6.861539e-05,0.0001235941,9,1
-7.769106e-05,0.0001190562,9,1
-7.477388e-05,0.0001151667,9,1
-7.104638e-05,0.0001093323,9,1
-7.363943e-05,9.879808e-05,9,1
-8.611845e-05,8.323981e-05,9,1
-0.0001105903,6.330578e-05,9,1
-0.0001477033,3.543054e-05,9,1
-0.0001938919,-1.520357e-06,9,1
-0.0002491561,-4.219875e-05,9,1
-0.0003099306,-8.368748e-05,9,1
-0.0003660052,-0.0001233935,9,1
-0.0004087905,-0.0001624512,9,1
-0.0004321279,-0.0001979435,9,1
-0.0004434724,-0.0002301945,9,1
-0.0004476861,-0.000258718,9,1
-0.0004452552,-0.0002814071,9,1
-0.0004416897,-0.0002929138,9,1
-0.0004504412,-0.0002927517,9,1
-0.0004841508,-0.0002836761,9,1
-0.0005439529,-0.000268766,9,1
-0.0006220684,-0.0002502906,9,1
-0.0007024527,-0.0002287359,9,1
-0.0007713305,-0.0002039399,9,1
-0.0008212466,-0.0001763888,9,1
-0.0008455564,-0.0001452723,9,1
-0.0008463667,-0.0001089697,9,1
-0.0008290258,-7.282909e-05,9,1
-0.0007953162,-4.349527e-05,9,1
-0.0007457242,-2.501983e-05,9,1
-0.0006791154,-1.497178e-05,9,1
-0.000593869,-8.489166e-06,9,1
-0.0004914437,4.244267e-07,9,1
-0.0003807532,1.59827e-05,9,1
-0.0002749245,3.640293e-05,9,1
-0.0001771992,5.730935e-05,9,1
-8.012204e-05,7.546067e-05,9,1
2.489629e-05,9.231547e-05,9,1
0.0001351007,0.0001103047,9,1
0.0002360674,0.0001253768,9,1
0.0003089969,0.0001346145,9,1
0.0003449753,0.0001363972,9,1
0.0003508097,0.0001318594,9,1
0.0003511338,0.0001265113,9,1
0.0003666921,0.0001229458,9,1
0.0004083429,0.000118408,9,1
0.0004832171,0.0001125736,9,1
0.0005950422,0.0001062531,9,1
0.0007363633,0.0001015532,9,1
0.0008937289,0.0001012291,9,1
0.001050932,0.0001078737,9,1
0.001184636,0.0001203528,9,1
0.0012681,0.0001338042,9,1
0.001280255,0.0001438522,9,1
0.001220129,0.0001500107,9,1
0.001104738,0.0001526038,9,1
0.0009525587,0.00015309,9,1
0.0007815796,0.0001516314,9,1
0.0006062248,0.0001511452,9,1
0.0004331389,0.0001508211,9,1
0.0002607014,0.0001459591,9,1
8.388807e-05,0.0001346145,9,1
-9.422172e-05,0.0001203528,9,1
-0.0002564491,0.0001107909,9,1
-0.0003830221,0.0001073875,9,1
-0.000454817,0.0001070634,9,1
-0.000459841,0.0001080358,9,1
-0.000402794,0.0001098185,9,1
-0.0002976137,0.0001119254,9,1
-0.0001686097,0.0001138702,9,1
-4.155049e-05,0.0001125736,9,1
5.779555e-05,0.0001120874,9,1
0.0001088461,0.0001140322,9,1
0.0001067393,0.0001205148,9,1
6.217132e-05,0.0001304008,9,1
-2.492749e-06,0.0001404489,9,1
-6.48879e-05,0.0001428799,9,1
-0.0001058904,0.0001326697,9,1
-0.0001211246,0.0001143563,9,1
-0.0001227452,9.847395e-05,9,1
-0.0001188556,8.858796e-05,9,1
-0.0001146419,8.194328e-05,9,1
-0.0001136696,7.319176e-05,9,1
-0.0001146419,6.427817e-05,9,1
-0.0001152902,5.552663e-05,9,1
-0.0001204763,4.758544e-05,9,1
-0.0001433275,3.769945e-05,9,1
-0.0001912988,2.586868e-05,9,1
-0.0002588801,1.468618e-05,9,1
-0.0003318095,1.883015e-06,9,1
-0.0003890185,-1.934754e-05,9,1
-0.0004108973,-4.608832e-05,9,1
-0.0003883702,-6.91016e-05,9,1
-0.0003339163,-8.482193e-05,9,1
-0.0002703867,-9.2439e-05,9,1
-0.0002118811,-9.405965e-05,9,1
-0.0001609926,-9.422172e-05,9,1
-0.000119666,-9.66527e-05,9,1
-9.017008e-05,-9.859748e-05,9,1
-7.201877e-05,-9.470791e-05,9,1
-6.91016e-05,-8.903562e-05,9,1
-8.773911e-05,-8.498399e-05,9,1
-0.0001256624,-8.368748e-05,9,1
-0.0001752544,-8.530812e-05,9,1
-0.0002267911,-8.952183e-05,9,1
-0.0002653627,-9.438378e-05,9,1
-0.0002796244,-0.0001005423,9,1
-0.0002663351,-0.0001054042,9,1
-0.0002308428,-0.0001062146,9,1
-0.0001830335,-0.0001024871,9,1
-0.0001376552,-9.66527e-05,9,1
-0.0001076731,-9.681477e-05,9,1
-9.632857e-05,-0.0001021629,9,1
-9.681477e-05,-0.0001105903,9,1
-9.746302e-05,-0.0001216107,9,1
-8.547019e-05,-0.000129714,9,1
-5.013995e-05,-0.0001302002,9,1
1.209313e-05,-0.0001233935,9,1
8.939829e-05,-0.0001136696,9,1
0.0001582761,-0.0001034594,9,1
0.0002018716,-9.276313e-05,9,1
0.0002145127,-7.833932e-05,9,1
0.000202682,-5.986387e-05,9,1
0.0001820997,-3.895745e-05,9,1
0.000168162,-1.805102e-05,9,1
0.000168,-2.330684e-06,9,1
0.0001795066,5.610517e-06,9,1
0.0001947408,8.041497e-06,9,1
0.0002086784,9.013889e-06,9,1
0.000217592,8.851824e-06,9,1
0.0002161334,1.193106e-05,9,1
0.000202682,2.116879e-05,9,1
0.00018291,3.283749e-05,9,1
0.0001615174,4.531652e-05,9,1
0.0001367214,5.698522e-05,9,1
0.0001081979,6.670914e-05,9,1
7.983644e-05,7.643307e-05,9,1
5.763349e-05,9.037068e-05,9,1
4.807163e-05,0.0001069013,9,1
5.390598e-05,0.000120839,9,1
7.416415e-05,0.0001263492,9,1
0.0001018773,0.0001271595,9,1
0.0001294284,0.0001257009,9,1
0.0001492004,0.0001245665,9,1
0.0001514693,0.0001257009,9,1
0.0001289422,0.0001292664,9,1
8.453633e-05,0.0001316974,9,1
3.591673e-05,0.0001313732,9,1
2.369211e-06,0.0001244044,9,1
-2.978945e-06,0.0001122495,9,1
1.954813e-05,0.0001023635,9,1
6.071273e-05,9.798775e-05,9,1
0.0001146805,9.604298e-05,9,1
0.0001752929,9.474644e-05,9,1
0.0002310434,9.020862e-05,9,1
0.0002652392,8.080883e-05,9,1
0.0002717218,6.78436e-05,9,1
0.0002547049,5.179914e-05,9,1
0.0002256952,3.13789e-05,9,1
0.0001970097,6.744974e-06,9,1
0.0001782101,-1.643037e-05,9,1
0.0001671896,-3.312309e-05,9,1
0.0001545486,-3.928157e-05,9,1
0.0001323456,-3.506788e-05,9,1
9.490851e-05,-2.291298e-05,9,1
4.385793e-05,-9.785688e-06,9,1
-1.237873e-05,7.485573e-07,9,1
-6.051213e-05,9.338019e-06,9,1
-9.697683e-05,2.084466e-05,9,1
-0.0001250141,3.526847e-05,9,1
-0.0001506204,4.904402e-05,9,1
-0.0001731475,5.649903e-05,9,1
-0.0001935677,5.260946e-05,9,1
-0.0002039399,3.753739e-05,9,1
-0.0002006986,1.565857e-05,9,1
-0.000189192,-6.058186e-06,9,1
-0.0001874093,-2.242678e-05,9,1
-0.0002120432,-3.166451e-05,9,1
-0.0002600145,-3.409549e-05,9,1
-0.0003131719,-3.117831e-05,9,1
-0.0003502849,-2.46957e-05,9,1
-0.000353202,-1.837515e-05,9,1
-0.0003149546,-1.027188e-05,9,1
-0.0002441321,5.86492e-07,9,1
-0.0001613168,1.257933e-05,9,1
-9.260107e-05,1.987227e-05,9,1
-5.727083e-05,1.792748e-05,9,1
-6.359137e-05,4.80019e-06,9,1
-0.0001008664,-1.529591e-05,9,1
-0.0001439758,-3.231277e-05,9,1
-0.0001661787,-3.960571e-05,9,1
-0.0001473791,-3.652646e-05,9,1
-7.671866e-05,-2.534396e-05,9,1
5.017848e-05,-1.124428e-05,9,1
0.0002263435,2.693341e-06,9,1
0.0004336251,1.371378e-05,9,1
0.0006357207,1.776542e-05,9,1
0.0007916276,1.64689e-05,9,1
0.0008760638,1.12828e-05,9,1
0.0008882187,3.017472e-06,9,1
0.0008462437,-5.57199e-06,9,1
0.000772828,-1.092015e-05,9,1
0.0006870955,-1.173047e-05,9,1
0.0006033076,-9.461558e-06,9,1
0.0005224369,-7.840905e-06,9,1
0.0004371906,-7.354709e-06,9,1
0.000341572,-8.165035e-06,9,1
0.0002368777,-8.002969e-06,9,1
0.0001295905,-7.030578e-06,9,1
3.024445e-05,-5.57199e-06,9,1
-5.629844e-05,-3.465141e-06,9,1
-0.0001274451,2.207145e-06,9,1
-0.0001835197,8.041497e-06,9,1
-0.0002277635,1.322759e-05,9,1
-0.0002574215,1.711715e-05,9,1
-0.0002697385,1.808955e-05,9,1
-0.0002652006,1.59827e-05,9,1
-0.0002426735,1.54965e-05,9,1
-0.000208964,2.230325e-05,9,1
-0.000179306,3.688912e-05,9,1
-0.0001713648,5.163707e-05,9,1
-0.000199078,5.925414e-05,9,1
-0.0002598524,5.974033e-05,9,1
-0.0003373197,6.022653e-05,9,1
-0.0004068457,6.476436e-05,9,1
-0.0004437966,7.189524e-05,9,1
-0.0004313175,7.789165e-05,9,1
-0.0003673017,7.999851e-05,9,1
-0.0002634179,7.691926e-05,9,1
-0.000137007,7.238143e-05,9,1
-1.286493e-05,7.011252e-05,9,1
8.712937e-05,7.173317e-05,9,1
0.0001406109,7.270556e-05,9,1
0.0001443384,6.978839e-05,9,1
0.000113546,6.751948e-05,9,1
7.20573e-05,6.557468e-05,9,1
3.656499e-05,6.41161e-05,9,1
1.565857e-05,6.200925e-05,9,1
6.744974e-06,6.298164e-05,9,1
4.80019e-06,6.930219e-05,9,1
3.341602e-06,8.04847e-05,9,1
-1.034161e-06,9.296373e-05,9,1
-6.706447e-06,0.0001017153,9,1
-1.270286e-05,0.000103498,9,1
-2.258885e-05,9.993253e-05,9,1
-3.928157e-05,9.458438e-05,9,1
-5.483985e-05,9.053275e-05,9,1
-5.192267e-05,8.534666e-05,9,1
-1.513384e-05,7.52986e-05,9,1
5.56887e-05,6.103686e-05,9,1
0.0001414213,4.920609e-05,9,1
0.0002065715,4.126489e-05,9,1
0.0002239125,3.672706e-05,9,1
0.0001850168,3.218923e-05,9,1
0.0001094944,2.538249e-05,9,1
2.959619e-05,1.727922e-05,9,1
-2.923353e-05,9.500085e-06,9,1
-6.035007e-05,4.244267e-07,9,1
-8.174268e-05,-1.545797e-05,9,1
-0.0001102662,-3.863332e-05,9,1
-0.0001549962,-6.667062e-05,9,1
-0.0002088019,-9.519411e-05,9,1
-0.0002601766,-0.0001224211,9,1
-0.0002979378,-0.0001455964,9,1
-0.0003193304,-0.0001596961,9,1
-0.0003190063,-0.0001648822,9,1
-0.0002912931,-0.0001708786,9,1
-0.0002394322,-0.0001789819,9,1
-0.0001778474,-0.0001869231,9,1
-0.0001295519,-0.0001883817,9,1
-0.0001149661,-0.0001796301,9,1
-0.0001396,-0.0001621271,9,1
-0.0001840059,-0.0001415448,9,1
-0.0002175534,-0.000119828,9,1
-0.000223874,-9.568031e-05,9,1
-0.0002021572,-6.39155e-05,9,1
-0.0001682856,-2.42095e-05,9,1
-0.0001374932,1.906194e-05,9,1
-0.0001191798,5.552663e-05,9,1
-0.0001114006,7.432621e-05,9,1
-0.0001054042,7.173317e-05,9,1
-9.373552e-05,5.730935e-05,9,1
-7.169464e-05,4.094075e-05,9,1
-3.766092e-05,2.943412e-05,9,1
1.396819e-06,2.473423e-05,9,1
3.543054e-05,2.505836e-05,9,1
5.406805e-05,2.797553e-05,9,1
5.974033e-05,3.267542e-05,9,1
6.897806e-05,3.850978e-05,9,1
0.0001004187,4.628891e-05,9,1
0.0001573037,5.714729e-05,9,1
0.0002268297,7.367795e-05,9,1
0.0002934386,9.31258e-05,9,1
0.0003480546,0.0001091703,9,1
0.0003919743,0.000115977,9,1
0.0004216323,0.0001117633,9,1
0.0004350837,0.0001013911,9,1
0.000435894,8.858796e-05,9,1
0.0004321665,8.113296e-05,9,1
0.0004321665,7.805372e-05,9,1
0.0004342734,7.708133e-05,9,1
0.0004300596,7.643307e-05,9,1
0.0004115842,7.691926e-05,9,1
0.0003747954,7.999851e-05,9,1
0.0003234207,8.437427e-05,9,1
0.0002689667,8.939829e-05,9,1
0.000225209,9.426025e-05,9,1
0.0001882582,0.0001004187,9,1
0.0001524417,0.0001104668,9,1
0.0001140322,0.0001232699,9,1
7.011252e-05,0.0001339663,9,1
2.441009e-05,0.0001380179,9,1
-1.934754e-05,0.0001346145,9,1
-5.69467e-05,0.000125863,9,1
-8.368748e-05,0.0001137081,9,1
-0.0001021629,0.0001020394,9,1
-0.0001170729,9.328786e-05,9,1
-0.0001318209,8.712937e-05,9,1
-0.000149486,8.388807e-05,9,1
-0.000171851,8.032264e-05,9,1
-0.0001961608,7.6271e-05,9,1
-0.0002220912,7.30297e-05,9,1
-0.0002457528,6.995045e-05,9,1
-0.0002622834,6.670914e-05,9,1
-0.0002695764,6.492643e-05,9,1
-0.0002695764,6.508849e-05,9,1
-0.0002655248,6.525056e-05,9,1
-0.0002617972,6.379197e-05,9,1
-0.0002572594,5.893001e-05,9,1
-0.0002467252,4.936815e-05,9,1
-0.0002272773,3.60788e-05,9,1
-0.0002011848,2.197911e-05,9,1
-0.0001815749,8.689758e-06,9,1
-0.0001781716,-1.196227e-06,9,1
-0.0001922712,-9.299493e-06,9,1
-0.000213988,-2.031993e-05,9,1
-0.0002185258,-3.360929e-05,9,1
-0.0001812508,-4.349527e-05,9,1
-9.940781e-05,-4.446767e-05,9,1
1.072688e-06,-3.733679e-05,9,1
8.648112e-05,-2.534396e-05,9,1
0.0001295905,-1.351319e-05,9,1
0.000125863,-8.813297e-06,9,1
9.004655e-05,-1.643037e-05,9,1
4.191315e-05,-3.441962e-05,9,1
-2.168618e-06,-5.565017e-05,9,1
-3.847125e-05,-7.396356e-05,9,1
-7.169464e-05,-8.628052e-05,9,1
-0.0001002181,-9.049421e-05,9,1
-0.0001178833,-8.579432e-05,9,1
-0.0001131834,-7.266703e-05,9,1
-8.384954e-05,-5.727083e-05,9,1
-3.798505e-05,-4.43056e-05,9,1
1.1769e-05,-3.150244e-05,9,1
5.179914e-05,-1.837515e-05,9,1
7.384002e-05,-7.192643e-06,9,1
7.789165e-05,-4.275467e-06,9,1
6.897806e-05,-9.785688e-06,9,1
5.714729e-05,-1.918548e-05,9,1
5.698522e-05,-3.377136e-05,9,1
7.108491e-05,-5.467778e-05,9,1
9.16672e-05,-8.125649e-05,9,1
0.0001120874,-0.0001092938,9,1
0.000128456,-0.0001363587,9,1
0.000145635,-0.0001590478,9,1
0.0001647587,-0.0001759026,9,1
0.0001796687,-0.0001883817,9,1
0.0001756171,-0.0001981056,9,1
0.0001393144,-0.0002021572,9,1
7.238143e-05,-0.0001997262,9,1
-1.140634e-05,-0.0001896782,9,1
-9.081835e-05,-0.0001721751,9,1
-0.0001439758,-0.000144624,9,1
-0.0001535376,-0.0001086455,9,1
-0.0001089697,-6.650855e-05,9,1
-1.043395e-05,-1.983374e-05,9,1
0.000128456,2.457216e-05,9,1
0.0002809595,6.168512e-05,9,1
0.0004075326,8.74535e-05,9,1
0.0004815964,0.0001015532,9,1
0.0004956961,0.0001025256,9,1
0.0004558281,9.393612e-05,9,1
0.0003744712,7.951231e-05,9,1
0.0002723701,6.41161e-05,9,1
0.0001801549,5.390598e-05,9,1
0.000123432,5.374392e-05,9,1
0.0001098185,6.071273e-05,9,1
0.0001279698,7.30297e-05,9,1
0.0001663793,8.875003e-05,9,1
0.0002117576,0.0001018773,9,1
0.0002551911,0.000110953,9,1
0.0002901973,0.000115977,9,1
0.0003067279,0.000118408,9,1
