EMG1,EMG2,class,user
0.0009055596,-3.858999e-07,9,1
0.0008838429,-9.461558e-06,9,1
0.0007857933,-2.485776e-05,9,1
0.0006263209,-4.300908e-05,9,1
0.0004339493,-5.791909e-05,9,1
0.0002359054,-6.958779e-05,9,1
5.260946e-05,-7.412562e-05,9,1
-9.908367e-05,-6.893953e-05,9,1
-0.0002122053,-5.581224e-05,9,1
-0.0002854588,-3.604027e-05,9,1
-0.0003206269,-1.25408e-05,9,1
-0.0003203028,7.555301e-06,9,1
-0.0002838381,2.100672e-05,9,1
-0.0002113949,3.073064e-05,9,1
-0.0001039456,4.158902e-05,9,1
2.846173e-05,5.309566e-05,9,1
0.0001658931,6.087479e-05,9,1
0.000289387,6.233338e-05,9,1
0.0003906778,6.103686e-05,9,1
0.0004692795,5.844381e-05,9,1
0.0005224369,5.277153e-05,9,1
0.0005441537,4.758544e-05,9,1
0.000520168,4.839576e-05,9,1
0.0004399457,5.666109e-05,9,1
0.0003159656,6.768154e-05,9,1
0.0001673517,7.546067e-05,9,1
1.711715e-05,8.372601e-05,9,1
-0.0001161005,9.377406e-05,9,1
-0.0002248464,0.0001033359,9,1
-0.0003092824,0.0001106288,9,1
-0.0003687603,0.0001143563,9,1
-0.0004057112,0.0001141943,9,1
-0.0004237005,0.0001116012,9,1
-0.0004308313,0.0001072255,9,1
-0.0004352071,9.912221e-05,9,1
-0.0004415277,8.631905e-05,9,1
-0.0004452552,7.221937e-05,9,1
-0.0004365036,6.152305e-05,9,1
-0.0004113835,5.601284e-05,9,1
-0.0003791325,5.666109e-05,9,1
-0.0003593606,5.957827e-05,9,1
-0.0003619536,6.217132e-05,9,1
-0.0003789705,6.103686e-05,9,1
-0.0003912874,5.730935e-05,9,1
-0.0003848048,5.666109e-05,9,1
-0.0003591985,6.184718e-05,9,1
-0.0003292164,6.638502e-05,9,1
-0.0003136581,6.46023e-05,9,1
-0.0003215994,5.406805e-05,9,1
-0.0003510952,3.397195e-05,9,1
-0.000395339,1.193106e-05,9,1
-0.0004442827,-1.844488e-06,9,1
-0.00048723,-4.599598e-06,9,1
-0.0005151053,1.002961e-07,9,1
-0.0005206155,1.031041e-05,9,1
-0.0005073262,2.01964e-05,9,1
-0.000484475,2.635488e-05,9,1
-0.0004531963,2.684107e-05,9,1
-0.0004089525,2.230325e-05,9,1
-0.0003470436,1.22552e-05,9,1
-0.000268604,-2.330684e-06,9,1
-0.0001734716,-1.578211e-05,9,1
-6.375344e-05,-2.339918e-05,9,1
4.936815e-05,-2.372331e-05,9,1
0.0001479039,-1.724069e-05,9,1
0.0002135403,-6.706447e-06,9,1
0.0002362295,4.151929e-06,9,1
0.0002213195,1.484824e-05,9,1
0.0001897167,2.181705e-05,9,1
0.0001621656,2.522042e-05,9,1
0.0001472556,2.748934e-05,9,1
0.0001422316,3.13789e-05,9,1
0.0001376938,3.672706e-05,9,1
0.0001300767,4.207521e-05,9,1
0.0001154908,4.564065e-05,9,1
9.426025e-05,4.369587e-05,9,1
7.384002e-05,3.591673e-05,9,1
6.249545e-05,2.246531e-05,9,1
6.444023e-05,4.313994e-06,9,1
7.481241e-05,-1.772689e-05,9,1
8.615699e-05,-4.025397e-05,9,1
9.798775e-05,-5.921561e-05,9,1
0.0001151667,-7.137051e-05,9,1
0.0001389903,-7.509801e-05,9,1
0.000162976,-7.023606e-05,9,1
0.0001782101,-6.342931e-05,9,1
0.0001864754,-5.824322e-05,9,1
0.0001996027,-5.127441e-05,9,1
0.0002211574,-3.879538e-05,9,1
0.0002401191,-2.0482e-05,9,1
0.0002436845,-2.006553e-06,9,1
0.0002247229,1.274139e-05,9,1
0.0001910133,2.214118e-05,9,1
0.0001527658,2.651694e-05,9,1
0.0001171115,2.943412e-05,9,1
8.696731e-05,3.283749e-05,9,1
6.265751e-05,3.478228e-05,9,1
4.418206e-05,3.462021e-05,9,1
3.429608e-05,3.332369e-05,9,1
4.337174e-05,3.494434e-05,9,1
7.853991e-05,4.483033e-05,9,1
0.0001336421,6.330578e-05,9,1
0.0001919856,8.518459e-05,9,1
0.0002355812,0.0001041462,9,1
0.000257298,0.000113384,9,1
0.0002589186,0.0001138702,9,1
0.0002407673,0.0001106288,9,1
0.0002034923,0.0001099806,9,1
0.0001577899,0.0001103047,9,1
0.000115977,0.0001103047,9,1
8.907416e-05,0.0001073875,9,1
8.502253e-05,9.831188e-05,9,1
0.0001137081,8.631905e-05,9,1
0.0001777239,7.027458e-05,9,1
0.0002628082,5.212327e-05,9,1
0.000341734,3.769945e-05,9,1
0.0003877606,3.316162e-05,9,1
0.0003854917,3.769945e-05,9,1
0.0003410858,4.547859e-05,9,1
0.0002717218,4.985435e-05,9,1
0.0001934442,4.499239e-05,9,1
0.0001198666,3.316162e-05,9,1
5.423012e-05,2.408596e-05,9,1
-3.627206e-06,1.9224e-05,9,1
-5.743289e-05,1.59827e-05,9,1
-0.0001162626,1.1769e-05,9,1
-0.0001765509,7.23117e-06,9,1
-0.0002318152,2.207145e-06,9,1
-0.0002702246,-1.034161e-06,9,1
-0.0002880518,-2.654814e-06,9,1
-0.0002780038,-3.14101e-06,9,1
-0.0002433218,-1.844488e-06,9,1
-0.0001840059,1.234753e-06,9,1
-9.875954e-05,4.151929e-06,9,1
1.193106e-05,3.503668e-06,9,1
0.0001336421,-1.358292e-06,9,1
0.0002456293,-1.237873e-05,9,1
0.000319207,-2.242678e-05,9,1
0.0003302274,-2.46957e-05,9,1
0.0002696149,-2.0482e-05,9,1
0.000153252,-1.610624e-05,9,1
1.841368e-05,-1.432352e-05,9,1
-9.130454e-05,-1.173047e-05,9,1
-0.0001415448,-5.57199e-06,9,1
-0.0001276072,1.072688e-06,9,1
-7.866345e-05,5.934648e-06,9,1
-3.393342e-05,6.744974e-06,9,1
-2.064406e-05,1.883015e-06,9,1
-4.38194e-05,-8.651231e-06,9,1
-9.324933e-05,-2.339918e-05,9,1
-0.0001481895,-4.009191e-05,9,1
-0.0001801163,-5.64605e-05,9,1
-0.0001632615,-6.958779e-05,9,1
-8.773911e-05,-7.688073e-05,9,1
3.688912e-05,-7.866345e-05,9,1
0.0001806411,-7.55842e-05,9,1
0.0003132105,-6.780507e-05,9,1
0.0004243874,-5.759496e-05,9,1
0.0005221128,-4.657452e-05,9,1
0.0006076833,-3.344723e-05,9,1
0.0006676476,-1.934754e-05,9,1
0.0006835299,-6.544382e-06,9,1
0.0006441481,3.503668e-06,9,1
0.0005564707,5.610517e-06,9,1
0.0004436732,-1.196227e-06,9,1
0.0003401134,-1.383732e-05,9,1
0.0002660495,-2.388537e-05,9,1
0.0002242366,-2.46957e-05,9,1
0.0002005751,-1.902341e-05,9,1
0.0001791825,-1.092015e-05,9,1
0.0001470936,-3.303076e-06,9,1
0.0001012291,3.989864e-06,9,1
4.871989e-05,1.014835e-05,9,1
-5.734056e-06,1.711715e-05,9,1
-5.905355e-05,2.635488e-05,9,1
-0.0001032974,3.640293e-05,9,1
-0.0001352242,4.547859e-05,9,1
-0.0001624512,4.839576e-05,9,1
-0.0001937298,4.272347e-05,9,1
-0.0002337599,3.121684e-05,9,1
-0.0002754107,2.068259e-05,9,1
-0.0002989102,1.403791e-05,9,1
-0.0002934,1.403791e-05,9,1
-0.0002590421,2.34377e-05,9,1
-0.0002060468,3.834771e-05,9,1
-0.000151917,4.77475e-05,9,1
-0.0001242038,4.223728e-05,9,1
-0.0001353863,2.311357e-05,9,1
-0.0001823853,-2.492749e-06,9,1
-0.0002447804,-2.210265e-05,9,1
-0.0002955068,-2.858527e-05,9,1
-0.0003100927,-2.485776e-05,9,1
-0.0002765452,-1.67545e-05,9,1
-0.0002019951,-5.57199e-06,9,1
-0.0001133454,7.717366e-06,9,1
-3.992984e-05,2.100672e-05,9,1
-3.627206e-06,3.510641e-05,9,1
-7.678839e-06,4.645098e-05,9,1
-3.944364e-05,5.098881e-05,9,1
-7.931171e-05,5.293359e-05,9,1
-0.0001115627,5.212327e-05,9,1
-0.0001310105,4.936815e-05,9,1
-0.0001441378,4.272347e-05,9,1
-0.000156941,3.170304e-05,9,1
-0.0001677994,1.679302e-05,9,1
-0.0001763888,4.962256e-06,9,1
-0.0001848162,7.485573e-07,9,1
-0.0001968091,1.558884e-06,9,1
-0.0002196603,1.883015e-06,9,1
-0.0002566112,-3.465141e-06,9,1
-0.0003013411,-1.124428e-05,9,1
-0.0003483401,-1.691656e-05,9,1
-0.0003919357,-1.805102e-05,9,1
-0.0004329382,-1.529591e-05,9,1
-0.0004694029,-9.947754e-06,9,1
-0.0004937127,-5.247859e-06,9,1
-0.0004990608,-6.220252e-06,9,1
-0.0004762096,-9.623623e-06,9,1
-0.0004228902,-7.030578e-06,9,1
-0.0003485022,6.258778e-06,9,1
-0.0002690902,2.651694e-05,9,1
-0.0001968091,4.402e-05,9,1
-0.0001426792,5.131294e-05,9,1
-0.0001193418,4.645098e-05,9,1
-0.0001253383,3.283749e-05,9,1
-0.000149486,1.760335e-05,9,1
-0.0001716889,6.744974e-06,9,1
-0.0001741199,4.244267e-07,9,1
-0.0001457585,-7.100305e-07,9,1
-8.757704e-05,5.124321e-06,9,1
-6.220252e-06,2.035846e-05,9,1
8.113296e-05,3.802358e-05,9,1
0.0001584381,5.212327e-05,9,1
0.0002213195,5.94162e-05,9,1
0.000274801,6.265751e-05,9,1
0.0003287688,6.362991e-05,9,1
0.0003898674,6.525056e-05,9,1
0.0004517764,6.508849e-05,9,1
0.000505258,6.281957e-05,9,1
0.0005470709,5.682316e-05,9,1
0.000577215,5.017848e-05,9,1
0.0006008766,4.466826e-05,9,1
0.0006237278,3.802358e-05,9,1
0.0006462549,2.927205e-05,9,1
0.0006671614,1.987227e-05,9,1
0.0006838542,1.419998e-05,9,1
0.000688554,1.468618e-05,9,1
0.0006718613,1.711715e-05,9,1
0.000626807,1.695509e-05,9,1
0.0005490156,1.484824e-05,9,1
0.0004449697,1.209313e-05,9,1
0.0003336308,1.063454e-05,9,1
0.0002320158,9.824215e-06,9,1
0.0001469315,6.096713e-06,9,1
8.080883e-05,3.179537e-06,9,1
3.543054e-05,4.313994e-06,9,1
5.124321e-06,1.079661e-05,9,1
-1.950961e-05,2.068259e-05,9,1
-4.965376e-05,3.202716e-05,9,1
-9.098041e-05,4.207521e-05,9,1
-0.0001358725,4.77475e-05,9,1
-0.0001697442,5.098881e-05,9,1
-0.0001857886,5.649903e-05,9,1
-0.0001887058,6.606088e-05,9,1
-0.0001877334,7.983644e-05,9,1
-0.0001883817,9.507057e-05,9,1
-0.0001878955,0.0001073875,9,1
-0.0001750923,0.0001114392,9,1
-0.0001449482,0.0001081979,9,1
-0.0001031353,0.0001023635,9,1
-5.856735e-05,0.0001002567,9,1
-2.566809e-05,9.896015e-05,9,1
-1.221667e-05,9.63671e-05,9,1
-1.383732e-05,9.361199e-05,9,1
-2.080613e-05,9.296373e-05,9,1
-2.485776e-05,9.701536e-05,9,1
-3.069211e-05,0.0001064152,9,1
-4.138842e-05,0.0001169494,9,1
-5.905355e-05,0.000121001,9,1
-8.206682e-05,0.0001132219,9,1
-0.0001041077,9.652917e-05,9,1
-0.000119828,7.805372e-05,9,1
-0.0001259865,6.427817e-05,9,1
-0.0001245279,5.94162e-05,9,1
-0.0001230693,5.974033e-05,9,1
-0.000129714,6.103686e-05,9,1
-0.0001462447,5.893001e-05,9,1
-0.0001707166,5.309566e-05,9,1
-0.0001982676,4.612685e-05,9,1
-0.000221605,4.077869e-05,9,1
-0.0002360289,3.802358e-05,9,1
-0.0002407288,3.656499e-05,9,1
-0.0002408908,3.462021e-05,9,1
-0.0002408908,3.008238e-05,9,1
-0.0002431597,2.246531e-05,9,1
-0.0002481838,1.209313e-05,9,1
-0.000253694,7.485573e-07,9,1
-0.0002592042,-1.059602e-05,9,1
-0.0002622834,-2.0482e-05,9,1
-0.0002564491,-2.777494e-05,9,1
-0.0002395943,-3.198864e-05,9,1
-0.0002146363,-3.296103e-05,9,1
-0.0001848162,-3.166451e-05,9,1
-0.0001515928,-3.053005e-05,9,1
-0.0001146419,-3.020592e-05,9,1
-7.23429e-05,-2.583016e-05,9,1
-3.231277e-05,-1.950961e-05,9,1
-6.176923e-08,-1.62683e-05,9,1
2.457216e-05,-1.643037e-05,9,1
4.256141e-05,-1.772689e-05,9,1
6.022653e-05,-2.015787e-05,9,1
8.145709e-05,-2.501983e-05,9,1
0.0001047945,-3.522994e-05,9,1
0.0001278078,-4.446767e-05,9,1
0.0001475797,-4.625038e-05,9,1
0.0001576278,-4.041603e-05,9,1
0.0001539003,-3.474375e-05,9,1
0.0001368834,-3.539201e-05,9,1
0.0001049566,-4.187462e-05,9,1
6.492643e-05,-4.770897e-05,9,1
2.376183e-05,-4.625038e-05,9,1
-9.299493e-06,-4.090223e-05,9,1
-3.150244e-05,-3.668853e-05,9,1
-4.317115e-05,-3.63644e-05,9,1
-5.159854e-05,-4.349527e-05,9,1
-6.683268e-05,-5.775702e-05,9,1
-8.757704e-05,-7.315322e-05,9,1
-9.908367e-05,-8.174268e-05,9,1
-8.012204e-05,-7.898758e-05,9,1
-1.886135e-05,-6.504996e-05,9,1
6.670914e-05,-4.268495e-05,9,1
0.0001420695,-1.983374e-05,9,1
0.0001812893,2.369211e-06,9,1
0.0001775618,2.181705e-05,9,1
0.0001409351,3.883391e-05,9,1
9.004655e-05,5.585077e-05,9,1
4.369587e-05,7.740546e-05,9,1
1.565857e-05,0.0001026876,9,1
1.1769e-05,0.0001252147,9,1
2.538249e-05,0.0001398006,9,1
5.179914e-05,0.0001417454,9,1
0.0001030118,0.0001325077,9,1
0.000195227,0.0001171115,9,1
0.0003269861,9.977047e-05,9,1
0.0004788414,7.983644e-05,9,1
0.0006214589,5.844381e-05,9,1
0.0007308531,4.061663e-05,9,1
0.0007867657,3.008238e-05,9,1
0.0007755831,2.489629e-05,9,1
0.0007041123,2.489629e-05,9,1
0.000601849,2.829966e-05,9,1
0.0005025029,3.121684e-05,9,1
0.0004255218,3.105477e-05,9,1
0.0003725265,2.635488e-05,9,1
0.000341572,1.533444e-05,9,1
0.0003295791,3.017472e-06,9,1
0.0003360618,-6.220252e-06,9,1
0.0003589129,-9.461558e-06,9,1
0.0003926226,-7.516774e-06,9,1
0.0004229288,-3.789272e-06,9,1
0.0004367043,-6.176923e-08,9,1
0.0004307079,4.80019e-06,9,1
0.0004062361,1.193106e-05,9,1
0.0003629646,1.711715e-05,9,1
0.0002910076,1.744129e-05,9,1
0.0001897167,1.59827e-05,9,1
7.286763e-05,1.387585e-05,9,1
-3.166451e-05,7.879432e-06,9,1
-9.551824e-05,-2.168618e-06,9,1
-0.0001092938,-1.189254e-05,9,1
-9.422172e-05,-1.950961e-05,9,1
-8.012204e-05,-2.291298e-05,9,1
-8.660465e-05,-2.113026e-05,9,1
-0.0001157764,-1.562004e-05,9,1
-0.0001587237,-1.092015e-05,9,1
-0.0002044261,-9.623623e-06,9,1
-0.0002483458,-1.416145e-05,9,1
-0.000290969,-2.323711e-05,9,1
-0.0003313232,-3.814712e-05,9,1
-0.0003650328,-5.516398e-05,9,1
-0.0003896668,-7.137051e-05,9,1
-0.0004068457,-8.465986e-05,9,1
-0.000407656,-9.470791e-05,9,1
-0.0003888564,-0.0001041077,9,1
-0.0003559572,-0.0001107524,9,1
-0.0003233821,-0.0001092938,9,1
-0.0003070135,-0.0001003802,9,1
-0.0003102548,-9.017008e-05,9,1
-0.0003284061,-8.174268e-05,9,1
-0.00035304,-7.817725e-05,9,1
-0.0003723258,-7.60704e-05,9,1
-0.0003805911,-7.266703e-05,9,1
-0.0003792946,-6.634648e-05,9,1
-0.0003716775,-5.905355e-05,9,1
-0.0003591985,-5.046408e-05,9,1
-0.0003410472,-4.009191e-05,9,1
-0.0003120375,-3.053005e-05,9,1
-0.0002747625,-2.194059e-05,9,1
-0.0002345703,-1.659243e-05,9,1
-0.0001984297,-1.62683e-05,9,1
-0.0001708786,-2.194059e-05,9,1
-0.0001533756,-3.069211e-05,9,1
-0.0001472171,-3.847125e-05,9,1
-0.0001485136,-4.414354e-05,9,1
-0.0001528894,-4.722278e-05,9,1
-0.0001577513,-4.608832e-05,9,1
-0.0001609926,-4.203669e-05,9,1
-0.0001652063,-3.490581e-05,9,1
-0.0001720131,-2.712668e-05,9,1
-0.0001810887,-1.934754e-05,9,1
-0.0001861127,-1.724069e-05,9,1
-0.0001791439,-2.226472e-05,9,1
-0.00015451,-2.988179e-05,9,1
-0.0001136696,-3.749886e-05,9,1
-7.056019e-05,-4.138842e-05,9,1
-4.495386e-05,-3.895745e-05,9,1
-5.32192e-05,-2.84232e-05,9,1
-9.730096e-05,-9.623623e-06,9,1
-0.0001624512,1.322759e-05,9,1
-0.0002308428,3.364782e-05,9,1
-0.0002914552,4.807163e-05,9,1
-0.0003369955,5.666109e-05,9,1
-0.0003613053,6.03886e-05,9,1
-0.0003493125,6.46023e-05,9,1
-0.0002911311,6.978839e-05,9,1
-0.0001976194,7.935024e-05,9,1
-0.0001075111,9.474644e-05,9,1
-6.148453e-05,0.0001154908,9,1
-7.526008e-05,0.000143204,9,1
-0.0001261486,0.0001744826,9,1
-0.0001778474,0.0002008992,9,1
-0.0001947022,0.0002128921,9,1
-0.0001528894,0.0002059233,9,1
-4.592625e-05,0.0001869616,9,1
0.0001132219,0.000165569,9,1
0.0002948972,0.0001487142,9,1
0.0004645796,0.0001401247,9,1
0.0006033076,0.0001402868,9,1
0.0007080019,0.0001477418,9,1
0.0007890346,0.0001564933,9,1
0.0008540229,0.0001602208,9,1
0.0009118802,0.0001547106,9,1
0.000975572,0.0001422316,9,1
0.001042019,0.0001310491,9,1
0.001095014,0.000128294,9,1
0.001109276,0.0001315353,9,1
0.001067949,0.0001354248,9,1
0.0009770306,0.0001349386,9,1
0.0008571021,0.0001247285,9,1
0.0007246946,0.0001056048,9,1
0.0005840218,8.259155e-05,9,1
0.0004352458,6.589881e-05,9,1
0.0002861456,6.087479e-05,9,1
0.0001514693,6.476436e-05,9,1
4.612685e-05,7.254349e-05,9,1
-1.967167e-05,7.935024e-05,9,1
-4.106429e-05,8.405014e-05,9,1
-2.145439e-05,8.340187e-05,9,1
2.327564e-05,7.481241e-05,9,1
6.103686e-05,5.909208e-05,9,1
6.816773e-05,4.272347e-05,9,1
3.591673e-05,3.008238e-05,9,1
-3.117831e-05,1.468618e-05,9,1
-0.000117235,-7.516774e-06,9,1
-0.0002003745,-3.231277e-05,9,1
-0.0002558008,-5.2733e-05,9,1
-0.0002708729,-5.727083e-05,9,1
-0.0002548284,-4.608832e-05,9,1
-0.0002342462,-2.761287e-05,9,1
-0.0002305186,-1.3027e-05,9,1
-0.0002489941,-5.89612e-06,9,1
-0.0002825416,-8.002969e-06,9,1
-0.0003185201,-1.529591e-05,9,1
-0.0003540124,-2.145439e-05,9,1
-0.0003875599,-2.372331e-05,9,1
-0.0004196489,-2.534396e-05,9,1
-0.0004518998,-3.134038e-05,9,1
-0.0004841508,-4.398147e-05,9,1
-0.0005102433,-5.808115e-05,9,1
-0.0005196431,-7.088431e-05,9,1
-0.0005029504,-7.817725e-05,9,1
-0.0004536825,-7.704279e-05,9,1
-0.000367788,-6.748094e-05,9,1
-0.0002449425,-5.305713e-05,9,1
-9.422172e-05,-3.733679e-05,9,1
6.200925e-05,-2.177852e-05,9,1
0.0001898788,-1.189254e-05,9,1
0.0002587566,-9.299493e-06,9,1
0.0002587566,-1.318906e-05,9,1
0.0002085163,-2.09682e-05,9,1
0.0001393144,-2.599222e-05,9,1
7.951231e-05,-2.388537e-05,9,1
4.304761e-05,-1.010982e-05,9,1
3.073064e-05,1.160693e-05,9,1
3.510641e-05,3.154097e-05,9,1
4.969229e-05,4.483033e-05,9,1
6.071273e-05,4.953022e-05,9,1
5.682316e-05,4.612685e-05,9,1
4.272347e-05,3.575467e-05,9,1
4.142696e-05,1.987227e-05,9,1
7.400208e-05,5.448452e-06,9,1
0.0001513072,9.106227e-07,9,1
0.0002705873,1.014835e-05,9,1
0.0004143393,3.202716e-05,9,1
0.0005457744,5.876794e-05,9,1
0.0006247002,8.113296e-05,9,1
0.0006264829,9.458438e-05,9,1
0.0005561466,9.733949e-05,9,1
0.0004376768,9.21534e-05,9,1
0.0003021901,8.405014e-05,9,1
0.000168162,7.594687e-05,9,1
4.531652e-05,7.043665e-05,9,1
-6.261898e-05,6.735741e-05,9,1
-0.0001535376,6.654708e-05,9,1
-0.0002209568,6.508849e-05,9,1
-0.0002624455,6.525056e-05,9,1
-0.0002836761,6.800567e-05,9,1
-0.0002985861,7.059871e-05,9,1
-0.0003100927,6.897806e-05,9,1
-0.000313334,5.974033e-05,9,1
-0.0003065273,4.45062e-05,9,1
-0.0002992343,2.619281e-05,9,1
-0.0003016653,7.717366e-06,9,1
-0.00032322,-6.868513e-06,9,1
-0.0003585502,-1.562004e-05,9,1
-0.0004016596,-1.869928e-05,9,1
-0.0004446069,-1.934754e-05,9,1
-0.0004784786,-1.886135e-05,9,1
-0.0004951713,-1.67545e-05,9,1
-0.0004946851,-1.237873e-05,9,1
-0.0004805854,-7.516774e-06,9,1
-0.0004535205,-5.57199e-06,9,1
-0.0004110594,-4.275467e-06,9,1
-0.0003483401,-1.844488e-06,9,1
-0.0002690902,3.017472e-06,9,1
-0.0001788198,7.393236e-06,9,1
-8.206682e-05,9.66215e-06,9,1
1.938607e-05,1.241726e-05,9,1
0.000128294,1.663096e-05,9,1
0.0002443328,1.873781e-05,9,1
0.0003553475,1.873781e-05,9,1
0.0004399457,1.808955e-05,9,1
0.0004822447,1.987227e-05,9,1
0.0004811103,2.327564e-05,9,1
0.0004448076,2.165498e-05,9,1
0.0003841952,1.12828e-05,9,1
0.0003064038,-6.544382e-06,9,1
0.0002169437,-2.453363e-05,9,1
0.0001239182,-3.782299e-05,9,1
3.93201e-05,-4.38194e-05,9,1
-1.562004e-05,-4.236082e-05,9,1
-3.360929e-05,-3.474375e-05,9,1
-2.696461e-05,-2.534396e-05,9,1
-2.518189e-05,-1.756482e-05,9,1
-4.689865e-05,-1.318906e-05,9,1
-9.924574e-05,-1.124428e-05,9,1
-0.0001687718,-1.010982e-05,9,1
-0.0002253326,-9.947754e-06,9,1
-0.0002496423,-1.351319e-05,9,1
-0.0002455907,-1.837515e-05,9,1
-0.0002282497,-1.869928e-05,9,1
-0.0002078295,-1.416145e-05,9,1
-0.0001890299,-8.327101e-06,9,1
-0.0001695821,-7.192643e-06,9,1
-0.0001455964,-1.25408e-05,9,1
-0.0001141558,-2.015787e-05,9,1
-7.639453e-05,-2.631635e-05,9,1
-3.814712e-05,-2.7937e-05,9,1
-5.409925e-06,-2.275091e-05,9,1
3.55926e-05,-1.20546e-05,9,1
0.0001007429,-1.196227e-06,9,1
0.0001991165,5.124321e-06,9,1
0.0003208276,4.313994e-06,9,1
0.0004373526,-1.196227e-06,9,1
0.0005136854,-4.761664e-06,9,1
0.0005235714,-4.599598e-06,9,1
0.0004665244,1.558884e-06,9,1
0.0003649094,1.031041e-05,9,1
0.0002521119,1.744129e-05,9,1
0.0001586002,2.457216e-05,9,1
9.798775e-05,3.024445e-05,9,1
6.670914e-05,3.494434e-05,9,1
5.455425e-05,3.802358e-05,9,1
5.957827e-05,3.737532e-05,9,1
8.04847e-05,3.380988e-05,9,1
0.0001106288,3.235129e-05,9,1
0.0001363972,3.753739e-05,9,1
0.0001430419,4.871989e-05,9,1
0.0001281319,6.087479e-05,9,1
9.555677e-05,7.254349e-05,9,1
5.1475e-05,8.04847e-05,9,1
3.341602e-06,8.567078e-05,9,1
-3.911951e-05,8.891209e-05,9,1
-7.18567e-05,9.085688e-05,9,1
-9.454585e-05,9.101894e-05,9,1
-0.0001107524,9.231547e-05,9,1
-0.0001243659,9.490851e-05,9,1
-0.0001290658,0.000101067,9,1
-0.0001144799,0.0001067393,9,1
-7.315322e-05,0.0001057669,9,1
-6.868513e-06,9.750156e-05,9,1
6.573675e-05,8.680524e-05,9,1
0.0001211631,7.772959e-05,9,1
0.0001423936,7.30297e-05,9,1
0.0001261871,7.108491e-05,9,1
8.729144e-05,6.735741e-05,9,1
4.969229e-05,6.103686e-05,9,1
2.878586e-05,5.244739e-05,9,1
2.39239e-05,4.191315e-05,9,1
2.230325e-05,3.429608e-05,9,1
1.095867e-05,2.992031e-05,9,1
-1.335113e-05,2.586868e-05,9,1
-4.495386e-05,1.906194e-05,9,1
-7.153257e-05,9.500085e-06,9,1
-8.239095e-05,-1.520357e-06,9,1
-7.18567e-05,-1.464765e-05,9,1
-4.268495e-05,-2.712668e-05,9,1
-6.382317e-06,-3.782299e-05,9,1
2.554455e-05,-4.349527e-05,9,1
4.790957e-05,-4.38194e-05,9,1
6.492643e-05,-4.187462e-05,9,1
8.583286e-05,-4.106429e-05,9,1
0.000115977,-4.252288e-05,9,1
0.0001485521,-4.284701e-05,9,1
0.0001744826,-3.895745e-05,9,1
0.0001840444,-3.166451e-05,9,1
0.000175455,-2.647842e-05,9,1
0.0001542244,-2.923353e-05,9,1
0.0001244044,-3.830919e-05,9,1
8.648112e-05,-4.738484e-05,9,1
3.60788e-05,-5.078821e-05,9,1
-3.117831e-05,-4.738484e-05,9,1
-0.0001091317,-4.268495e-05,9,1
-0.0001806025,-4.090223e-05,9,1
-0.0002199844,-4.462973e-05,9,1
-0.0002152845,-5.419158e-05,9,1
-0.0001655305,-6.342931e-05,9,1
-8.239095e-05,-6.926366e-05,9,1
8.851824e-06,-6.877746e-05,9,1
8.259155e-05,-6.342931e-05,9,1
0.0001297526,-5.824322e-05,9,1
0.0001597346,-5.872941e-05,9,1
0.0001910133,-6.164659e-05,9,1
0.0002263435,-6.229485e-05,9,1
0.0002441707,-5.872941e-05,9,1
0.0002171058,-5.338126e-05,9,1
0.0001480659,-4.770897e-05,9,1
6.03886e-05,-4.608832e-05,9,1
-1.99958e-05,-4.932962e-05,9,1
-7.833932e-05,-5.483985e-05,9,1
-0.0001042698,-5.889148e-05,9,1
-9.470791e-05,-5.59743e-05,9,1
-5.824322e-05,-4.349527e-05,9,1
-1.3027e-05,-2.664048e-05,9,1
1.760335e-05,-9.623623e-06,9,1
2.570662e-05,1.047248e-05,9,1
1.825161e-05,3.18651e-05,9,1
1.12828e-05,4.936815e-05,9,1
1.59827e-05,5.957827e-05,9,1
3.60788e-05,6.136099e-05,9,1
6.83298e-05,5.957827e-05,9,1
0.0001043083,5.714729e-05,9,1
0.0001316974,5.714729e-05,9,1
0.0001389903,6.03886e-05,9,1
0.0001221355,6.427817e-05,9,1
8.372601e-05,6.427817e-05,9,1
2.927205e-05,6.379197e-05,9,1
-3.344723e-05,6.346784e-05,9,1
-9.616651e-05,6.41161e-05,9,1
-0.0001514308,6.476436e-05,9,1
-0.0001822232,6.654708e-05,9,1
-0.0001731475,6.897806e-05,9,1
-0.0001217728,7.043665e-05,9,1
-4.689865e-05,7.043665e-05,9,1
1.808955e-05,7.043665e-05,9,1
4.77475e-05,7.513654e-05,9,1
3.575467e-05,8.550872e-05,9,1
-8.489166e-06,9.831188e-05,9,1
-6.958779e-05,0.0001073875,9,1
-0.0001310105,0.0001091703,9,1
-0.0001818991,0.0001018773,9,1
-0.0002194982,8.74535e-05,9,1
-0.0002472114,7.124698e-05,9,1
-0.0002737901,5.487838e-05,9,1
-0.0003027998,4.077869e-05,9,1
-0.0003275957,2.700314e-05,9,1
-0.0003392644,1.468618e-05,9,1
-0.0003274337,7.069105e-06,9,1
-0.0002809209,2.855407e-06,9,1
-0.0001888679,1.883015e-06,9,1
-5.111234e-05,3.017472e-06,9,1
0.000121001,7.069105e-06,9,1
0.000304297,1.095867e-05,9,1
0.000463121,1.452411e-05,9,1
0.0005584154,1.630683e-05,9,1
0.000567167,1.663096e-05,9,1
0.0004999099,1.889987e-05,9,1
0.0003948915,2.829966e-05,9,1
0.0002976523,4.466826e-05,9,1
0.0002380122,5.94162e-05,9,1
0.0002187264,6.573675e-05,9,1
0.0002229401,6.200925e-05,9,1
0.0002266676,4.742337e-05,9,1
0.0002143507,2.748934e-05,9,1
0.000177886,7.069105e-06,9,1
0.0001235941,-1.25408e-05,9,1
6.330578e-05,-3.344723e-05,9,1
5.86492e-07,-5.435365e-05,9,1
-7.056019e-05,-6.926366e-05,9,1
-0.0001475412,-7.590833e-05,9,1
-0.0002160948,-7.574627e-05,9,1
-0.0002532078,-7.299116e-05,9,1
-0.0002415391,-6.667062e-05,9,1
-0.0001849783,-5.629844e-05,9,1
-0.0001067007,-4.43056e-05,9,1
-3.733679e-05,-3.63644e-05,9,1
1.720949e-06,-3.522994e-05,9,1
4.47606e-06,-3.668853e-05,9,1
-2.161646e-05,-3.506788e-05,9,1
-6.213279e-05,-2.42095e-05,9,1
-9.973194e-05,-6.382317e-06,9,1
-0.0001211246,1.193106e-05,9,1
-0.0001212866,2.278944e-05,9,1
-0.0001067007,2.635488e-05,9,1
-8.838737e-05,2.603075e-05,9,1
-7.509801e-05,2.619281e-05,9,1
-7.088431e-05,2.748934e-05,9,1
-7.444975e-05,2.76514e-05,9,1
-7.995997e-05,2.586868e-05,9,1
-8.287715e-05,2.651694e-05,9,1
-8.060823e-05,3.040651e-05,9,1
-7.201877e-05,3.964424e-05,9,1
-5.905355e-05,5.61749e-05,9,1
-4.414354e-05,7.6271e-05,9,1
-3.279896e-05,9.701536e-05,9,1
-2.42095e-05,0.0001145184,9,1
-2.080613e-05,0.0001274836,9,1
-1.886135e-05,0.0001346145,9,1
-1.902341e-05,0.0001373696,9,1
-2.615429e-05,0.0001370455,9,1
-4.203669e-05,0.0001355869,9,1
-6.618442e-05,0.0001352628,9,1
-9.519411e-05,0.0001321835,9,1
-0.0001178833,0.0001245665,9,1
-0.0001183694,0.0001117633,9,1
-8.838737e-05,9.620504e-05,9,1
-3.26369e-05,8.194328e-05,9,1
4.02925e-05,7.189524e-05,9,1
0.0001291043,6.525056e-05,9,1
0.0002295848,6.006447e-05,9,1
0.0003295791,5.552663e-05,9,1
0.0004123946,5.601284e-05,9,1
0.0004702519,6.055066e-05,9,1
0.0005047718,6.346784e-05,9,1
0.0005271368,6.136099e-05,9,1
0.0005451261,5.633696e-05,9,1
0.0005514466,5.293359e-05,9,1
0.0005328091,6.136099e-05,9,1
0.0004739794,7.789165e-05,9,1
0.0003718782,9.442231e-05,9,1
0.0002409294,0.0001025256,9,1
0.0001033359,9.798775e-05,9,1
-1.869928e-05,8.583286e-05,9,1
-0.0001130213,7.221937e-05,9,1
-0.0001810887,6.119892e-05,9,1
-0.0002340841,5.066468e-05,9,1
-0.0002723315,4.142696e-05,9,1
-0.0002946965,3.624086e-05,9,1
-0.0003057169,3.478228e-05,9,1
-0.0003144685,3.251336e-05,9,1
-0.0003215994,2.651694e-05,9,1
-0.0003206269,1.112074e-05,9,1
-0.0002982619,-1.043395e-05,9,1
-0.0002415391,-3.328516e-05,9,1
-0.0001616409,-4.657452e-05,9,1
-8.935975e-05,-4.819517e-05,9,1
-5.289507e-05,-4.544006e-05,9,1
-7.266703e-05,-4.576419e-05,9,1
-0.0001475412,-5.370539e-05,9,1
-0.0002530457,-6.861539e-05,9,1
-0.0003541745,-8.790117e-05,9,1
-0.0004215936,-0.0001086455,9,1
-0.0004491447,-0.0001276072,9,1
-0.0004471999,-0.0001350622,9,1
-0.0004329382,-0.0001285796,9,1
-0.000420135,-0.0001091317,9,1
-0.0004066836,-8.514606e-05,9,1
-0.0003856151,-6.537409e-05,9,1
-0.0003510952,-5.192267e-05,9,1
-0.0002938862,-4.495386e-05,9,1
-0.0002050744,-4.38194e-05,9,1
-9.227693e-05,-4.673658e-05,9,1
2.554455e-05,-5.451572e-05,9,1
0.0001255389,-6.310517e-05,9,1
0.0001961994,-6.893953e-05,9,1
0.0002513016,-7.250496e-05,9,1
0.0003203414,-7.477388e-05,9,1
0.0004264942,-7.542214e-05,9,1
0.000567167,-7.363943e-05,9,1
0.0007099467,-6.748094e-05,9,1
0.0008084825,-6.0188e-05,9,1
0.0008327923,-5.062615e-05,9,1
0.0007820658,-3.814712e-05,9,1
0.0006846645,-2.550602e-05,9,1
0.0005765668,-1.562004e-05,9,1
0.0004838654,-1.383732e-05,9,1
0.0004156358,-1.902341e-05,9,1
0.0003671783,-2.680255e-05,9,1
0.0003281205,-3.393342e-05,9,1
0.0002833905,-3.555408e-05,9,1
0.0002153231,-3.182657e-05,9,1
0.0001130598,-2.647842e-05,9,1
-1.448558e-05,-2.307504e-05,9,1
-0.0001468929,-2.194059e-05,9,1
-0.000253694,-2.291298e-05,9,1
-0.0003070135,-2.145439e-05,9,1
-0.0002937241,-1.286493e-05,9,1
-0.0002199844,3.827799e-06,9,1
-0.0001089697,2.489629e-05,9,1
7.879432e-06,4.888196e-05,9,1
0.0001047945,7.335383e-05,9,1
0.0001594105,9.701536e-05,9,1
0.0001611932,0.0001187321,9,1
0.0001145184,0.0001347766,9,1
4.385793e-05,0.0001443384,9,1
-1.643037e-05,0.0001472556,9,1
-4.527799e-05,0.0001454729,9,1
-4.300908e-05,0.0001386662,9,1
-2.680255e-05,0.0001276457,9,1
-1.270286e-05,0.0001154908,9,1
-8.165035e-06,0.0001049566,9,1
-9.785688e-06,9.733949e-05,9,1
-1.351319e-05,9.393612e-05,9,1
-1.934754e-05,9.199134e-05,9,1
-2.923353e-05,8.712937e-05,9,1
-4.527799e-05,8.210535e-05,9,1
-7.266703e-05,8.226741e-05,9,1
-0.0001133454,8.680524e-05,9,1
-0.0001652063,9.134307e-05,9,1
-0.0002198223,8.875003e-05,9,1
-0.0002676316,7.853991e-05,9,1
-0.000301017,6.589881e-05,9,1
-0.0003217614,5.666109e-05,9,1
-0.0003335922,5.406805e-05,9,1
-0.0003392644,6.136099e-05,9,1
-0.0003407231,7.286763e-05,9,1
-0.0003438023,7.870197e-05,9,1
-0.000350609,7.740546e-05,9,1
-0.0003548227,7.189524e-05,9,1
-0.0003510952,6.427817e-05,9,1
-0.0003347266,5.439218e-05,9,1
-0.0003021515,4.239934e-05,9,1
-0.0002605007,2.878586e-05,9,1
-0.0002225774,1.630683e-05,9,1
-0.0001904885,4.313994e-06,9,1
-0.0001532135,-1.075808e-05,9,1
-0.0001057284,-2.826114e-05,9,1
-5.030202e-05,-4.365734e-05,9,1
6.420843e-06,-4.981582e-05,9,1
5.536457e-05,-4.43056e-05,9,1
8.534666e-05,-2.923353e-05,9,1
8.356394e-05,-8.165035e-06,9,1
4.320967e-05,1.355172e-05,9,1
-2.907146e-05,3.235129e-05,9,1
-0.0001182074,4.693717e-05,9,1
-0.0002055606,5.666109e-05,9,1
-0.0002741142,5.698522e-05,9,1
-0.0003144685,4.693717e-05,9,1
-0.000325651,3.202716e-05,9,1
-0.0003044204,1.533444e-05,9,1
-0.0002496423,-2.238346e-07,9,1
-0.00016942,-1.351319e-05,9,1
-8.109443e-05,-2.242678e-05,9,1
-1.034161e-06,-2.615429e-05,9,1
6.281957e-05,-2.534396e-05,9,1
0.0001166253,-1.99958e-05,9,1
0.0001733481,-1.399939e-05,9,1
0.0002368777,-1.156841e-05,9,1
0.0002955454,-1.399939e-05,9,1
0.0003339549,-1.578211e-05,9,1
0.0003396272,-1.562004e-05,9,1
0.0003117519,-1.610624e-05,9,1
0.0002663737,-1.853722e-05,9,1
0.0002234263,-2.177852e-05,9,1
0.0001923098,-2.46957e-05,9,1
0.000175455,-2.583016e-05,9,1
0.000175455,-2.210265e-05,9,1
0.0001976579,-1.20546e-05,9,1
0.0002496809,2.623614e-07,9,1
0.0003297412,9.986281e-06,9,1
0.000428277,1.517237e-05,9,1
0.0005323229,1.776542e-05,9,1
0.0006347483,2.246531e-05,9,1
0.0007295565,3.251336e-05,9,1
0.000802486,4.839576e-05,9,1
0.0008277682,6.719535e-05,9,1
0.0007836864,8.502253e-05,9,1
0.0006733199,9.766362e-05,9,1
0.0005180612,0.0001041462,9,1
0.0003569682,0.0001038221,9,1
0.0002295848,9.63671e-05,9,1
0.0001551968,7.967438e-05,9,1
0.0001128978,5.439218e-05,9,1
7.238143e-05,2.34377e-05,9,1
1.711715e-05,-7.678839e-06,9,1
-4.835724e-05,-3.506788e-05,9,1
-0.0001044318,-5.095028e-05,9,1
-0.0001339277,-5.32192e-05,9,1
-0.0001361966,-4.38194e-05,9,1
-0.0001159385,-2.745081e-05,9,1
-6.796714e-05,-7.840905e-06,9,1
1.663096e-05,1.063454e-05,9,1
0.0001360731,3.040651e-05,9,1
0.0002684805,5.374392e-05,9,1
0.0003819262,7.951231e-05,9,1
0.0004503179,0.0001023635,9,1
0.0004644175,0.0001192183,9,1
0.0004345975,0.0001269974,9,1
0.0003785229,0.000120839,9,1
0.000309483,0.0001005808,9,1
0.0002297469,7.772959e-05,9,1
0.0001406109,6.508849e-05,9,1
4.239934e-05,6.849186e-05,9,1
-5.759496e-05,8.161915e-05,9,1
-0.0001459206,9.296373e-05,9,1
-0.0002123673,9.231547e-05,9,1
-0.0002535319,7.951231e-05,9,1
-0.000278652,6.265751e-05,9,1
-0.0003002067,4.466826e-05,9,1
-0.0003224097,2.716521e-05,9,1
-0.0003410472,1.209313e-05,9,1
-0.0003549848,2.855407e-06,9,1
-0.0003656811,-6.176923e-08,9,1
-0.0003721637,1.234753e-06,9,1
-0.0003650328,9.106227e-07,9,1
-0.0003426678,-5.734056e-06,9,1
-0.0003149546,-1.707863e-05,9,1
-0.0002974516,-2.696461e-05,9,1
-0.0002969654,-3.360929e-05,9,1
-0.000313334,-3.749886e-05,9,1
-0.0003438023,-4.203669e-05,9,1
-0.0003805911,-4.673658e-05,9,1
-0.0004081422,-5.548811e-05,9,1
-0.0004133283,-6.699475e-05,9,1
-0.0003940425,-7.817725e-05,9,1
-0.0003551469,-8.628052e-05,9,1
-0.00030831,-9.162867e-05,9,1
-0.0002570974,-9.162867e-05,9,1
-0.0002024813,-8.530812e-05,9,1
-0.000151917,-7.639453e-05,9,1
-0.0001248521,-6.650855e-05,9,1
-0.000134576,-5.710876e-05,9,1
-0.0001746061,-5.159854e-05,9,1
-0.0002246843,-5.305713e-05,9,1
-0.0002647144,-6.132246e-05,9,1
-0.0002851347,-7.18567e-05,9,1
-0.0002887001,-8.255302e-05,9,1
-0.0002807589,-9.341139e-05,9,1
-0.0002692523,-0.0001029732,9,1
-0.0002570974,-0.0001102662,9,1
-0.0002425115,-0.0001157764,9,1
-0.000226467,-0.0001151281,9,1
-0.0002057227,-0.0001094559,9,1
-0.0001733096,-0.000104756,9,1
-0.0001276072,-0.0001020008,9,1
-8.320128e-05,-9.811128e-05,9,1
-5.743289e-05,-9.162867e-05,9,1
-5.467778e-05,-8.303922e-05,9,1
-6.164659e-05,-7.477388e-05,9,1
-5.402952e-05,-6.618442e-05,9,1
-9.785688e-06,-5.565017e-05,9,1
8.226741e-05,-4.333321e-05,9,1
0.0002156472,-3.117831e-05,9,1
0.0003762539,-2.0482e-05,9,1
0.00053994,-1.399939e-05,9,1
0.0006788301,-1.092015e-05,9,1
0.0007635903,-9.947754e-06,9,1
0.0007788245,-5.085794e-06,9,1
0.0007292324,5.934648e-06,9,1
0.0006376655,2.133085e-05,9,1
0.0005315126,3.93201e-05,9,1
0.0004302217,5.714729e-05,9,1
0.0003475684,7.448828e-05,9,1
0.0002936006,8.583286e-05,9,1
0.0002626462,8.956036e-05,9,1
0.0002365536,8.79397e-05,9,1
0.0001963614,8.648112e-05,9,1
0.0001304008,8.891209e-05,9,1
3.332369e-05,9.63671e-05,9,1
-8.725291e-05,0.0001081979,9,1
-0.0002143121,0.0001169494,9,1
-0.0003279199,0.0001172735,9,1
-0.0004117076,0.0001125736,9,1
-0.0004549791,0.0001096565,9,1
-0.0004554653,0.000113546,9,1
-0.0004224039,0.0001216493,9,1
-0.0003656811,0.0001289422,9,1
-0.0002951827,0.0001261871,9,1
-0.0002092881,0.0001117633,9,1
-0.0001021629,9.393612e-05,9,1
1.987227e-05,7.951231e-05,9,1
0.0001435281,7.043665e-05,9,1
0.0002472499,6.735741e-05,9,1
0.0003156415,6.865393e-05,9,1
0.0003448133,6.995045e-05,9,1
0.0003430306,6.849186e-05,9,1
0.0003269861,6.249545e-05,9,1
0.0003111037,5.585077e-05,9,1
0.0003028383,5.309566e-05,9,1
0.0002939248,5.698522e-05,9,1
0.0002726942,6.654708e-05,9,1
0.0002303951,7.67572e-05,9,1
0.0001668655,8.145709e-05,9,1
9.474644e-05,7.67572e-05,9,1
3.283749e-05,6.41161e-05,9,1
1.234753e-06,5.017848e-05,9,1
1.079661e-05,4.272347e-05,9,1
6.298164e-05,4.256141e-05,9,1
0.0001521176,4.871989e-05,9,1
0.000262322,5.585077e-05,9,1
0.0003730126,6.055066e-05,9,1
0.000462959,6.298164e-05,9,1
0.0005097958,6.589881e-05,9,1
0.0004918066,7.30297e-05,9,1
0.0003971604,8.291568e-05,9,1
0.0002376881,9.069481e-05,9,1
5.034055e-05,9.426025e-05,9,1
-0.0001178833,9.16672e-05,9,1
-0.0002266291,8.016057e-05,9,1
-0.0002605007,6.298164e-05,9,1
-0.0002300324,4.564065e-05,9,1
-0.0001656925,3.364782e-05,9,1
-0.0001081593,2.538249e-05,9,1
-9.211487e-05,1.906194e-05,9,1
-0.0001208004,1.533444e-05,9,1
-0.0001754164,1.517237e-05,9,1
-0.000226467,1.9224e-05,9,1
-0.0002515871,2.376183e-05,9,1
-0.000231329,2.846173e-05,9,1
-0.0001609926,3.008238e-05,9,1
-5.565017e-05,2.489629e-05,9,1
5.811968e-05,1.12828e-05,9,1
0.0001504969,-7.192643e-06,9,1
0.0001955511,-2.323711e-05,9,1
0.0001861513,-3.150244e-05,9,1
0.0001355869,-3.101625e-05,9,1
6.362991e-05,-2.388537e-05,9,1
-1.221667e-05,-1.286493e-05,9,1
-8.206682e-05,-7.100305e-07,9,1
-0.0001400862,8.041497e-06,9,1
-0.0001896782,1.22552e-05,9,1
-0.0002344082,1.014835e-05,9,1
-0.0002765452,5.934648e-06,9,1
-0.000313334,-3.858999e-07,9,1
-0.000328082,-1.25408e-05,9,1
-0.0002904828,-2.84232e-05,9,1
-0.000184168,-4.268495e-05,9,1
-2.84232e-05,-4.932962e-05,9,1
0.0001325077,-4.511593e-05,9,1
0.0002540567,-2.712668e-05,9,1
0.0003125623,-2.168618e-06,9,1
0.0003146691,2.035846e-05,9,1
0.0002833905,3.056858e-05,9,1
0.0002368777,2.81376e-05,9,1
0.0001824238,1.727922e-05,9,1
0.000123432,4.638125e-06,9,1
6.508849e-05,1.072688e-06,9,1
1.663096e-05,6.258778e-06,9,1
-1.416145e-05,1.54965e-05,9,1
-2.518189e-05,2.651694e-05,9,1
-2.534396e-05,3.332369e-05,9,1
-2.599222e-05,3.364782e-05,9,1
-3.895745e-05,2.700314e-05,9,1
-6.699475e-05,1.436204e-05,9,1
-0.0001028112,1.396819e-06,9,1
-0.0001365208,-5.085794e-06,9,1
-0.0001603444,-3.14101e-06,9,1
-0.0001757406,7.23117e-06,9,1
-0.0001914609,2.149292e-05,9,1
-0.0002117191,3.656499e-05,9,1
-0.0002386219,4.985435e-05,9,1
-0.000271197,5.860588e-05,9,1
-0.0003057169,6.168512e-05,9,1
-0.0003350507,5.828175e-05,9,1
-0.0003510952,4.564065e-05,9,1
-0.0003483401,2.376183e-05,9,1
-0.0003248407,3.179537e-06,9,1
-0.000285945,-8.651231e-06,9,1
-0.0002428356,-6.706447e-06,9,1
-0.0002006986,5.448452e-06,9,1
-0.0001622891,2.408596e-05,9,1
-0.0001323071,4.418206e-05,9,1
-0.0001289037,6.071273e-05,9,1
-0.0001601823,6.962632e-05,9,1
-0.0002173914,6.800567e-05,9,1
-0.0002742763,5.439218e-05,9,1
-0.0003063652,3.218923e-05,9,1
-0.0003019894,1.014835e-05,9,1
-0.0002650386,-4.437533e-06,9,1
-0.0002113949,-1.286493e-05,9,1
-0.0001582375,-1.837515e-05,9,1
-0.0001146419,-2.291298e-05,9,1
-8.109443e-05,-3.101625e-05,9,1
-4.932962e-05,-4.155049e-05,9,1
-1.643037e-05,-5.046408e-05,9,1
1.906194e-05,-5.629844e-05,9,1
5.649903e-05,-5.840528e-05,9,1
9.134307e-05,-5.824322e-05,9,1
0.0001190562,-5.662256e-05,9,1
0.0001396385,-5.581224e-05,9,1
0.0001571416,-5.743289e-05,9,1
0.0001809652,-6.164659e-05,9,1
0.0002156472,-6.423963e-05,9,1
0.0002561635,-6.245691e-05,9,1
0.0002856594,-5.500191e-05,9,1
0.0002929524,-4.738484e-05,9,1
0.0002798251,-4.592625e-05,9,1
0.0002608634,-5.095028e-05,9,1
0.0002595669,-5.581224e-05,9,1
0.000299435,-5.59743e-05,9,1
0.0003984569,-4.80331e-05,9,1
0.0005593878,-3.279896e-05,9,1
0.0007545147,-1.67545e-05,9,1
0.0009319764,-6.058186e-06,9,1
0.001037643,-1.520357e-06,9,1
0.001041695,2.04508e-06,9,1
0.0009402417,1.063454e-05,9,1
0.0007532181,2.846173e-05,9,1
0.0005232473,5.649903e-05,9,1
0.0003028383,8.74535e-05,9,1
0.0001380179,0.000113546,9,1
5.309566e-05,0.0001273216,9,1
4.158902e-05,0.0001266733,9,1
7.546067e-05,0.0001143563,9,1
0.0001227837,9.490851e-05,9,1
0.0001574657,7.351589e-05,9,1
0.0001633001,5.844381e-05,9,1
0.0001318594,5.633696e-05,9,1
5.552663e-05,6.897806e-05,9,1
-6.164659e-05,8.810177e-05,9,1
-0.0001982676,0.0001020394,9,1
-0.0003186821,0.0001051186,9,1
-0.000392746,9.977047e-05,9,1
-0.0004105732,9.199134e-05,9,1
-0.0003792946,8.875003e-05,9,1
-0.0003165753,9.490851e-05,9,1
-0.0002415391,0.0001069013,9,1
-0.000161965,0.0001180839,9,1
-8.141856e-05,0.0001201907,9,1
-1.67545e-05,0.0001146805,9,1
1.072688e-06,0.0001096565,9,1
-4.689865e-05,0.0001124116,9,1
-0.0001548341,0.0001242423,9,1
-0.0002946965,0.0001368834,9,1
-0.0004347209,0.0001406109,9,1
-0.0005509217,0.000130725,9,1
-0.0006330888,0.0001086841,9,1
-0.0006823567,8.453633e-05,9,1
-0.0007053699,6.703327e-05,9,1
-0.0007043975,5.358185e-05,9,1
-0.0006849497,3.575467e-05,9,1
-0.0006552918,1.257933e-05,9,1
-0.0006128307,-1.092015e-05,9,1
-0.0005347152,-2.84232e-05,9,1
-0.0003914495,-3.68506e-05,9,1
-0.0001896782,-3.944364e-05,9,1
3.073064e-05,-4.38194e-05,9,1
0.0002218057,-5.532604e-05,9,1
0.000356482,-7.23429e-05,9,1
0.0004363802,-8.498399e-05,9,1
0.0004843516,-8.757704e-05,9,1
0.0005213025,-8.190475e-05,9,1
0.0005503122,-7.509801e-05,9,1
0.0005611706,-7.623246e-05,9,1
0.0005425331,-8.547019e-05,9,1
0.0004932652,-9.535618e-05,9,1
0.0004214702,-9.794922e-05,9,1
0.0003428685,-9.632857e-05,9,1
0.0002712356,-9.470791e-05,9,1
0.0002124059,-9.600444e-05,9,1
0.0001654069,-9.908367e-05,9,1
0.0001313732,-0.0001015147,9,1
0.0001222976,-0.0001021629,9,1
0.0001451488,-0.000104756,9,1
0.000195227,-0.0001060525,9,1
0.0002616738,-0.0001016767,9,1
0.0003315239,-9.033215e-05,9,1
0.0003858158,-7.444975e-05,9,1
0.0004020224,-5.791909e-05,9,1
0.000366368,-4.219875e-05,9,1
0.0002869559,-3.020592e-05,9,1
0.000180479,-1.99958e-05,9,1
6.119892e-05,-9.299493e-06,9,1
-5.662256e-05,2.623614e-07,9,1
-0.0001533756,5.286387e-06,9,1
-0.0002172293,3.989864e-06,9,1
-0.0002486699,-4.275467e-06,9,1
-0.0002523975,-1.659243e-05,9,1
-0.0002306807,-2.745081e-05,9,1
-0.0001716889,-3.247483e-05,9,1
-7.137051e-05,-2.745081e-05,9,1
5.244739e-05,-1.707863e-05,9,1
0.0001697827,-8.489166e-06,9,1
0.0002503292,-5.89612e-06,9,1
0.0002744769,-5.57199e-06,9,1
0.0002352571,-5.89612e-06,9,1
0.0001461212,-6.868513e-06,9,1
3.364782e-05,-8.002969e-06,9,1
-7.250496e-05,-9.947754e-06,9,1
-0.0001472171,-1.173047e-05,9,1
-0.0001778474,-7.516774e-06,9,1
-0.000166989,3.179537e-06,9,1
-0.0001349001,2.068259e-05,9,1
-0.0001075111,4.158902e-05,9,1
-0.0001109144,6.346784e-05,9,1
-0.0001601823,7.821578e-05,9,1
-0.0002489941,8.129502e-05,9,1
-0.0003551469,7.351589e-05,9,1
-0.0004533584,5.957827e-05,9,1
-0.0005251534,5.066468e-05,9,1
-0.0005634008,5.666109e-05,9,1
-0.0005669662,7.384002e-05,9,1
-0.0005460597,8.875003e-05,9,1
-0.0005061917,9.31258e-05,9,1
-0.0004527101,8.550872e-05,9,1
-0.0003895047,7.20573e-05,9,1
-0.0003193304,6.006447e-05,9,1
-0.0002428356,5.633696e-05,9,1
-0.0001496481,6.152305e-05,9,1
-2.89094e-05,7.20573e-05,9,1
0.0001214872,8.080883e-05,9,1
0.0002837146,8.615699e-05,9,1
0.000420984,8.891209e-05,9,1
0.0004893756,9.296373e-05,9,1
0.0004697657,9.928428e-05,9,1
0.0003769022,0.0001090082,9,1
0.000244981,0.0001206769,9,1
0.0001056048,0.0001276457,9,1
-1.529591e-05,0.0001279698,9,1
-0.0001052422,0.0001218114,9,1
-0.0001561307,0.0001125736,9,1
-0.0001600202,0.0001054428,9,1
-0.0001170729,0.0001070634,9,1
-3.928157e-05,0.0001151667,9,1
6.200925e-05,0.0001242423,9,1
0.0001733481,0.0001297526,9,1
0.000282256,0.0001292664,9,1
0.0003756057,0.000123432,9,1
0.0004435111,0.0001146805,9,1
0.0004765725,0.0001062531,9,1
0.0004676588,9.993253e-05,9,1
0.0004211461,9.63671e-05,9,1
0.0003501615,9.393612e-05,9,1
0.0002712356,9.118101e-05,9,1
0.000202844,8.631905e-05,9,1
0.0001547106,7.951231e-05,9,1
0.0001235941,7.254349e-05,9,1
0.0001004187,6.508849e-05,9,1
7.789165e-05,5.61749e-05,9,1
4.742337e-05,4.564065e-05,9,1
8.689758e-06,3.299956e-05,9,1
-3.279896e-05,1.954813e-05,9,1
-6.893953e-05,3.341602e-06,9,1
-9.357346e-05,-1.497178e-05,9,1
-0.000104918,-3.458168e-05,9,1
-0.0001063766,-5.516398e-05,9,1
-0.0001003802,-7.088431e-05,9,1
-9.017008e-05,-7.542214e-05,9,1
-8.82253e-05,-6.81292e-05,9,1
-0.0001065387,-5.500191e-05,9,1
-0.0001449482,-4.041603e-05,9,1
-0.0001904885,-2.518189e-05,9,1
-0.000226467,-1.286493e-05,9,1
-0.0002374874,-5.89612e-06,9,1
-0.0002225774,-2.168618e-06,9,1
-0.0001900023,-2.492749e-06,9,1
-0.000152079,-9.137427e-06,9,1
-0.0001088076,-2.113026e-05,9,1
-5.467778e-05,-3.296103e-05,9,1
1.64689e-05,-4.009191e-05,9,1
9.571884e-05,-4.284701e-05,9,1
0.0001564933,-4.462973e-05,9,1
0.0001812893,-4.932962e-05,9,1
0.0001683241,-5.435365e-05,9,1
0.0001334801,-5.629844e-05,9,1
9.393612e-05,-5.370539e-05,9,1
6.006447e-05,-4.673658e-05,9,1
3.348575e-05,-3.604027e-05,9,1
1.1769e-05,-2.09682e-05,9,1
-3.303076e-06,-5.247859e-06,9,1
-2.492749e-06,6.258778e-06,9,1
2.651694e-05,9.338019e-06,9,1
9.199134e-05,2.04508e-06,9,1
0.0001835583,-1.416145e-05,9,1
0.0002733424,-3.539201e-05,9,1
0.0003287688,-5.257093e-05,9,1
0.0003388169,-6.116039e-05,9,1
0.0003124002,-6.083626e-05,9,1
0.0002718839,-5.435365e-05,9,1
0.0002404432,-4.608832e-05,9,1
0.0002336365,-3.992984e-05,9,1
0.0002470879,-3.490581e-05,9,1
0.0002587566,-2.46957e-05,9,1
0.0002414156,-7.516774e-06,9,1
0.0001791825,1.419998e-05,9,1
8.016057e-05,3.073064e-05,9,1
-3.377136e-05,3.802358e-05,9,1
-0.0001376552,3.867184e-05,9,1
-0.0002120432,3.948217e-05,9,1
-0.0002499665,4.596478e-05,9,1
-0.0002577456,5.536457e-05,9,1
-0.0002496423,6.41161e-05,9,1
-0.0002405667,7.076078e-05,9,1
-0.0002407288,7.52986e-05,9,1
-0.0002515871,7.610894e-05,9,1
-0.0002629317,7.351589e-05,9,1
-0.0002639041,6.78436e-05,9,1
-0.0002481838,6.265751e-05,9,1
-0.0002237119,6.217132e-05,9,1
-0.0002071812,6.638502e-05,9,1
-0.0002118811,7.189524e-05,9,1
-0.000238946,7.335383e-05,9,1
-0.000278652,6.638502e-05,9,1
-0.0003138202,5.244739e-05,9,1
-0.0003241924,3.624086e-05,9,1
-0.0002893484,2.262738e-05,9,1
-0.0002000504,1.484824e-05,9,1
-6.537409e-05,1.014835e-05,9,1
8.648112e-05,8.527692e-06,9,1
0.000217592,8.851824e-06,9,1
0.0002992729,1.54965e-05,9,1
0.0003274723,3.008238e-05,9,1
0.0003172622,4.661304e-05,9,1
0.0002853353,5.974033e-05,9,1
0.0002457913,6.525056e-05,9,1
0.0002051129,5.974033e-05,9,1
0.000168,4.758544e-05,9,1
0.0001406109,3.283749e-05,9,1
0.0001261871,1.857574e-05,9,1
0.000120839,8.365628e-06,9,1
0.0001203528,1.883015e-06,9,1
0.0001205148,-5.479652e-07,9,1
0.0001099806,4.244267e-07,9,1
8.242948e-05,2.04508e-06,9,1
4.142696e-05,3.665733e-06,9,1
-1.358292e-06,8.527692e-06,9,1
-3.036798e-05,1.533444e-05,9,1
-4.025397e-05,2.376183e-05,9,1
-3.766092e-05,3.380988e-05,9,1
-3.749886e-05,4.158902e-05,9,1
-4.689865e-05,4.790957e-05,9,1
-6.748094e-05,4.82337e-05,9,1
-9.130454e-05,3.753739e-05,9,1
-0.0001063766,1.889987e-05,9,1
-0.0001089697,-2.492749e-06,9,1
-0.0001052422,-2.145439e-05,9,1
-0.0001042698,-3.701266e-05,9,1
-0.0001060525,-5.143648e-05,9,1
-0.0001078352,-6.39155e-05,9,1
-0.0001110765,-7.169464e-05,9,1
-0.0001282554,-7.315322e-05,9,1
-0.0001802784,-7.104638e-05,9,1
-0.0002742763,-6.699475e-05,9,1
-0.0003930701,-6.278104e-05,9,1
-0.0005001953,-5.937768e-05,9,1
-0.0005619422,-5.565017e-05,9,1
-0.000556756,-5.095028e-05,9,1
-0.0004826922,-4.414354e-05,9,1
-0.0003528779,-3.522994e-05,9,1
-0.0001849783,-2.712668e-05,9,1
4.244267e-07,-2.226472e-05,9,1
0.0001819376,-2.242678e-05,9,1
0.0003402755,-2.534396e-05,9,1
0.0004611762,-2.485776e-05,9,1
0.0005323229,-1.902341e-05,9,1
0.0005485295,-6.058186e-06,9,1
0.0005185474,1.1769e-05,9,1
0.0004584211,2.522042e-05,9,1
0.0003940812,2.651694e-05,9,1
0.0003475684,1.54965e-05,9,1
0.000326824,2.623614e-07,9,1
0.0003354135,-1.318906e-05,9,1
0.0003752816,-1.707863e-05,9,1
0.0004545315,-8.489166e-06,9,1
0.0005777013,1.063454e-05,9,1
0.0007274497,3.283749e-05,9,1
0.0008639088,5.19612e-05,9,1
0.0009404037,6.703327e-05,9,1
0.0009340832,7.691926e-05,9,1
0.0008532125,8.226741e-05,9,1
0.0007274497,8.567078e-05,9,1
0.0005930975,8.631905e-05,9,1
0.0004764104,8.453633e-05,9,1
0.0003859779,8.340187e-05,9,1
0.0003154794,8.372601e-05,9,1
0.0002466017,8.664318e-05,9,1
0.0001639484,9.182927e-05,9,1
6.719535e-05,9.879808e-05,9,1
-2.874733e-05,0.0001054428,9,1
-0.0001086455,0.0001096565,9,1
-0.0001634236,0.0001081979,9,1
-0.0001888679,0.0001004187,9,1
-0.0001906506,8.631905e-05,9,1
-0.0001796301,7.108491e-05,9,1
-0.0001705545,6.087479e-05,9,1
-0.0001776853,5.99024e-05,9,1
-0.0002081536,6.492643e-05,9,1
-0.000261149,6.897806e-05,9,1
-0.0003271096,6.946425e-05,9,1
-0.0003922598,6.897806e-05,9,1
-0.0004387725,7.448828e-05,9,1
-0.0004541688,8.599492e-05,9,1
-0.000437476,9.782569e-05,9,1
-0.0003990665,0.0001030118,9,1
-0.0003509331,9.993253e-05,9,1
-0.0003021515,8.939829e-05,9,1
-0.0002635799,7.481241e-05,9,1
-0.000248832,5.747142e-05,9,1
-0.000271035,3.60788e-05,9,1
-0.0003300267,1.144487e-05,9,1
-0.0004074939,-1.156841e-05,9,1
-0.0004794509,-2.664048e-05,9,1
-0.0005288809,-3.036798e-05,9,1
-0.0005481666,-2.501983e-05,9,1
-0.0005334187,-1.448558e-05,9,1
-0.0004948471,-4.113403e-06,9,1
-0.0004504412,9.106227e-07,9,1
-0.0004204592,-2.330684e-06,9,1
-0.0004155972,-1.221667e-05,9,1
-0.0004277521,-2.372331e-05,9,1
-0.0004365036,-3.344723e-05,9,1
-0.0004198109,-4.05781e-05,9,1
-0.000375405,-4.625038e-05,9,1
-0.0003175477,-4.835724e-05,9,1
-0.0002708729,-4.657452e-05,9,1
-0.0002489941,-4.317115e-05,9,1
-0.0002451045,-4.333321e-05,9,1
-0.000238784,-4.787104e-05,9,1
-0.0002037779,-5.338126e-05,9,1
-0.0001225832,-5.386745e-05,9,1
2.531276e-06,-4.722278e-05,9,1
0.0001422316,-3.279896e-05,9,1
0.0002568118,-1.562004e-05,9,1
0.0003161277,-3.14101e-06,9,1
0.000309483,9.106227e-07,9,1
0.0002538946,-4.113403e-06,9,1
0.0001812893,-1.399939e-05,9,1
0.0001253768,-2.242678e-05,9,1
0.0001047945,-2.566809e-05,9,1
0.0001200286,-2.356124e-05,9,1
0.0001571416,-1.886135e-05,9,1
0.0001984683,-1.3027e-05,9,1
0.0002318537,-8.489166e-06,9,1
0.0002475741,-5.409925e-06,9,1
0.0002407673,1.396819e-06,9,1
0.0002125679,1.274139e-05,9,1
0.0001688103,2.570662e-05,9,1
0.0001198666,3.494434e-05,9,1
7.918817e-05,3.996837e-05,9,1
5.325772e-05,4.110282e-05,9,1
3.948217e-05,4.142696e-05,9,1
3.299956e-05,4.191315e-05,9,1
2.586868e-05,4.191315e-05,9,1
8.203562e-06,4.077869e-05,9,1
-2.437157e-05,3.996837e-05,9,1
-6.359137e-05,4.126489e-05,9,1
-9.503204e-05,4.564065e-05,9,1
-0.0001060525,4.855783e-05,9,1
-9.29252e-05,5.017848e-05,9,1
-6.521203e-05,5.406805e-05,9,1
-4.544006e-05,5.860588e-05,9,1
-5.078821e-05,5.974033e-05,9,1
-7.380149e-05,5.115087e-05,9,1
-8.287715e-05,3.429608e-05,9,1
-4.90055e-05,1.484824e-05,9,1
3.18651e-05,-2.330684e-06,9,1
0.0001422316,-1.043395e-05,9,1
0.0002589186,-7.192643e-06,9,1
0.0003579406,2.207145e-06,9,1
0.0004206599,1.031041e-05,9,1
0.0004465904,1.419998e-05,9,1
0.0004568005,1.727922e-05,9,1
0.0004824068,2.084466e-05,9,1
0.0005413986,2.651694e-05,9,1
0.0006156246,3.445814e-05,9,1
0.0006483617,3.834771e-05,9,1
0.0005871011,2.943412e-05,9,1
0.000435894,5.448452e-06,9,1
0.0002613496,-2.728874e-05,9,1
0.0001598967,-5.743289e-05,9,1
0.0001900409,-7.250496e-05,9,1
0.0003308757,-6.326724e-05,9,1
0.0004934272,-3.101625e-05,9,1
0.0005835356,8.689758e-06,9,1
0.0005592257,3.494434e-05,9,1
0.0004410801,3.575467e-05,9,1
0.0002785285,1.565857e-05,9,1
0.0001150046,-1.707863e-05,9,1
-3.182657e-05,-5.386745e-05,9,1
-0.0001577513,-8.854943e-05,9,1
-0.0002593663,-0.0001141558,9,1
-0.000333268,-0.0001253383,9,1
-0.0003794566,-0.0001230693,9,1
-0.0004021458,-0.0001086455,9,1
-0.0004061974,-8.384954e-05,9,1
-0.0003990665,-5.532604e-05,9,1
-0.0003883702,-3.166451e-05,9,1
-0.0003731361,-1.869928e-05,9,1
-0.000350447,-1.643037e-05,9,1
-0.0003230579,-2.177852e-05,9,1
-0.0002927517,-2.858527e-05,9,1
-0.0002630937,-2.696461e-05,9,1
-0.0002429977,-1.643037e-05,9,1
-0.0002405667,-5.734056e-06,9,1
-0.0002561249,4.244267e-07,9,1
-0.0002874036,2.369211e-06,9,1
-0.0003233821,2.04508e-06,9,1
-0.0003525538,4.313994e-06,9,1
-0.0003606571,1.241726e-05,9,1
-0.0003391024,2.489629e-05,9,1
-0.0002817312,3.526847e-05,9,1
-0.0001780095,4.272347e-05,9,1
-1.707863e-05,4.45062e-05,9,1
0.0001986303,3.769945e-05,9,1
0.0004474007,2.408596e-05,9,1
0.0006853127,1.014835e-05,9,1
0.0008684467,2.531276e-06,9,1
0.0009830269,2.693341e-06,9,1
0.001044288,1.031041e-05,9,1
0.001071191,2.489629e-05,9,1
0.001069732,4.223728e-05,9,1
0.001028567,5.52025e-05,9,1
0.0009379727,5.974033e-05,9,1
0.0007994067,5.730935e-05,9,1
0.0006326414,5.358185e-05,9,1
0.0004642555,4.920609e-05,9,1
0.0003148312,4.499239e-05,9,1
0.0001942546,4.466826e-05,9,1
9.701536e-05,5.163707e-05,9,1
1.257933e-05,6.476436e-05,9,1
-6.91016e-05,7.416415e-05,9,1
-0.0001478653,7.724339e-05,9,1
-0.0002144742,7.772959e-05,9,1
-0.0002583939,7.837785e-05,9,1
-0.0002749245,8.275361e-05,9,1
-0.000276221,8.956036e-05,9,1
-0.0002780038,9.750156e-05,9,1
-0.0002888622,0.0001047945,9,1
-0.0003117133,0.0001124116,9,1
-0.0003452609,0.0001180839,9,1
-0.0003831841,0.0001195424,9,1
-0.0004147869,0.0001141943,9,1
-0.0004353692,0.000106091,9,1
-0.0004454172,9.571884e-05,9,1
-0.0004494688,8.648112e-05,9,1
-0.0004525481,8.567078e-05,9,1
-0.0004541688,9.377406e-05,9,1
-0.0004506033,0.0001051186,9,1
-0.0004465517,0.0001116012,9,1
-0.0004467137,0.0001106288,9,1
-0.0004541688,0.000105929,9,1
-0.0004700511,0.0001007429,9,1
-0.0004971161,9.588091e-05,9,1
-0.000529205,8.972242e-05,9,1
-0.0005530285,8.550872e-05,9,1
-0.0005569181,8.372601e-05,9,1
-0.0005377944,8.226741e-05,9,1
-0.000492092,8.178122e-05,9,1
-0.0004178661,8.129502e-05,9,1
-0.0003188442,7.999851e-05,9,1
-0.0002062088,8.032264e-05,9,1
-9.29252e-05,8.016057e-05,9,1
1.371378e-05,7.805372e-05,9,1
0.000115977,7.351589e-05,9,1
0.0002119197,6.881599e-05,9,1
0.0002885766,6.46023e-05,9,1
0.0003263378,6.087479e-05,9,1
0.0003156415,5.99024e-05,9,1
0.0002666978,6.152305e-05,9,1
0.0002023578,5.893001e-05,9,1
0.0001428799,4.871989e-05,9,1
9.037068e-05,3.089271e-05,9,1
4.564065e-05,8.365628e-06,9,1
1.663096e-05,-1.221667e-05,9,1
2.295151e-05,-2.42095e-05,9,1
7.837785e-05,-2.518189e-05,9,1
0.0001728619,-1.464765e-05,9,1
0.0002655633,4.638125e-06,9,1
0.0003141829,2.76514e-05,9,1
0.000289549,4.580272e-05,9,1
0.0001965235,4.77475e-05,9,1
6.476436e-05,2.846173e-05,9,1
-6.472583e-05,-6.058186e-06,9,1
-0.000164396,-4.446767e-05,9,1
-0.0002297083,-7.380149e-05,9,1
-0.0002681178,-8.465986e-05,9,1
-0.000285945,-7.898758e-05,9,1
-0.0002838381,-6.796714e-05,9,1
-0.0002634179,-5.840528e-05,9,1
-0.0002332737,-5.208474e-05,9,1
-0.0002073433,-5.127441e-05,9,1
-0.000191785,-5.791909e-05,9,1
-0.0001771992,-7.23429e-05,9,1
-0.0001425172,-9.081835e-05,9,1
-6.958779e-05,-0.0001089697,9,1
3.640293e-05,-0.0001199901,9,1
0.0001479039,-0.0001208004,9,1
0.0002380122,-0.0001109144,9,1
0.0002869559,-9.422172e-05,9,1
0.0002853353,-7.590833e-05,9,1
0.0002391467,-6.132246e-05,9,1
0.0001735102,-5.467778e-05,9,1
0.0001205148,-5.370539e-05,9,1
0.0001018773,-5.419158e-05,9,1
0.0001201907,-5.759496e-05,9,1
0.0001610312,-6.229485e-05,9,1
0.0002021958,-6.504996e-05,9,1
0.0002219677,-6.245691e-05,9,1
0.000210299,-5.32192e-05,9,1
0.0001697827,-3.68506e-05,9,1
0.0001193804,-1.902341e-05,9,1
7.821578e-05,-4.275467e-06,9,1
5.974033e-05,3.503668e-06,9,1
7.546067e-05,8.851824e-06,9,1
0.0001297526,1.663096e-05,9,1
0.0002145127,3.040651e-05,9,1
0.000314345,4.580272e-05,9,1
0.0004033189,5.649903e-05,9,1
0.0004533971,5.860588e-05,9,1
0.0004465904,5.633696e-05,9,1
0.0003864641,5.471631e-05,9,1
0.000292142,6.006447e-05,9,1
0.0001923098,6.816773e-05,9,1
0.000110953,7.67572e-05,9,1
5.293359e-05,8.615699e-05,9,1
5.610517e-06,9.53947e-05,9,1
-4.333321e-05,0.0001002567,9,1
-9.29252e-05,9.896015e-05,9,1
-0.0001405724,9.409818e-05,9,1
-0.0001906506,8.729144e-05,9,1
-0.0002428356,7.610894e-05,9,1
-0.0002864312,6.622294e-05,9,1
-0.0003029619,6.444023e-05,9,1
-0.0002796244,7.124698e-05,9,1
-0.0002250084,8.178122e-05,9,1
-0.000164396,8.956036e-05,9,1
-0.0001177212,8.907416e-05,9,1
-8.692878e-05,7.886404e-05,9,1
-4.625038e-05,5.99024e-05,9,1
2.829966e-05,3.93201e-05,9,1
0.0001329939,2.424803e-05,9,1
0.0002370398,1.760335e-05,9,1
0.0003109416,1.97102e-05,9,1
0.0003328204,2.376183e-05,9,1
0.0002987867,2.473423e-05,9,1
0.0002192126,2.246531e-05,9,1
0.0001140322,1.9224e-05,9,1
3.179537e-06,1.193106e-05,9,1
-9.486997e-05,1.720949e-06,9,1
-0.0001609926,-6.706447e-06,9,1
-0.0001780095,-1.20546e-05,9,1
-0.0001455964,-1.335113e-05,9,1
-7.898758e-05,-1.270286e-05,9,1
-5.409925e-06,-1.399939e-05,9,1
4.499239e-05,-1.869928e-05,9,1
5.244739e-05,-2.712668e-05,9,1
1.679302e-05,-3.555408e-05,9,1
-4.106429e-05,-3.830919e-05,9,1
-9.179074e-05,-3.150244e-05,9,1
-0.0001175591,-1.643037e-05,9,1
-0.0001131834,7.485573e-07,9,1
-7.769106e-05,1.063454e-05,9,1
-1.318906e-05,1.095867e-05,9,1
7.999851e-05,3.503668e-06,9,1
0.0001811273,-6.706447e-06,9,1
0.0002553532,-1.529591e-05,9,1
0.0002736666,-2.258885e-05,9,1
0.0002302331,-2.971972e-05,9,1
0.0001467694,-3.474375e-05,9,1
5.747142e-05,-3.830919e-05,9,1
-6.220252e-06,-4.041603e-05,9,1
-3.036798e-05,-4.462973e-05,9,1
-1.756482e-05,-5.32192e-05,9,1
1.614476e-05,-6.245691e-05,9,1
4.596478e-05,-7.072225e-05,9,1
5.56887e-05,-7.347736e-05,9,1
5.19612e-05,-6.974985e-05,9,1
5.423012e-05,-6.002594e-05,9,1
7.254349e-05,-4.835724e-05,9,1
0.0001025256,-3.766092e-05,9,1
0.0001292664,-3.198864e-05,9,1
0.0001427178,-2.907146e-05,9,1
0.00013818,-2.696461e-05,9,1
0.0001151667,-2.42095e-05,9,1
8.145709e-05,-1.902341e-05,9,1
4.110282e-05,-1.416145e-05,9,1
-7.100305e-07,-9.785688e-06,9,1
-3.377136e-05,-4.113403e-06,9,1
-5.2733e-05,7.393236e-06,9,1
-6.407757e-05,2.408596e-05,9,1
-7.282909e-05,4.483033e-05,9,1
-7.785312e-05,6.541262e-05,9,1
-7.590833e-05,8.080883e-05,9,1
-7.072225e-05,9.101894e-05,9,1
-6.521203e-05,9.896015e-05,9,1
-5.613637e-05,0.0001086841,9,1
-4.495386e-05,0.0001190562,9,1
-3.571614e-05,0.000125863,9,1
-3.117831e-05,0.0001315353,9,1
-3.279896e-05,0.0001321835,9,1
-4.446767e-05,0.000128294,9,1
-5.872941e-05,0.0001218114,9,1
-6.261898e-05,0.0001146805,9,1
-4.932962e-05,0.0001088461,9,1
-2.42095e-05,0.0001062531,9,1
-2.978945e-06,0.0001070634,9,1
-3.303076e-06,0.0001091703,9,1
-3.004385e-05,0.0001091703,9,1
-7.801519e-05,0.0001049566,9,1
-0.0001306864,9.733949e-05,9,1
-0.0001660166,8.891209e-05,9,1
-0.0001601823,8.04847e-05,9,1
-9.422172e-05,7.416415e-05,9,1
3.737532e-05,7.30297e-05,9,1
0.0002248849,7.951231e-05,9,1
0.0004373526,9.101894e-05,9,1
0.0006276174,0.0001039842,9,1
0.0007485182,0.0001180839,9,1
0.0007673178,0.0001287802,9,1
0.0006713751,0.0001310491,9,1
0.0004814344,0.0001192183,9,1
0.0002417397,9.26396e-05,9,1
5.610517e-06,5.536457e-05,9,1
-0.0001854645,1.322759e-05,9,1
-0.0003026377,-2.518189e-05,9,1
-0.0003365093,-5.176061e-05,9,1
-0.0002972895,-6.586029e-05,9,1
-0.0002120432,-7.299116e-05,9,1
-0.0001102662,-7.688073e-05,9,1
-2.210265e-05,-7.396356e-05,9,1
3.154097e-05,-6.375344e-05,9,1
4.369587e-05,-5.030202e-05,9,1
2.068259e-05,-4.300908e-05,9,1
-2.809907e-05,-4.511593e-05,9,1
-9.227693e-05,-5.402952e-05,9,1
-0.0001609926,-6.342931e-05,9,1
-0.0002229016,-6.748094e-05,9,1
-0.0002726556,-6.667062e-05,9,1
-0.0003100927,-6.504996e-05,9,1
-0.0003389403,-6.553616e-05,9,1
-0.0003598467,-6.602235e-05,9,1
-0.0003681121,-6.035007e-05,9,1
-0.0003630881,-4.981582e-05,9,1
-0.0003533641,-4.268495e-05,9,1
-0.0003470436,-4.171256e-05,9,1
-0.0003408851,-4.495386e-05,9,1
-0.0003214373,-4.819517e-05,9,1
-0.0002783279,-4.85193e-05,9,1
-0.0002122053,-4.608832e-05,9,1
-0.0001302002,-4.592625e-05,9,1
-4.009191e-05,-5.062615e-05,9,1
5.504044e-05,-6.180866e-05,9,1
0.0001490383,-7.363943e-05,9,1
0.0002227781,-7.898758e-05,9,1
0.0002547049,-7.282909e-05,9,1
0.0002410915,-6.002594e-05,9,1
0.0002046267,-4.47918e-05,9,1
0.0001817755,-3.344723e-05,9,1
0.0001968476,-2.599222e-05,9,1
0.0002495189,-1.724069e-05,9,1
0.0003151553,-5.247859e-06,9,1
0.000356482,7.069105e-06,9,1
0.0003535648,1.760335e-05,9,1
0.000314345,2.586868e-05,9,1
0.0002616738,3.494434e-05,9,1
0.0002169437,4.661304e-05,9,1
0.000187772,5.811968e-05,9,1
0.0001636242,6.444023e-05,9,1
0.0001313732,6.298164e-05,9,1
8.648112e-05,5.406805e-05,9,1
3.283749e-05,4.320967e-05,9,1
-2.388537e-05,3.55926e-05,9,1
-7.720486e-05,3.510641e-05,9,1
-0.0001285796,4.223728e-05,9,1
-0.0001775233,5.374392e-05,9,1
-0.0002173914,6.427817e-05,9,1
-0.0002395943,7.335383e-05,9,1
-0.0002442942,8.340187e-05,9,1
-0.0002353806,9.377406e-05,9,1
-0.0002117191,9.831188e-05,9,1
-0.0001715269,9.458438e-05,9,1
-0.0001152902,8.712937e-05,9,1
-4.738484e-05,7.951231e-05,9,1
2.295151e-05,7.513654e-05,9,1
8.226741e-05,7.335383e-05,9,1
0.0001153287,7.546067e-05,9,1
0.000115977,8.064677e-05,9,1
8.712937e-05,8.631905e-05,9,1
3.575467e-05,9.150514e-05,9,1
-3.134038e-05,9.750156e-05,9,1
-9.616651e-05,0.0001020394,9,1
-0.000144624,0.0001062531,9,1
-0.0001671511,0.0001104668,9,1
-0.0001640719,0.0001125736,9,1
-0.0001361966,0.0001098185,9,1
-8.741498e-05,0.000101067,9,1
-1.837515e-05,8.680524e-05,9,1
5.795762e-05,6.978839e-05,9,1
0.000123432,5.390598e-05,9,1
0.0001686482,3.98063e-05,9,1
0.0001947408,2.424803e-05,9,1
0.0002059233,9.66215e-06,9,1
0.0002020337,2.693341e-06,9,1
0.0001786963,6.582909e-06,9,1
0.0001269974,1.630683e-05,9,1
4.564065e-05,1.938607e-05,9,1
-5.176061e-05,1.079661e-05,9,1
-0.0001477033,-8.813297e-06,9,1
-0.0002251705,-3.182657e-05,9,1
-0.0002724935,-5.127441e-05,9,1
-0.0002887001,-6.537409e-05,9,1
-0.0002781658,-7.347736e-05,9,1
-0.0002436459,-7.250496e-05,9,1
-0.0001820611,-5.937768e-05,9,1
-9.519411e-05,-3.976777e-05,9,1
-7.100305e-07,-2.194059e-05,9,1
8.080883e-05,-8.327101e-06,9,1
0.0001342904,5.772582e-06,9,1
0.0001550348,2.619281e-05,9,1
0.0001474177,4.82337e-05,9,1
0.0001255389,6.362991e-05,9,1
0.0001104668,6.638502e-05,9,1
0.0001211631,5.698522e-05,9,1
0.0001582761,4.126489e-05,9,1
0.0002046267,2.619281e-05,9,1
0.0002323399,1.630683e-05,9,1
0.0002211574,1.193106e-05,9,1
0.0001710792,1.452411e-05,9,1
9.652917e-05,2.052053e-05,9,1
2.230325e-05,2.327564e-05,9,1
-3.830919e-05,1.97102e-05,9,1
-8.368748e-05,1.031041e-05,9,1
-0.0001130213,-7.100305e-07,9,1
-0.0001313347,-1.075808e-05,9,1
-0.0001426792,-1.805102e-05,9,1
-0.0001517549,-2.258885e-05,9,1
-0.0001556445,-2.388537e-05,9,1
-0.0001488377,-2.258885e-05,9,1
-0.0001269589,-2.42095e-05,9,1
-8.303922e-05,-3.150244e-05,9,1
-1.3027e-05,-4.43056e-05,9,1
8.032264e-05,-5.678463e-05,9,1
0.0001835583,-6.245691e-05,9,1
0.000279663,-5.64605e-05,9,1
0.000356644,-4.05781e-05,9,1
0.0004101256,-1.99958e-05,9,1
0.0004389733,-5.89612e-06,9,1
0.0004415663,-3.858999e-07,9,1
0.0004195254,-1.520357e-06,9,1
0.0003799815,-8.165035e-06,9,1
0.0003368721,-1.756482e-05,9,1
0.0003081865,-2.501983e-05,9,1
0.0003106175,-2.242678e-05,9,1
0.0003496752,-3.465141e-06,9,1
0.0004273046,2.927205e-05,9,1
0.0005392918,6.962632e-05,9,1
0.000666189,0.0001020394,9,1
0.0007689385,0.0001166253,9,1
0.0008065377,0.0001086841,9,1
0.0007647247,8.388807e-05,9,1
0.0006545202,5.552663e-05,9,1
0.0004987754,3.380988e-05,9,1
0.000324231,1.906194e-05,9,1
0.0001563313,1.193106e-05,9,1
2.214118e-05,9.338019e-06,9,1
-5.581224e-05,6.744974e-06,9,1
-7.347736e-05,6.420843e-06,9,1
-4.527799e-05,1.095867e-05,9,1
-1.844488e-06,1.9224e-05,9,1
1.290346e-05,3.105477e-05,9,1
-2.939559e-05,4.628891e-05,9,1
-0.0001284175,6.200925e-05,9,1
-0.0002530457,7.238143e-05,9,1
-0.0003579019,7.546067e-05,9,1
-0.000405225,7.157111e-05,9,1
-0.0003797808,6.281957e-05,9,1
-0.0003002067,5.082674e-05,9,1
-0.0002112329,4.239934e-05,9,1
-0.0001634236,4.142696e-05,9,1
-0.0001771992,4.628891e-05,9,1
-0.0002468872,5.098881e-05,9,1
-0.0003447747,4.855783e-05,9,1
-0.0004369898,3.526847e-05,9,1
-0.0004943609,1.484824e-05,9,1
-0.0005021401,-3.303076e-06,9,1
-0.000472158,-1.3027e-05,9,1
-0.0004327761,-1.189254e-05,9,1
-0.0004131662,-6.382317e-06,9,1
-0.0004259694,-4.437533e-06,9,1
-0.0004583824,-1.156841e-05,9,1
-0.0004865818,-2.226472e-05,9,1
-0.0004904714,-3.069211e-05,9,1
-0.0004661616,-3.539201e-05,9,1
-0.0004154351,-3.620233e-05,9,1
-0.0003483401,-3.539201e-05,9,1
-0.0002807589,-3.231277e-05,9,1
-0.0002329496,-2.712668e-05,9,1
-0.0002162569,-2.145439e-05,9,1
-0.0002235498,-1.934754e-05,9,1
-0.0002410529,-1.99958e-05,9,1
-0.0002540181,-2.177852e-05,9,1
-0.0002509389,-2.339918e-05,9,1
-0.0002293842,-2.226472e-05,9,1
-0.0001995642,-2.015787e-05,9,1
-0.0001760647,-1.788895e-05,9,1
-0.0001660166,-1.610624e-05,9,1
-0.000169258,-1.545797e-05,9,1
-0.000181737,-1.578211e-05,9,1
-0.000199078,-1.480971e-05,9,1
-0.0002177155,-1.772689e-05,9,1
-0.0002366771,-2.46957e-05,9,1
-0.0002549905,-3.571614e-05,9,1
-0.0002741142,-4.657452e-05,9,1
-0.0002903207,-5.095028e-05,9,1
-0.0002887001,-4.608832e-05,9,1
-0.0002520733,-3.393342e-05,9,1
-0.000169258,-1.772689e-05,9,1
-5.483985e-05,1.396819e-06,9,1
5.844381e-05,2.003433e-05,9,1
0.0001445005,3.510641e-05,9,1
0.0001960373,4.110282e-05,9,1
0.0002211574,4.158902e-05,9,1
0.0002334744,3.818565e-05,9,1
0.0002420638,3.526847e-05,9,1
0.0002472499,3.802358e-05,9,1
0.0002490327,5.098881e-05,9,1
0.0002517878,6.930219e-05,9,1
0.0002607014,8.84259e-05,9,1
0.0002720459,0.0001033359,9,1
0.0002760976,0.0001127357,9,1
0.0002629703,0.0001177597,9,1
0.0002247229,0.0001153287,9,1
0.0001696206,0.0001094944,9,1
0.0001151667,0.0001046324,9,1
7.853991e-05,0.0001064152,9,1
6.622294e-05,0.0001140322,9,1
7.497447e-05,0.0001219734,9,1
8.923623e-05,0.0001263492,9,1
8.696731e-05,0.0001224596,9,1
5.163707e-05,0.0001080358,9,1
-2.161646e-05,8.583286e-05,9,1
-0.0001144799,6.265751e-05,9,1
-0.0001903264,4.693717e-05,9,1
-0.0002182017,4.142696e-05,9,1
-0.0001872472,4.596478e-05,9,1
-0.0001070249,5.61749e-05,9,1
6.582909e-06,6.654708e-05,9,1
0.0001355869,7.286763e-05,9,1
0.0002551911,7.416415e-05,9,1
0.0003470822,7.254349e-05,9,1
0.0004005638,6.557468e-05,9,1
0.0004115842,5.763349e-05,9,1
0.0003827366,5.163707e-05,9,1
0.0003295791,4.790957e-05,9,1
0.0002735045,4.110282e-05,9,1
0.0002318537,3.18651e-05,9,1
0.0002065715,2.505836e-05,9,1
0.0001882582,2.165498e-05,9,1
0.0001710792,1.873781e-05,9,1
0.0001602208,1.59827e-05,9,1
0.0001736723,1.22552e-05,9,1
0.0002222919,6.90704e-06,9,1
0.0002911697,-1.844488e-06,9,1
0.0003582647,-1.059602e-05,9,1
0.0004044533,-2.031993e-05,9,1
0.000428277,-2.7937e-05,9,1
0.0004410801,-2.89094e-05,9,1
0.0004561522,-2.372331e-05,9,1
0.000477869,-1.707863e-05,9,1
0.0004966686,-1.059602e-05,9,1
0.0004945617,-3.627206e-06,9,1
0.0004470765,4.638125e-06,9,1
0.0003443271,9.66215e-06,9,1
0.0002033302,8.527692e-06,9,1
5.682316e-05,3.179537e-06,9,1
-6.877746e-05,-3.465141e-06,9,1
-0.0001605064,-8.975362e-06,9,1
-0.0002147983,-1.497178e-05,9,1
-0.0002350565,-2.485776e-05,9,1
-0.0002227395,-3.992984e-05,9,1
-0.0001804405,-5.759496e-05,9,1
-0.000117235,-7.023606e-05,9,1
-4.462973e-05,-7.299116e-05,9,1
2.441009e-05,-6.715681e-05,9,1
8.615699e-05,-5.69467e-05,9,1
0.0001454729,-4.576419e-05,9,1
0.0002073819,-3.847125e-05,9,1
0.0002655633,-3.63644e-05,9,1
0.0003102934,-3.992984e-05,9,1
0.0003282826,-4.462973e-05,9,1
0.0003136967,-4.446767e-05,9,1
0.0002678322,-3.604027e-05,9,1
0.00019782,-2.242678e-05,9,1
0.0001145184,-1.20546e-05,9,1
3.008238e-05,-8.002969e-06,9,1
-4.835724e-05,-8.165035e-06,9,1
-0.0001177212,-8.489166e-06,9,1
-0.0001773612,-2.81688e-06,9,1
-0.0002271153,6.420843e-06,9,1
-0.000273628,1.695509e-05,9,1
-0.0003254889,2.408596e-05,9,1
-0.0003820497,2.522042e-05,9,1
-0.0004332623,2.214118e-05,9,1
-0.0004677822,1.760335e-05,9,1
-0.0004825302,1.257933e-05,9,1
-0.0004742648,7.393236e-06,9,1
-0.0004368278,2.04508e-06,9,1
-0.000367788,-3.303076e-06,9,1
-0.0002682799,-6.544382e-06,9,1
-0.0001329553,-5.409925e-06,9,1
3.915804e-05,1.002961e-07,9,1
0.0002391467,6.90704e-06,9,1
0.0004367043,1.419998e-05,9,1
0.0005953664,2.197911e-05,9,1
0.0006843403,3.040651e-05,9,1
0.0006913091,3.640293e-05,9,1
0.0006256726,3.915804e-05,9,1
0.0005177371,4.515445e-05,9,1
0.0003947294,5.374392e-05,9,1
0.0002744769,5.747142e-05,9,1
0.0001620036,5.034055e-05,9,1
6.152305e-05,3.299956e-05,9,1
-2.356124e-05,1.338965e-05,9,1
-9.29252e-05,7.485573e-07,9,1
-0.0001431655,-2.006553e-06,9,1
-0.0001759026,3.179537e-06,9,1
-0.0001984297,1.290346e-05,9,1
-0.0002170672,2.197911e-05,9,1
-0.0002326255,2.862379e-05,9,1
-0.0002397564,3.397195e-05,9,1
-0.000231491,3.721326e-05,9,1
-0.0002097743,3.867184e-05,9,1
-0.0001846542,4.02925e-05,9,1
-0.0001671511,4.385793e-05,9,1
-0.0001650443,5.017848e-05,9,1
-0.0001799543,5.828175e-05,9,1
-0.0002105846,6.589881e-05,9,1
-0.0002543422,6.865393e-05,9,1
-0.0003000446,6.444023e-05,9,1
-0.0003397507,5.374392e-05,9,1
-0.000370543,4.256141e-05,9,1
-0.0003993907,3.672706e-05,9,1
-0.000435045,3.899597e-05,9,1
-0.0004854474,4.564065e-05,9,1
-0.0005424943,5.082674e-05,9,1
-0.0005927345,5.260946e-05,9,1
-0.0006194753,5.017848e-05,9,1
-0.0006152617,4.045456e-05,9,1
-0.0005770142,2.295151e-05,9,1
-0.0005026262,3.179537e-06,9,1
-0.0003964735,-1.399939e-05,9,1
-0.000273628,-2.664048e-05,9,1
-0.000164396,-3.522994e-05,9,1
-9.081835e-05,-3.555408e-05,9,1
-5.824322e-05,-2.518189e-05,9,1
-5.970181e-05,-6.868513e-06,9,1
-8.498399e-05,1.54965e-05,9,1
-0.0001229073,3.429608e-05,9,1
-0.0001626133,4.288554e-05,9,1
-0.0001932436,3.737532e-05,9,1
-0.0001974573,2.003433e-05,9,1
-0.0001645581,-1.034161e-06,9,1
-9.357346e-05,-1.853722e-05,9,1
5.934648e-06,-2.907146e-05,9,1
0.0001211631,-3.004385e-05,9,1
0.0002404432,-1.886135e-05,9,1
0.0003522683,-1.520357e-06,9,1
0.0004342734,1.59827e-05,9,1
0.0004619866,2.846173e-05,9,1
0.000425846,3.251336e-05,9,1
0.0003420582,2.943412e-05,9,1
0.0002381743,2.246531e-05,9,1
0.0001430419,1.112074e-05,9,1
7.772959e-05,-1.196227e-06,9,1
4.790957e-05,-1.075808e-05,9,1
4.466826e-05,-1.221667e-05,9,1
5.779555e-05,-4.761664e-06,9,1
8.405014e-05,6.90704e-06,9,1
0.0001203528,1.857574e-05,9,1
0.0001662173,2.505836e-05,9,1
0.0002206712,2.781346e-05,9,1
0.0002885766,3.008238e-05,9,1
0.0003684748,3.688912e-05,9,1
0.0004496696,4.790957e-05,9,1
0.0005190336,5.909208e-05,9,1
0.0005668429,6.865393e-05,9,1
0.0005815908,7.643307e-05,9,1
0.0005626292,7.90261e-05,9,1
0.0005195198,7.6271e-05,9,1
0.0004597176,7.043665e-05,9,1
0.0003939191,6.476436e-05,9,1
0.0003299033,5.909208e-05,9,1
0.0002710735,5.455425e-05,9,1
0.0002222919,5.341979e-05,9,1
0.0001863134,5.844381e-05,9,1
0.0001564933,7.173317e-05,9,1
0.0001229458,8.923623e-05,9,1
7.821578e-05,0.0001046324,9,1
2.927205e-05,0.0001101427,9,1
-8.165035e-06,0.0001041462,9,1
-2.501983e-05,8.858796e-05,9,1
-2.826114e-05,7.027458e-05,9,1
-2.728874e-05,5.179914e-05,9,1
-2.485776e-05,3.462021e-05,9,1
-1.578211e-05,1.987227e-05,9,1
7.069105e-06,1.290346e-05,9,1
4.207521e-05,1.419998e-05,9,1
7.416415e-05,2.149292e-05,9,1
8.810177e-05,3.202716e-05,9,1
7.173317e-05,4.175109e-05,9,1
1.857574e-05,5.19612e-05,9,1
-6.569822e-05,6.200925e-05,9,1
-0.0001661787,7.108491e-05,9,1
-0.0002635799,7.67572e-05,9,1
-0.0003407231,7.562274e-05,9,1
-0.0003867496,6.573675e-05,9,1
-0.0003982562,4.82337e-05,9,1
-0.000377836,2.959619e-05,9,1
-0.0003376438,1.582063e-05,9,1
-0.0002929138,4.47606e-06,9,1
-0.0002579077,-8.651231e-06,9,1
-0.0002342462,-2.712668e-05,9,1
-0.0002182017,-5.062615e-05,9,1
-0.0002031296,-7.785312e-05,9,1
-0.0001874093,-0.0001031353,9,1
-0.000176875,-0.0001209625,9,1
-0.000176875,-0.000127283,9,1
-0.0001869231,-0.0001238797,9,1
-0.0002029675,-0.0001112386,9,1
-0.0002151224,-9.260107e-05,9,1
-0.0002138259,-7.088431e-05,9,1
-0.0001972953,-5.305713e-05,9,1
-0.0001608306,-4.495386e-05,9,1
-8.871149e-05,-4.560212e-05,9,1
4.272347e-05,-4.819517e-05,9,1
0.0002441707,-5.046408e-05,9,1
0.0004943996,-5.386745e-05,9,1
0.0007467355,-5.662256e-05,9,1
0.0009447795,-5.613637e-05,9,1
0.001042505,-4.819517e-05,9,1
0.001029216,-3.198864e-05,9,1
0.000926142,-1.318906e-05,9,1
0.0007729901,1.234753e-06,9,1
0.0006115729,6.420843e-06,9,1
0.0004696036,4.962256e-06,9,1
0.0003592371,2.04508e-06,9,1
0.0002736666,-2.238346e-07,9,1
0.0001994406,-4.275467e-06,9,1
0.0001245665,-1.448558e-05,9,1
4.531652e-05,-3.26369e-05,9,1
-2.923353e-05,-5.257093e-05,9,1
-8.676672e-05,-6.618442e-05,9,1
-0.00012469,-6.942573e-05,9,1
-0.0001455964,-6.423963e-05,9,1
-0.0001558065,-5.192267e-05,9,1
-0.0001608306,-3.474375e-05,9,1
-0.0001632615,-1.545797e-05,9,1
-0.0001695821,1.883015e-06,9,1
-0.000184168,1.727922e-05,9,1
-0.0002071812,3.121684e-05,9,1
-0.0002347323,4.580272e-05,9,1
-0.000261311,5.860588e-05,9,1
-0.0002771934,6.03886e-05,9,1
-0.0002752487,5.082674e-05,9,1
-0.0002554767,3.915804e-05,9,1
-0.0002225774,2.894792e-05,9,1
-0.0001801163,1.97102e-05,9,1
-0.0001381414,1.193106e-05,9,1
-0.0001105903,1.160693e-05,9,1
-0.0001011905,1.987227e-05,9,1
-0.000104756,3.494434e-05,9,1
-0.0001159385,5.082674e-05,9,1
-0.0001306864,6.557468e-05,9,1
-0.0001410586,7.983644e-05,9,1
-0.0001426792,9.16672e-05,9,1
-0.0001329553,9.377406e-05,9,1
-0.0001114006,8.259155e-05,9,1
-8.141856e-05,6.46023e-05,9,1
-4.90055e-05,4.612685e-05,9,1
-2.307504e-05,3.170304e-05,9,1
-1.20546e-05,2.39239e-05,9,1
-2.064406e-05,2.376183e-05,9,1
-4.80331e-05,3.445814e-05,9,1
-8.012204e-05,5.374392e-05,9,1
-9.730096e-05,7.886404e-05,9,1
-8.271508e-05,0.0001039842,9,1
-3.150244e-05,0.0001252147,9,1
4.920609e-05,0.0001398006,9,1
0.0001373696,0.000145635,9,1
0.0002059233,0.0001420695,9,1
0.0002389846,0.0001351007,9,1
0.0002380122,0.0001287802,9,1
0.0002188885,0.0001224596,9,1
0.0001918236,0.0001145184,9,1
0.0001487142,0.0001080358,9,1
8.340187e-05,0.0001039842,9,1
2.04508e-06,0.0001025256,9,1
-7.866345e-05,0.0001033359,9,1
-0.0001366828,0.0001049566,9,1
-0.000166827,0.0001023635,9,1
-0.0001778474,9.620504e-05,9,1
-0.0001833576,8.907416e-05,9,1
-0.0001994021,8.42122e-05,9,1
-0.0002371633,7.951231e-05,9,1
-0.0002979378,7.335383e-05,9,1
-0.0003621157,6.087479e-05,9,1
-0.0003964735,4.288554e-05,9,1
-0.0003664914,2.246531e-05,9,1
-0.0002616352,3.179537e-06,9,1
-0.0001086455,-9.461558e-06,9,1
3.867184e-05,-1.140634e-05,9,1
0.0001268354,-8.720959e-07,9,1
0.000135911,1.59827e-05,9,1
8.275361e-05,2.862379e-05,9,1
3.503668e-06,2.538249e-05,9,1
-6.796714e-05,2.207145e-06,9,1
-0.0001112386,-3.328516e-05,9,1
-0.0001300382,-6.48879e-05,9,1
-0.000147055,-8.530812e-05,9,1
-0.0001840059,-9.017008e-05,9,1
-0.0002459149,-8.190475e-05,9,1
-0.0003203028,-6.699475e-05,9,1
-0.000387722,-5.208474e-05,9,1
-0.0004306693,-4.203669e-05,9,1
-0.000439907,-3.539201e-05,9,1
-0.0004130042,-3.198864e-05,9,1
-0.0003519055,-3.134038e-05,9,1
-0.0002677937,-3.425755e-05,9,1
-0.0001831956,-4.187462e-05,9,1
-0.0001219349,-5.370539e-05,9,1
-9.211487e-05,-6.715681e-05,9,1
-8.271508e-05,-7.817725e-05,9,1
-7.866345e-05,-8.158062e-05,9,1
-7.315322e-05,-7.785312e-05,9,1
-7.088431e-05,-6.991193e-05,9,1
-7.817725e-05,-6.06742e-05,9,1
-8.968389e-05,-4.754691e-05,9,1
-9.308726e-05,-2.680255e-05,9,1
-7.120844e-05,-2.978945e-06,9,1
-1.092015e-05,1.760335e-05,9,1
8.696731e-05,2.927205e-05,9,1
0.0001965235,3.218923e-05,9,1
0.0002798251,3.154097e-05,9,1
0.0003098072,3.348575e-05,9,1
0.0002825802,4.191315e-05,9,1
0.0002187264,5.61749e-05,9,1
0.0001477418,6.930219e-05,9,1
0.0001000946,7.57848e-05,9,1
0.0001156529,7.951231e-05,9,1
0.0002268297,8.486046e-05,9,1
0.0004320045,9.004655e-05,9,1
0.0006739681,9.199134e-05,9,1
0.0008807636,9.296373e-05,9,1
0.0009979371,9.620504e-05,9,1
0.001018357,0.0001039842,9,1
0.0009666584,0.0001103047,9,1
0.0008783326,0.0001094944,9,1
0.000780121,9.733949e-05,9,1
0.0006857989,7.562274e-05,9,1
0.0006047662,4.871989e-05,9,1
0.0005478812,2.505836e-05,9,1
0.0005234093,7.069105e-06,9,1
0.0005332953,-6.544382e-06,9,1
0.000569598,-1.934754e-05,9,1
0.0006214589,-2.826114e-05,9,1
0.0006757508,-3.21507e-05,9,1
0.0007222636,-3.21507e-05,9,1
0.0007535422,-2.988179e-05,9,1
0.0007631041,-2.275091e-05,9,1
0.0007493285,-1.367526e-05,9,1
0.000720643,-6.868513e-06,9,1
0.0006830437,-3.303076e-06,9,1
0.0006281036,-3.303076e-06,9,1
0.0005418848,-6.544382e-06,9,1
0.0004182289,-1.140634e-05,9,1
0.0002585945,-1.724069e-05,9,1
7.448828e-05,-2.177852e-05,9,1
-0.0001162626,-2.372331e-05,9,1
-0.0002919414,-2.226472e-05,9,1
-0.0004382863,-1.740276e-05,9,1
-0.0005478425,-1.20546e-05,9,1
-0.0006251476,-8.975362e-06,9,1
-0.000678305,-1.043395e-05,9,1
-0.000713149,-1.432352e-05,9,1
-0.0007296797,-1.99958e-05,9,1
-0.0007215765,-2.923353e-05,9,1
-0.0006817085,-4.122636e-05,9,1
-0.000621258,-5.159854e-05,9,1
-0.0005635628,-5.69467e-05,9,1
-0.0005348772,-5.581224e-05,9,1
-0.0005502735,-4.85193e-05,9,1
-0.0006044033,-3.798505e-05,9,1
-0.0006766844,-2.7937e-05,9,1
-0.000745238,-2.291298e-05,9,1
-0.0007941817,-2.42095e-05,9,1
-0.0008204363,-2.923353e-05,9,1
-0.0008285395,-3.247483e-05,9,1
-0.0008205983,-3.587821e-05,9,1
-0.0007896438,-4.041603e-05,9,1
-0.0007220627,-4.365734e-05,9,1
-0.0006073205,-4.706071e-05,9,1
-0.0004476861,-5.078821e-05,9,1
-0.0002645523,-5.370539e-05,9,1
-0.0001039456,-5.532604e-05,9,1
-1.480971e-05,-5.678463e-05,9,1
-1.237873e-05,-5.840528e-05,9,1
-7.104638e-05,-5.872941e-05,9,1
-0.0001413827,-5.581224e-05,9,1
-0.00018433,-4.949169e-05,9,1
-0.0001833576,-4.511593e-05,9,1
-0.0001400862,-4.495386e-05,9,1
-6.748094e-05,-4.592625e-05,9,1
1.193106e-05,-4.333321e-05,9,1
7.610894e-05,-3.458168e-05,9,1
0.0001088461,-2.09682e-05,9,1
0.0001107909,-4.599598e-06,9,1
8.923623e-05,1.209313e-05,9,1
5.779555e-05,2.878586e-05,9,1
2.959619e-05,4.369587e-05,9,1
1.59827e-05,5.050261e-05,9,1
2.489629e-05,4.953022e-05,9,1
5.601284e-05,4.742337e-05,9,1
0.0001103047,4.72613e-05,9,1
0.0001863134,4.82337e-05,9,1
0.0002757735,4.742337e-05,9,1
0.0003671783,4.77475e-05,9,1
0.0004469145,5.277153e-05,9,1
0.0004963444,6.379197e-05,9,1
0.0005018546,7.821578e-05,9,1
0.0004626348,9.037068e-05,9,1
0.0003880847,9.68533e-05,9,1
0.0002937627,0.0001004187,9,1
0.0002021958,0.0001031738,9,1
0.0001316974,0.0001028497,9,1
8.599492e-05,0.0001031738,9,1
5.714729e-05,0.0001070634,9,1
3.55926e-05,0.0001150046,9,1
1.436204e-05,0.0001222976,9,1
-5.57199e-06,0.0001265113,9,1
-1.545797e-05,0.0001255389,9,1
-3.465141e-06,0.000120839,9,1
2.797553e-05,0.0001175977,9,1
6.687121e-05,0.0001154908,9,1
0.0001002567,0.000113384,9,1
0.0001164632,0.0001125736,9,1
0.0001054428,0.0001120874,9,1
6.589881e-05,0.0001137081,9,1
3.665733e-06,0.0001163011,9,1
-6.731888e-05,0.0001185701,9,1
-0.000134576,0.0001200286,9,1
-0.0001885437,0.0001195424,9,1
-0.0002293842,0.0001150046,9,1
-0.0002575835,0.0001039842,9,1
-0.0002776796,8.826383e-05,9,1
-0.000293562,7.432621e-05,9,1
-0.0003027998,6.670914e-05,9,1
-0.0003019894,6.606088e-05,9,1
-0.000288538,6.557468e-05,9,1
-0.0002616352,5.925414e-05,9,1
-0.0002206326,5.1475e-05,9,1
-0.0001697442,4.758544e-05,9,1
-0.0001177212,5.098881e-05,9,1
-6.91016e-05,5.52025e-05,9,1
-2.923353e-05,5.487838e-05,9,1
2.623614e-07,4.790957e-05,9,1
1.906194e-05,3.154097e-05,9,1
2.975825e-05,8.365628e-06,9,1
3.332369e-05,-1.335113e-05,9,1
2.943412e-05,-2.826114e-05,9,1
2.635488e-05,-3.004385e-05,9,1
3.218923e-05,-1.788895e-05,9,1
5.19612e-05,4.151929e-06,9,1
8.145709e-05,2.716521e-05,9,1
0.0001101427,4.094075e-05,9,1
0.0001310491,3.494434e-05,9,1
0.0001487142,9.500085e-06,9,1
0.0001749688,-2.226472e-05,9,1
0.0002159713,-4.349527e-05,9,1
0.0002644289,-4.317115e-05,9,1
0.0003041349,-1.983374e-05,9,1
0.0003183966,1.355172e-05,9,1
0.000304297,3.656499e-05,9,1
0.0002799871,3.640293e-05,9,1
0.0002751252,1.322759e-05,9,1
0.0003047831,-2.275091e-05,9,1
0.0003665301,-5.629844e-05,9,1
0.0004446456,-7.914964e-05,9,1
0.0005242196,-9.017008e-05,9,1
0.000591801,-9.146661e-05,9,1
0.000624214,-8.676672e-05,9,1
0.0005913147,-7.882551e-05,9,1
0.0004841895,-6.667062e-05,9,1
0.0003279585,-5.565017e-05,9,1
0.0001665414,-4.754691e-05,9,1
3.721326e-05,-4.641245e-05,9,1
-4.284701e-05,-4.997789e-05,9,1
-7.785312e-05,-5.59743e-05,9,1
-8.044617e-05,-5.775702e-05,9,1
-6.974985e-05,-5.22468e-05,9,1
-6.407757e-05,-4.187462e-05,9,1
-7.720486e-05,-2.858527e-05,9,1
-0.0001057284,-1.950961e-05,9,1
-0.0001327933,-1.497178e-05,9,1
-0.000142031,-1.043395e-05,9,1
-0.0001229073,-1.844488e-06,9,1
-6.39155e-05,1.322759e-05,9,1
3.040651e-05,3.510641e-05,9,1
0.000135749,5.99024e-05,9,1
0.000217754,8.275361e-05,9,1
0.0002568118,9.782569e-05,9,1
0.0002550291,0.0001072255,9,1
0.0002297469,0.0001172735,9,1
0.0002007372,0.0001329939,9,1
0.0001715654,0.0001503349,9,1
0.0001334801,0.0001603829,9,1
8.615699e-05,0.0001521176,9,1
5.179914e-05,0.0001248906,9,1
6.265751e-05,8.729144e-05,9,1
0.0001329939,5.439218e-05,9,1
0.0002354192,3.413401e-05,9,1
0.0003140208,2.959619e-05,9,1
0.0003230965,3.769945e-05,9,1
0.000250005,5.034055e-05,9,1
0.0001224596,5.844381e-05,9,1
-9.623623e-06,5.633696e-05,9,1
-0.0001041077,4.953022e-05,9,1
-0.0001491618,4.483033e-05,9,1
-0.0001598582,4.661304e-05,9,1
-0.0001579134,5.61749e-05,9,1
-0.0001603444,7.059871e-05,9,1
-0.0001749302,8.518459e-05,9,1
-0.0001995642,9.409818e-05,9,1
-0.0002253326,9.296373e-05,9,1
-0.0002498044,8.42122e-05,9,1
-0.0002697385,7.221937e-05,9,1
-0.000283514,6.071273e-05,9,1
-0.0002938862,4.936815e-05,9,1
-0.0003063652,3.769945e-05,9,1
-0.0003199787,2.651694e-05,9,1
-0.0003311612,1.889987e-05,9,1
-0.0003384541,1.679302e-05,9,1
-0.0003442885,1.452411e-05,9,1
-0.0003517435,8.041497e-06,9,1
-0.0003601709,-6.544382e-06,9,1
-0.000365519,-2.615429e-05,9,1
-0.0003645466,-4.333321e-05,9,1
-0.0003608192,-5.338126e-05,9,1
-0.0003561192,-5.32192e-05,9,1
-0.0003528779,-5.159854e-05,9,1
-0.0003438023,-5.662256e-05,9,1
-0.0003112272,-7.315322e-05,9,1
-0.0002397564,-9.730096e-05,9,1
-0.0001293899,-0.000119828,9,1
2.693341e-06,-0.0001300382,9,1
0.0001253768,-0.0001240417,9,1
0.0002055991,-0.0001042698,9,1
0.0002221298,-7.833932e-05,9,1
0.0001801549,-5.759496e-05,9,1
0.0001094944,-4.835724e-05,9,1
3.948217e-05,-5.192267e-05,9,1
-1.140634e-05,-6.278104e-05,9,1
-3.782299e-05,-7.23429e-05,9,1
-3.928157e-05,-7.444975e-05,9,1
-1.707863e-05,-6.521203e-05,9,1
2.667901e-05,-5.176061e-05,9,1
8.729144e-05,-4.155049e-05,9,1
0.0001503349,-3.620233e-05,9,1
0.0001961994,-3.296103e-05,9,1
0.0002128921,-3.020592e-05,9,1
0.0002018716,-2.89094e-05,9,1
0.0001739964,-2.955766e-05,9,1
0.0001474177,-3.441962e-05,9,1
0.0001295905,-4.05781e-05,9,1
0.0001148425,-4.05781e-05,9,1
9.296373e-05,-3.150244e-05,9,1
5.277153e-05,-1.140634e-05,9,1
-1.497178e-05,1.484824e-05,9,1
-0.0001068628,4.223728e-05,9,1
-0.0002068571,6.055066e-05,9,1
-0.0002961551,6.281957e-05,9,1
-0.0003614674,5.244739e-05,9,1
-0.0003967976,3.93201e-05,9,1
-0.0003997148,2.748934e-05,9,1
-0.0003647087,1.825161e-05,9,1
-0.0002888622,9.824215e-06,9,1
-0.0001822232,1.720949e-06,9,1
-7.072225e-05,-1.682422e-06,9,1
1.59827e-05,5.124321e-06,9,1
5.374392e-05,2.39239e-05,9,1
4.256141e-05,5.050261e-05,9,1
-3.951337e-06,7.886404e-05,9,1
-6.650855e-05,0.0001041462,9,1
-0.0001314967,0.0001203528,9,1
-0.0001814128,0.0001257009,9,1
-0.00019924,0.0001190562,9,1
-0.0001686097,0.0001033359,9,1
-8.44978e-05,8.502253e-05,9,1
4.110282e-05,7.367795e-05,9,1
0.0001902029,7.20573e-05,9,1
0.0003478926,7.918817e-05,9,1
0.0005096338,8.615699e-05,9,1
0.0006746164,8.648112e-05,9,1
0.0008402473,7.999851e-05,9,1
0.0009993956,7.270556e-05,9,1
0.001137151,6.83298e-05,9,1
0.001235039,6.978839e-05,9,1
0.00128301,7.254349e-05,9,1
0.001275231,7.400208e-05,9,1
0.001211701,7.384002e-05,9,1
0.001093069,7.238143e-05,9,1
0.0009276005,6.670914e-05,9,1
0.0007349047,5.795762e-05,9,1
0.0005319988,4.920609e-05,9,1
0.0003331446,4.596478e-05,9,1
0.0001474177,5.115087e-05,9,1
-1.643037e-05,6.379197e-05,9,1
-0.0001567789,7.384002e-05,9,1
-0.0002746004,7.20573e-05,9,1
-0.0003685983,5.747142e-05,9,1
-0.0004334244,3.705119e-05,9,1
-0.000462272,1.679302e-05,9,1
-0.000454817,5.448452e-06,9,1
-0.0004235384,6.258778e-06,9,1
-0.0003906392,1.501031e-05,9,1
-0.0003750809,2.538249e-05,9,1
-0.0003801049,3.202716e-05,9,1
-0.0004014975,2.910999e-05,9,1
-0.0004269418,1.322759e-05,9,1
-0.0004347209,-8.327101e-06,9,1
-0.0004193247,-2.745081e-05,9,1
-0.0004016596,-4.090223e-05,9,1
-0.0004167317,-5.143648e-05,9,1
-0.0004763717,-6.229485e-05,9,1
-0.0005643732,-7.444975e-05,9,1
-0.0006457299,-8.498399e-05,9,1
-0.0006734431,-9.114248e-05,9,1
-0.000606348,-9.211487e-05,9,1
-0.0004353692,-8.871149e-05,9,1
-0.0001882196,-8.109443e-05,9,1
6.978839e-05,-7.315322e-05,9,1
0.0002764217,-7.218083e-05,9,1
0.0004000776,-7.752899e-05,9,1
0.000440756,-8.222889e-05,9,1
0.0004162841,-8.40116e-05,9,1
0.0003517821,-8.239095e-05,9,1
0.0002691288,-8.044617e-05,9,1
0.0001850168,-8.109443e-05,9,1
0.0001128978,-8.287715e-05,9,1
5.779555e-05,-8.222889e-05,9,1
1.776542e-05,-7.801519e-05,9,1
-1.189254e-05,-7.072225e-05,9,1
-3.701266e-05,-6.44017e-05,9,1
-6.180866e-05,-6.06742e-05,9,1
-8.838737e-05,-5.921561e-05,9,1
-0.0001191798,-5.581224e-05,9,1
-0.0001556445,-4.85193e-05,9,1
-0.0001985918,-3.863332e-05,9,1
-0.0002455907,-2.615429e-05,9,1
-0.0002904828,-1.578211e-05,9,1
-0.0003201407,-9.137427e-06,9,1
-0.0003230579,-7.516774e-06,9,1
-0.0002993964,-8.975362e-06,9,1
-0.0002668213,-7.030578e-06,9,1
-0.0002452666,1.883015e-06,9,1
-0.0002399184,1.825161e-05,9,1
-0.000246401,4.547859e-05,9,1
-0.0002575835,8.145709e-05,9,1
-0.0002656868,0.0001182459,9,1
-0.0002724935,0.0001433661,9,1
-0.0002818933,0.0001501728,9,1
-0.0002938862,0.0001402868,9,1
-0.0003016653,0.0001219734,9,1
-0.0002990722,0.0001028497,9,1
-0.0002783279,8.79397e-05,9,1
-0.0002350565,8.178122e-05,9,1
-0.0001737958,8.113296e-05,9,1
-0.0001050801,7.853991e-05,9,1
-4.414354e-05,7.059871e-05,9,1
-6.706447e-06,6.281957e-05,9,1
9.338019e-06,6.41161e-05,9,1
1.97102e-05,7.724339e-05,9,1
4.35338e-05,9.750156e-05,9,1
9.798775e-05,0.0001166253,9,1
0.0001921477,0.0001278078,9,1
0.0003226103,0.000130887,9,1
0.0004801379,0.0001302388,9,1
0.000648848,0.0001316974,9,1
0.0007969757,0.0001365593,9,1
0.000879143,0.0001417454,9,1
0.0008635847,0.0001412592,9,1
0.0007661834,0.0001320215,9,1
0.0006404206,0.0001120874,9,1
0.0005386435,8.550872e-05,9,1
0.0004764104,6.136099e-05,9,1
0.0004328148,4.920609e-05,9,1
0.0003858158,5.212327e-05,9,1
0.0003300653,6.622294e-05,9,1
0.0002777182,8.016057e-05,9,1
0.0002372019,8.291568e-05,9,1
0.0002065715,7.367795e-05,9,1
0.0001718896,5.876794e-05,9,1
0.0001201907,4.402e-05,9,1
4.483033e-05,3.624086e-05,9,1
-4.47918e-05,3.672706e-05,9,1
-0.0001298761,4.223728e-05,9,1
-0.0001964849,4.483033e-05,9,1
-0.0002397564,4.045456e-05,9,1
-0.0002656868,2.878586e-05,9,1
-0.0002854588,8.689758e-06,9,1
-0.0003049066,-1.659243e-05,9,1
-0.000318358,-4.187462e-05,9,1
-0.0003173856,-6.375344e-05,9,1
-0.000300855,-7.817725e-05,9,1
-0.0002689281,-8.725291e-05,9,1
-0.0002274394,-9.681477e-05,9,1
-0.0001914609,-0.0001089697,9,1
-0.0001731475,-0.0001152902,9,1
-0.0001684476,-0.0001088076,9,1
-0.0001666649,-9.081835e-05,9,1
-0.0001588858,-6.553616e-05,9,1
-0.0001423551,-3.733679e-05,9,1
-0.0001193418,-1.480971e-05,9,1
-9.778715e-05,-6.544382e-06,9,1
-7.688073e-05,-8.975362e-06,9,1
-4.868137e-05,-1.643037e-05,9,1
-6.058186e-06,-2.356124e-05,9,1
4.661304e-05,-2.518189e-05,9,1
8.988449e-05,-2.242678e-05,9,1
9.977047e-05,-1.886135e-05,9,1
7.157111e-05,-1.918548e-05,9,1
2.165498e-05,-2.307504e-05,9,1
-2.680255e-05,-2.84232e-05,9,1
-5.629844e-05,-3.441962e-05,9,1
-6.180866e-05,-4.252288e-05,9,1
-4.462973e-05,-5.078821e-05,9,1
-1.059602e-05,-5.678463e-05,9,1
3.008238e-05,-5.483985e-05,9,1
6.914012e-05,-4.009191e-05,9,1
9.766362e-05,-1.724069e-05,9,1
0.0001120874,7.555301e-06,9,1
0.0001154908,2.992031e-05,9,1
0.000115977,4.531652e-05,9,1
0.0001211631,4.936815e-05,9,1
0.0001315353,4.612685e-05,9,1
0.0001453108,4.175109e-05,9,1
0.0001543865,4.45062e-05,9,1
0.0001511452,5.374392e-05,9,1
0.0001339663,6.703327e-05,9,1
0.0001077117,8.032264e-05,9,1
7.90261e-05,8.858796e-05,9,1
5.001642e-05,9.069481e-05,9,1
2.262738e-05,8.939829e-05,9,1
1.558884e-06,8.696731e-05,9,1
-7.192643e-06,8.583286e-05,9,1
-6.176923e-08,8.46984e-05,9,1
1.808955e-05,8.340187e-05,9,1
3.753739e-05,7.935024e-05,9,1
4.547859e-05,7.416415e-05,9,1
4.077869e-05,6.816773e-05,9,1
3.462021e-05,6.298164e-05,9,1
3.429608e-05,6.298164e-05,9,1
3.478228e-05,7.140904e-05,9,1
2.878586e-05,8.599492e-05,9,1
1.695509e-05,9.847395e-05,9,1
4.80019e-06,0.0001017153,9,1
-6.220252e-06,9.16672e-05,9,1
-2.080613e-05,6.962632e-05,9,1
-5.451572e-05,4.126489e-05,9,1
-0.0001165867,1.501031e-05,9,1
-0.0001888679,-3.627206e-06,9,1
-0.0002350565,-8.975362e-06,9,1
-0.0002266291,-6.382317e-06,9,1
-0.0001621271,-1.844488e-06,9,1
-6.602235e-05,-2.238346e-07,9,1
2.910999e-05,-6.058186e-06,9,1
9.555677e-05,-1.869928e-05,9,1
0.0001163011,-3.036798e-05,9,1
8.712937e-05,-3.571614e-05,9,1
2.052053e-05,-3.587821e-05,9,1
-5.419158e-05,-3.830919e-05,9,1
-0.0001045939,-4.625038e-05,9,1
-0.0001088076,-5.613637e-05,9,1
-6.796714e-05,-6.051213e-05,9,1
-6.544382e-06,-5.59743e-05,9,1
4.693717e-05,-4.414354e-05,9,1
7.448828e-05,-3.117831e-05,9,1
7.886404e-05,-1.983374e-05,9,1
6.978839e-05,-1.043395e-05,9,1
5.423012e-05,-7.100305e-07,9,1
3.705119e-05,7.555301e-06,9,1
2.052053e-05,1.144487e-05,9,1
5.286387e-06,8.527692e-06,9,1
-4.437533e-06,2.369211e-06,9,1
-3.303076e-06,2.623614e-07,9,1
7.393236e-06,2.855407e-06,9,1
2.278944e-05,8.041497e-06,9,1
3.624086e-05,1.031041e-05,9,1
4.466826e-05,7.717366e-06,9,1
5.017848e-05,-2.654814e-06,9,1
5.487838e-05,-1.772689e-05,9,1
5.649903e-05,-3.409549e-05,9,1
5.974033e-05,-4.252288e-05,9,1
6.622294e-05,-4.333321e-05,9,1
7.951231e-05,-3.604027e-05,9,1
9.766362e-05,-2.031993e-05,9,1
0.0001153287,1.720949e-06,9,1
0.0001255389,2.327564e-05,9,1
0.0001297526,3.478228e-05,9,1
0.0001281319,3.364782e-05,9,1
0.000121001,2.408596e-05,9,1
0.0001078737,1.144487e-05,9,1
8.923623e-05,-6.176923e-08,9,1
6.946425e-05,-6.706447e-06,9,1
5.552663e-05,-6.868513e-06,9,1
4.871989e-05,-2.492749e-06,9,1
4.564065e-05,4.151929e-06,9,1
3.915804e-05,1.257933e-05,9,1
2.278944e-05,2.165498e-05,9,1
-2.492749e-06,3.121684e-05,9,1
-3.069211e-05,3.93201e-05,9,1
-5.727083e-05,4.402e-05,9,1
-7.833932e-05,4.645098e-05,9,1
-9.146661e-05,5.017848e-05,9,1
-0.0001052422,5.649903e-05,9,1
-0.0001310105,6.41161e-05,9,1
-0.0001734716,6.800567e-05,9,1
-0.0002337599,6.541262e-05,9,1
-0.0003076617,5.925414e-05,9,1
-0.0003841565,5.131294e-05,9,1
-0.0004408794,4.272347e-05,9,1
-0.0004559515,3.283749e-05,9,1
-0.0004280762,2.262738e-05,9,1
-0.0003770257,1.436204e-05,9,1
-0.0003284061,1.014835e-05,9,1
-0.0003003688,1.371378e-05,9,1
-0.0002945344,2.489629e-05,9,1
-0.0002917793,3.98063e-05,9,1
-0.0002572594,5.293359e-05,9,1
-0.0001663408,5.909208e-05,9,1
-2.453363e-05,5.56887e-05,9,1
0.0001331559,4.483033e-05,9,1
0.0002728562,2.910999e-05,9,1
0.0003833848,1.711715e-05,9,1
0.000480462,1.711715e-05,9,1
0.0005877494,3.008238e-05,9,1
0.0007112432,4.904402e-05,9,1
0.0008383025,6.395404e-05,9,1
0.0009515863,7.059871e-05,9,1
0.001045584,6.930219e-05,9,1
0.001141527,6.395404e-05,9,1
0.001270693,5.844381e-05,9,1
0.001446372,5.649903e-05,9,1
0.001644579,5.893001e-05,9,1
0.0018047,6.476436e-05,9,1
0.001859802,7.335383e-05,9,1
0.001763049,8.453633e-05,9,1
0.001511037,9.31258e-05,9,1
0.001138448,9.231547e-05,9,1
0.0007096225,8.145709e-05,9,1
0.0002858215,6.573675e-05,9,1
-8.628052e-05,4.77475e-05,9,1
-0.0003857772,2.910999e-05,9,1
-0.0006134789,1.322759e-05,9,1
-0.0007817027,5.934648e-06,9,1
-0.0009037378,9.986281e-06,9,1
-0.0009852567,2.359977e-05,9,1
-0.001033714,3.996837e-05,9,1
-0.001059645,5.666109e-05,9,1
-0.001065965,7.092284e-05,9,1
-0.001044897,7.951231e-05,9,1
-0.0009768293,7.367795e-05,9,1
-0.000844584,5.066468e-05,9,1
-0.000646054,1.906194e-05,9,1
-0.0004227281,-6.706447e-06,9,1
-0.0002452666,-2.129233e-05,9,1
-0.0001724993,-2.826114e-05,9,1
-0.0002149604,-3.522994e-05,9,1
-0.0003264613,-4.657452e-05,9,1
-0.0004441207,-6.48879e-05,9,1
-0.0005236948,-8.530812e-05,9,1
-0.0005531906,-0.0001016767,9,1
-0.0005447632,-0.0001070249,9,1
-0.0005259637,-0.0001021629,9,1
-0.0005214258,-8.887356e-05,9,1
-0.0005373082,-7.509801e-05,9,1
-0.000571504,-6.650855e-05,9,1
-0.0006069963,-6.326724e-05,9,1
-0.0006225546,-6.39155e-05,9,1
-0.0006040792,-6.407757e-05,9,1
-0.0005449253,-6.310517e-05,9,1
-0.0004585445,-5.824322e-05,9,1
-0.0003750809,-4.981582e-05,9,1
-0.0003225718,-4.025397e-05,9,1
-0.0003100927,-3.328516e-05,9,1
-0.0003203028,-3.21507e-05,9,1
-0.000325651,-3.26369e-05,9,1
-0.00030831,-3.182657e-05,9,1
-0.0002579077,-2.761287e-05,9,1
-0.0001715269,-1.934754e-05,9,1
-5.532604e-05,-8.327101e-06,9,1
7.52986e-05,-7.100305e-07,9,1
0.0002090025,4.962256e-06,9,1
0.0003435168,1.582063e-05,9,1
0.0004668485,3.413401e-05,9,1
0.0005527431,5.714729e-05,9,1
0.0005814288,8.064677e-05,9,1
0.0005469088,9.928428e-05,9,1
0.0004702519,0.0001104668,9,1
0.0003804677,0.000113384,9,1
0.0002968419,0.0001086841,9,1
0.0002271538,0.0001000946,9,1
0.0001762653,9.26396e-05,9,1
0.0001420695,8.648112e-05,9,1
0.0001200286,7.999851e-05,9,1
0.0001145184,7.076078e-05,9,1
0.0001321835,5.94162e-05,9,1
0.0001743205,5.439218e-05,9,1
0.0002303951,6.184718e-05,9,1
0.0002791768,8.097089e-05,9,1
0.0003055935,0.0001054428,9,1
0.0003055935,0.0001269974,9,1
0.0002829043,0.0001389903,9,1
0.0002422259,0.0001393144,9,1
0.0001913374,0.000130725,9,1
0.0001336421,0.0001200286,9,1
7.076078e-05,0.0001112771,9,1
1.095867e-05,0.0001039842,9,1
-3.604027e-05,9.912221e-05,9,1
-6.699475e-05,9.717743e-05,9,1
-8.871149e-05,9.733949e-05,9,1
-0.000107349,9.879808e-05,9,1
-0.0001225832,9.555677e-05,9,1
-0.0001258245,8.631905e-05,9,1
-0.0001062146,7.108491e-05,9,1
-6.342931e-05,4.985435e-05,9,1
-1.124428e-05,2.846173e-05,9,1
3.251336e-05,1.630683e-05,9,1
5.471631e-05,1.403791e-05,9,1
5.423012e-05,1.760335e-05,9,1
3.98063e-05,1.889987e-05,9,1
2.052053e-05,1.64689e-05,9,1
-1.520357e-06,1.306552e-05,9,1
-2.453363e-05,1.193106e-05,9,1
-4.625038e-05,1.484824e-05,9,1
-6.553616e-05,1.9224e-05,9,1
-8.40116e-05,2.214118e-05,9,1
-0.0001041077,2.246531e-05,9,1
-0.0001334415,1.97102e-05,9,1
-0.0001818991,1.484824e-05,9,1
-0.0002504527,1.112074e-05,9,1
-0.0003374817,5.772582e-06,9,1
-0.0004434724,-5.247859e-06,9,1
-0.0005629146,-2.0482e-05,9,1
-0.0006680949,-3.668853e-05,9,1
-0.0007264384,-5.013995e-05,9,1
-0.0007142835,-5.467778e-05,9,1
-0.0006319543,-4.754691e-05,9,1
-0.0005058676,-3.26369e-05,9,1
-0.0003643846,-1.707863e-05,9,1
-0.0002229016,-1.027188e-05,9,1
-9.568031e-05,-1.480971e-05,9,1
-5.734056e-06,-3.020592e-05,9,1
2.214118e-05,-5.046408e-05,9,1
-1.610624e-05,-7.266703e-05,9,1
-9.762509e-05,-9.470791e-05,9,1
-0.0001759026,-0.000114804,9,1
-0.0002039399,-0.0001316588,9,1
-0.0001575893,-0.0001394379,9,1
-3.798505e-05,-0.0001353863,9,1
0.000128456,-0.0001177212,9,1
0.0003000832,-8.336335e-05,9,1
0.00044578,-3.539201e-05,9,1
0.0005551741,1.452411e-05,9,1
0.0006368551,5.131294e-05,9,1
0.0007045984,6.346784e-05,9,1
0.0007671557,5.131294e-05,9,1
0.0008191788,2.149292e-05,9,1
0.0008504574,-1.075808e-05,9,1
0.0008562917,-3.377136e-05,9,1
0.0008428403,-4.414354e-05,9,1
0.0008133444,-4.738484e-05,9,1
0.0007647247,-5.078821e-05,9,1
0.0006948746,-5.64605e-05,9,1
0.0006123833,-5.921561e-05,9,1
0.0005426951,-5.354332e-05,9,1
0.0005039615,-3.976777e-05,9,1
0.0004976409,-2.583016e-05,9,1
0.0005185474,-2.161646e-05,9,1
0.0005648981,-2.923353e-05,9,1
0.000634262,-4.365734e-05,9,1
0.0007263153,-5.565017e-05,9,1
0.0008428403,-6.06742e-05,9,1
0.0009791374,-5.581224e-05,9,1
0.001124996,-4.219875e-05,9,1
0.001264697,-2.194059e-05,9,1
0.001373281,3.017472e-06,9,1
0.001409746,2.927205e-05,9,1
0.001340382,5.082674e-05,9,1
0.001145255,6.427817e-05,9,1
0.0008332785,6.735741e-05,9,1
0.0004449697,6.362991e-05,9,1
4.855783e-05,5.325772e-05,9,1
-0.0002888622,3.818565e-05,9,1
-0.0005319601,2.457216e-05,9,1
-0.0006820326,1.630683e-05,9,1
-0.0007554481,1.484824e-05,9,1
-0.0007744097,1.873781e-05,9,1
-0.0007598239,2.441009e-05,9,1
-0.0007246558,2.862379e-05,9,1
-0.0006750637,2.992031e-05,9,1
-0.0006118583,3.18651e-05,9,1
-0.0005343911,3.348575e-05,9,1
-0.0004467137,3.688912e-05,9,1
-0.0003569296,4.580272e-05,9,1
-0.0002763831,6.087479e-05,9,1
-0.0002125294,7.821578e-05,9,1
-0.0001746061,8.988449e-05,9,1
-0.0001671511,9.26396e-05,9,1
-0.0001893541,8.875003e-05,9,1
-0.0002400805,8.631905e-05,9,1
-0.0003162512,8.550872e-05,9,1
-0.0004040906,8.42122e-05,9,1
-0.0004813957,7.870197e-05,9,1
-0.0005361738,6.881599e-05,9,1
-0.0005734488,5.795762e-05,9,1
-0.0006076446,5.309566e-05,9,1
-0.0006488092,5.601284e-05,9,1
-0.0006962943,6.233338e-05,9,1
-0.0007408622,6.541262e-05,9,1
-0.0007781372,6.184718e-05,9,1
-0.0008006644,5.293359e-05,9,1
-0.0007967748,4.661304e-05,9,1
-0.0007525309,4.077869e-05,9,1
-0.0006679329,3.283749e-05,9,1
-0.0005606457,2.376183e-05,9,1
-0.0004569239,9.986281e-06,9,1
-0.0003830221,-1.059602e-05,9,1
-0.000358064,-3.782299e-05,9,1
-0.0003930701,-6.780507e-05,9,1
-0.0004760476,-9.503204e-05,9,1
-0.0005796073,-0.0001107524,9,1
-0.0006727948,-0.000114804,9,1
-0.0007296797,-0.0001083214,9,1
-0.0007334072,-9.389759e-05,9,1
-0.0006773326,-7.33153e-05,9,1
-0.0005575664,-5.159854e-05,9,1
-0.0003767015,-3.247483e-05,9,1
-0.0001548341,-1.950961e-05,9,1
6.849186e-05,-1.108221e-05,9,1
0.0002550291,-4.113403e-06,9,1
0.0003817642,4.313994e-06,9,1
0.0004474007,1.484824e-05,9,1
0.0004650658,2.619281e-05,9,1
0.0004467524,3.55926e-05,9,1
0.0003976466,3.899597e-05,9,1
0.0003226103,3.429608e-05,9,1
0.0002265056,2.408596e-05,9,1
0.0001227837,1.501031e-05,9,1
2.846173e-05,9.338019e-06,9,1
-4.025397e-05,4.47606e-06,9,1
-8.44978e-05,-1.520357e-06,9,1
-0.0001141558,-9.461558e-06,9,1
-0.0001376552,-1.67545e-05,9,1
-0.0001501342,-2.339918e-05,9,1
-0.0001366828,-2.777494e-05,9,1
-8.40116e-05,-2.518189e-05,9,1
8.689758e-06,-1.399939e-05,9,1
0.0001331559,2.369211e-06,9,1
0.000279663,1.97102e-05,9,1
0.0004341113,3.397195e-05,9,1
0.000572029,4.418206e-05,9,1
0.0006681338,5.050261e-05,9,1
0.0007055709,5.56887e-05,9,1
0.0006875816,6.200925e-05,9,1
0.000629076,7.173317e-05,9,1
0.0005491778,8.486046e-05,9,1
0.0004652279,9.928428e-05,9,1
0.0003885709,0.0001078737,9,1
0.0003171001,0.0001051186,9,1
0.0002480603,9.085688e-05,9,1
0.0001824238,7.140904e-05,9,1
0.0001312112,5.601284e-05,9,1
0.0001065772,5.082674e-05,9,1
0.0001056048,6.168512e-05,9,1
0.0001151667,8.275361e-05,9,1
0.0001206769,0.0001057669,9,1
0.0001195424,0.0001237561,9,1
0.0001206769,0.0001338042,9,1
0.0001339663,0.0001378558,9,1
0.0001558451,0.0001412592,9,1
0.0001665414,0.0001415833,9,1
0.000145635,0.0001328318,9,1
8.648112e-05,0.0001172735,9,1
-7.192643e-06,9.831188e-05,9,1
-0.0001261486,7.772959e-05,9,1
-0.0002527216,5.601284e-05,9,1
-0.0003538503,3.624086e-05,9,1
-0.0003929081,2.327564e-05,9,1
-0.0003439643,1.484824e-05,9,1
-0.0002068571,1.014835e-05,9,1
-1.983374e-05,1.047248e-05,9,1
0.0001618415,1.711715e-05,9,1
0.0002944109,3.024445e-05,9,1
0.0003647473,4.790957e-05,9,1
0.000378847,6.395404e-05,9,1
0.0003478926,7.189524e-05,9,1
0.0002859836,6.930219e-05,9,1
0.0002166196,5.56887e-05,9,1
0.000168162,3.364782e-05,9,1
0.0001492004,9.66215e-06,9,1
0.000145635,-8.813297e-06,9,1
0.0001391524,-1.62683e-05,9,1
0.0001188942,-1.448558e-05,9,1
8.696731e-05,-7.192643e-06,9,1
4.499239e-05,7.485573e-07,9,1
-6.382317e-06,2.04508e-06,9,1
-6.375344e-05,-4.437533e-06,9,1
-0.0001225832,-1.659243e-05,9,1
-0.0001746061,-2.745081e-05,9,1
-0.0002135018,-3.425755e-05,9,1
-0.0002344082,-3.458168e-05,9,1
-0.0002358668,-2.874733e-05,9,1
-0.0002196603,-1.983374e-05,9,1
-0.0001880575,-1.740276e-05,9,1
-0.0001454344,-2.647842e-05,9,1
-9.081835e-05,-4.38194e-05,9,1
-2.113026e-05,-6.245691e-05,9,1
6.103686e-05,-7.444975e-05,9,1
0.0001451488,-7.428769e-05,9,1
0.0002156472,-6.213279e-05,9,1
0.0002662116,-4.349527e-05,9,1
0.0003033245,-2.631635e-05,9,1
0.0003373583,-1.594417e-05,9,1
0.0003645853,-1.367526e-05,9,1
0.0003743092,-1.416145e-05,9,1
0.0003595612,-1.189254e-05,9,1
0.0003171001,-9.461558e-06,9,1
0.0002529222,-1.221667e-05,9,1
0.0001833962,-1.983374e-05,9,1
0.0001180839,-2.696461e-05,9,1
6.573675e-05,-2.631635e-05,9,1
3.13789e-05,-1.934754e-05,9,1
1.1769e-05,-9.461558e-06,9,1
7.485573e-07,-2.978945e-06,9,1
-9.947754e-06,1.558884e-06,9,1
-2.550602e-05,4.313994e-06,9,1
-4.349527e-05,7.555301e-06,9,1
-5.775702e-05,1.257933e-05,9,1
-6.699475e-05,1.889987e-05,9,1
-7.347736e-05,2.716521e-05,9,1
-7.979791e-05,3.899597e-05,9,1
-8.433573e-05,5.228533e-05,9,1
-8.692878e-05,6.298164e-05,9,1
-8.206682e-05,6.83298e-05,9,1
-6.618442e-05,6.606088e-05,9,1
-4.009191e-05,5.601284e-05,9,1
-1.027188e-05,4.175109e-05,9,1
1.257933e-05,3.073064e-05,9,1
1.841368e-05,2.684107e-05,9,1
3.503668e-06,2.959619e-05,9,1
-3.198864e-05,3.769945e-05,9,1
-8.239095e-05,4.82337e-05,9,1
-0.0001327933,5.682316e-05,9,1
-0.0001653684,6.136099e-05,9,1
-0.0001656925,6.330578e-05,9,1
-0.0001329553,6.249545e-05,9,1
-7.23429e-05,5.763349e-05,9,1
6.096713e-06,4.72613e-05,9,1
8.194328e-05,2.943412e-05,9,1
0.0001368834,7.393236e-06,9,1
0.0001545486,-1.043395e-05,9,1
0.0001274836,-1.918548e-05,9,1
5.925414e-05,-1.983374e-05,9,1
-3.522994e-05,-1.497178e-05,9,1
-0.0001290658,-9.785688e-06,9,1
-0.0001951884,-4.923729e-06,9,1
-0.0002191741,4.244267e-07,9,1
-0.0002058847,7.717366e-06,9,1
-0.0001759026,1.776542e-05,9,1
-0.0001499722,3.283749e-05,9,1
-0.0001415448,5.163707e-05,9,1
-0.0001517549,7.011252e-05,9,1
-0.0001679614,8.307774e-05,9,1
-0.0001791439,8.567078e-05,9,1
-0.0001856265,8.113296e-05,9,1
-0.0001972953,7.481241e-05,9,1
-0.0002182017,7.076078e-05,9,1
-0.0002496423,6.78436e-05,9,1
-0.000290969,6.379197e-05,9,1
-0.0003402368,5.585077e-05,9,1
-0.0003919357,4.207521e-05,9,1
-0.0004366657,2.505836e-05,9,1
-0.0004710235,7.393236e-06,9,1
-0.0004904714,-8.489166e-06,9,1
-0.0004925782,-2.080613e-05,9,1
-0.0004794509,-3.117831e-05,9,1
-0.0004666478,-3.879538e-05,9,1
-0.0004627582,-4.544006e-05,9,1
-0.0004687546,-4.949169e-05,9,1
-0.0004776682,-5.062615e-05,9,1
-0.0004750752,-4.268495e-05,9,1
-0.0004407173,-2.372331e-05,9,1
-0.000355471,2.623614e-07,9,1
-0.0002113949,2.084466e-05,9,1
-2.323711e-05,3.462021e-05,9,1
0.0001702689,4.320967e-05,9,1
0.0003195311,4.693717e-05,9,1
0.0003940812,4.499239e-05,9,1
0.0003900295,3.850978e-05,9,1
0.0003321722,2.959619e-05,9,1
0.0002563256,1.938607e-05,9,1
0.0001970097,9.175954e-06,9,1
0.0001786963,-1.520357e-06,9,1
0.0002114335,-1.173047e-05,9,1
0.0002897111,-1.950961e-05,9,1
0.0004041292,-1.918548e-05,9,1
0.0005493398,-8.489166e-06,9,1
0.0007167534,1.193106e-05,9,1
0.0008909738,3.656499e-05,9,1
0.001054174,5.876794e-05,9,1
0.001200357,7.610894e-05,9,1
0.001339247,8.615699e-05,9,1
0.001488672,9.069481e-05,9,1
0.001649117,9.069481e-05,9,1
0.001790438,8.372601e-05,9,1
0.001863692,6.638502e-05,9,1
0.001825606,4.223728e-05,9,1
0.001663216,1.938607e-05,9,1
0.001397591,6.420843e-06,9,1
0.001072325,4.47606e-06,9,1
0.0007329599,1.144487e-05,9,1
0.0004192013,2.473423e-05,9,1
0.0001480659,4.256141e-05,9,1
-8.676672e-05,6.330578e-05,9,1
-0.0002979378,8.648112e-05,9,1
-0.0004854474,0.0001080358,9,1
-0.0006337371,0.0001257009,9,1
-0.0007207661,0.0001389903,9,1
-0.0007335693,0.0001467694,9,1
-0.0006899738,0.0001529279,9,1
-0.0006207718,0.0001594105,9,1
-0.0005468701,0.000165569,9,1
-0.0004734545,0.0001662173,9,1
-0.0003963114,0.0001586002,9,1
-0.0003228959,0.000143204,9,1
-0.0002791382,0.0001190562,9,1
-0.0002969654,8.923623e-05,9,1
-0.0003797808,5.828175e-05,9,1
-0.0004875542,2.781346e-05,9,1
-0.0005659938,-1.844488e-06,9,1
-0.0005833348,-2.89094e-05,9,1
-0.0005439529,-5.208474e-05,9,1
-0.0004788027,-7.072225e-05,9,1
-0.0004190006,-8.563225e-05,9,1
-0.000380267,-9.454585e-05,9,1
-0.0003692465,-9.746302e-05,9,1
-0.0003836704,-9.503204e-05,9,1
-0.0004040906,-9.405965e-05,9,1
-0.0004049009,-9.713889e-05,9,1
-0.0003715154,-0.0001007043,9,1
-0.0003151167,-0.0001007043,9,1
-0.0002569353,-9.713889e-05,9,1
-0.0002147983,-9.130454e-05,9,1
-0.0001985918,-8.692878e-05,9,1
-0.0002110708,-8.676672e-05,9,1
-0.0002493182,-9.179074e-05,9,1
-0.0003057169,-9.973194e-05,9,1
-0.0003588744,-0.000107349,9,1
-0.00038286,-0.0001079973,9,1
-0.0003630881,-9.940781e-05,9,1
-0.000305879,-8.709085e-05,9,1
-0.0002371633,-7.65566e-05,9,1
-0.0001838438,-7.088431e-05,9,1
-0.0001630995,-7.299116e-05,9,1
-0.0001827094,-8.384954e-05,9,1
-0.0002412149,-9.892161e-05,9,1
-0.0003167374,-0.0001101041,9,1
-0.0003831841,-0.000112373,9,1
-0.0004194868,-0.0001045939,9,1
-0.0004209454,-9.081835e-05,9,1
-0.0004006872,-7.590833e-05,9,1
-0.0003664914,-6.083626e-05,9,1
-0.0003224097,-4.576419e-05,9,1
-0.0002799486,-3.279896e-05,9,1
-0.0002519113,-2.291298e-05,9,1
-0.0002465631,-1.67545e-05,9,1
-0.0002632558,-1.513384e-05,9,1
-0.0002942103,-1.724069e-05,9,1
-0.0003177098,-2.194059e-05,9,1
-0.0003070135,-2.680255e-05,9,1
-0.0002449425,-2.907146e-05,9,1
-0.0001399241,-3.020592e-05,9,1
-1.821308e-05,-3.21507e-05,9,1
9.101894e-05,-3.539201e-05,9,1
0.0001670276,-4.041603e-05,9,1
0.0002049509,-4.122636e-05,9,1
0.0002154851,-3.425755e-05,9,1
0.0002140265,-2.372331e-05,9,1
0.000205275,-1.513384e-05,9,1
0.0001872858,-8.002969e-06,9,1
0.0001517934,-5.085794e-06,9,1
9.393612e-05,-2.81688e-06,9,1
2.068259e-05,2.623614e-07,9,1
-5.143648e-05,2.855407e-06,9,1
-0.0001070249,6.096713e-06,9,1
-0.0001342519,1.209313e-05,9,1
-0.000127121,2.01964e-05,9,1
-8.854943e-05,2.878586e-05,9,1
-3.020592e-05,3.364782e-05,9,1
3.948217e-05,3.705119e-05,9,1
0.0001177597,4.175109e-05,9,1
0.0001996027,5.082674e-05,9,1
0.0002798251,6.152305e-05,9,1
0.0003572923,6.83298e-05,9,1
0.0004311941,7.043665e-05,9,1
0.0004994237,6.962632e-05,9,1
0.000562143,6.962632e-05,9,1
0.0006196762,7.30297e-05,9,1
0.0006686199,8.113296e-05,9,1
0.0007029778,9.458438e-05,9,1
0.0007128638,0.000113384,9,1
0.0006911471,0.000135749,9,1
0.0006328035,0.0001553589,9,1
0.000542209,0.0001639484,9,1
0.0004368664,0.0001590864,9,1
0.0003380065,0.0001441764,9,1
0.0002631324,0.0001253768,9,1
0.0002282883,0.0001090082,9,1
0.0002359054,0.0001009049,9,1
0.0002767458,0.0001057669,9,1
0.0003349273,0.0001174356,9,1
0.0003965121,0.0001305629,9,1
0.0004501558,0.0001440143,9,1
0.0004896998,0.000160545,9,1
0.0005107683,0.0001808031,9,1
0.000515144,0.0002021958,9,1
0.0004995857,0.0002206712,9,1
0.0004522626,0.0002292607,9,1
0.0003652335,0.0002243987,9,1
0.0002417397,0.0002065715,9,1
9.604298e-05,0.0001856651,9,1
-5.289507e-05,0.0001658931,9,1
-0.0001820611,0.0001469315,9,1
-0.0002741142,0.0001250527,9,1
-0.0003206269,9.750156e-05,9,1
-0.0003237062,6.670914e-05,9,1
-0.0003011791,4.094075e-05,9,1
-0.0002770314,2.522042e-05,9,1
-0.0002635799,1.97102e-05,9,1
-0.0002621213,1.582063e-05,9,1
-0.0002695764,5.610517e-06,9,1
-0.0002846485,-1.156841e-05,9,1
-0.0002992343,-2.728874e-05,9,1
-0.0002993964,-3.766092e-05,9,1
-0.0002723315,-3.992984e-05,9,1
-0.0002144742,-3.506788e-05,9,1
-0.0001326312,-2.826114e-05,9,1
-3.863332e-05,-2.453363e-05,9,1
5.585077e-05,-2.631635e-05,9,1
0.0001419075,-3.377136e-05,9,1
0.000207706,-4.365734e-05,9,1
0.0002422259,-5.127441e-05,9,1
0.0002383363,-5.338126e-05,9,1
0.000195389,-5.419158e-05,9,1
0.0001239182,-6.164659e-05,9,1
4.142696e-05,-7.396356e-05,9,1
-3.733679e-05,-8.093236e-05,9,1
-0.0001028112,-7.153257e-05,9,1
-0.0001488377,-4.787104e-05,9,1
-0.0001739578,-1.772689e-05,9,1
-0.0001878955,7.23117e-06,9,1
-0.0001995642,1.663096e-05,9,1
-0.0002117191,1.063454e-05,9,1
-0.000223874,-7.678839e-06,9,1
-0.0002368392,-3.036798e-05,9,1
-0.000251101,-4.981582e-05,9,1
-0.000263742,-6.116039e-05,9,1
-0.0002577456,-5.856735e-05,9,1
-0.0002188499,-4.025397e-05,9,1
-0.0001512687,-1.513384e-05,9,1
-7.833932e-05,5.772582e-06,9,1
-3.328516e-05,1.565857e-05,9,1
-3.847125e-05,1.808955e-05,9,1
-8.903562e-05,2.165498e-05,9,1
-0.0001645581,2.894792e-05,9,1
-0.0002392702,3.543054e-05,9,1
-0.0002974516,3.478228e-05,9,1
-0.0003305129,2.635488e-05,9,1
-0.0003360231,1.825161e-05,9,1
-0.0003130099,1.954813e-05,9,1
-0.0002564491,3.251336e-05,9,1
-0.0001574272,4.855783e-05,9,1
-5.085794e-06,5.957827e-05,9,1
0.0002030061,6.362991e-05,9,1
0.0004658761,6.022653e-05,9,1
0.0007715315,5.358185e-05,9,1
0.001093718,5.050261e-05,9,1
0.001376846,5.487838e-05,9,1
0.001553822,6.314371e-05,9,1
0.001572298,7.157111e-05,9,1
0.001416876,7.6271e-05,9,1
0.001126131,7.57848e-05,9,1
0.0007747728,7.221937e-05,9,1
0.0004378388,6.83298e-05,9,1
0.0001715654,6.395404e-05,9,1
2.855407e-06,5.957827e-05,9,1
-6.326724e-05,6.184718e-05,9,1
-4.80331e-05,7.465034e-05,9,1
4.313994e-06,9.928428e-05,9,1
4.515445e-05,0.0001294284,9,1
4.661304e-05,0.0001534141,9,1
1.063454e-05,0.0001598967,9,1
-3.717473e-05,0.0001479039,9,1
-7.509801e-05,0.0001229458,9,1
-0.0001013526,9.377406e-05,9,1
-0.0001318209,6.395404e-05,9,1
-0.0001794681,3.721326e-05,9,1
-0.0002394322,1.517237e-05,9,1
-0.0002980999,-3.951337e-06,9,1
-0.0003420196,-1.707863e-05,9,1
-0.0003663294,-2.194059e-05,9,1
-0.0003716775,-2.113026e-05,9,1
-0.0003635742,-1.805102e-05,9,1
-0.0003523917,-1.480971e-05,9,1
-0.0003468815,-1.318906e-05,9,1
-0.0003619536,-1.383732e-05,9,1
-0.0004084663,-1.594417e-05,9,1
-0.0004716718,-1.691656e-05,9,1
-0.0005173742,-1.983374e-05,9,1
-0.0005178604,-2.534396e-05,9,1
-0.0004718339,-3.604027e-05,9,1
-0.0004036044,-5.386745e-05,9,1
-0.0003494746,-7.720486e-05,9,1
-0.0003373197,-9.827335e-05,9,1
-0.0003676259,-0.0001159385,9,1
-0.0004241867,-0.0001302002,9,1
-0.000489661,-0.0001400862,9,1
-0.0005434667,-0.0001475412,9,1
-0.0005658317,-0.0001524032,9,1
-0.0005460597,-0.0001506204,9,1
-0.0004857715,-0.0001405724,9,1
-0.0004060354,-0.0001266348,9,1
-0.0003371576,-0.0001109144,9,1
-0.0003002067,-9.681477e-05,9,1
-0.0002934,-8.547019e-05,9,1
-0.000298424,-7.898758e-05,9,1
-0.0002953447,-7.444975e-05,9,1
-0.0002666592,-7.153257e-05,9,1
-0.0002050744,-7.137051e-05,9,1
-0.0001186936,-6.958779e-05,9,1
-3.020592e-05,-6.148453e-05,9,1
2.943412e-05,-4.527799e-05,9,1
3.380988e-05,-2.550602e-05,9,1
-2.064406e-05,-1.075808e-05,9,1
-0.0001131834,-4.599598e-06,9,1
-0.0002086398,-7.678839e-06,9,1
-0.0002705488,-1.853722e-05,9,1
-0.0002799486,-3.393342e-05,9,1
-0.0002489941,-4.462973e-05,9,1
-0.0002073433,-4.462973e-05,9,1
-0.0001737958,-3.960571e-05,9,1
-0.0001415448,-3.393342e-05,9,1
-8.433573e-05,-3.053005e-05,9,1
2.278944e-05,-3.247483e-05,9,1
0.0001832341,-4.009191e-05,9,1
0.0003746333,-5.095028e-05,9,1
0.0005567948,-5.548811e-05,9,1
0.0006830437,-5.095028e-05,9,1
0.0007209671,-3.749886e-05,9,1
0.0006584098,-2.0482e-05,9,1
0.000515144,-5.57199e-06,9,1
0.0003295791,4.80019e-06,9,1
0.0001462832,1.209313e-05,9,1
-5.479652e-07,2.197911e-05,9,1
-9.892161e-05,3.543054e-05,9,1
-0.0001524032,5.050261e-05,9,1
-0.0001674752,6.508849e-05,9,1
-0.0001511067,7.837785e-05,9,1
-0.0001084835,8.826383e-05,9,1
-3.555408e-05,9.21534e-05,9,1
7.448828e-05,9.085688e-05,9,1
0.0002067336,9.182927e-05,9,1
0.0003287688,9.68533e-05,9,1
0.0004049396,0.0001030118,9,1
0.000423415,0.00010366,9,1
0.000391164,9.571884e-05,9,1
0.000329255,8.259155e-05,9,1
0.0002743149,7.189524e-05,9,1
0.0002590807,6.735741e-05,9,1
0.0002874421,6.914012e-05,9,1
0.0003258516,7.57848e-05,9,1
0.0003307136,8.518459e-05,9,1
0.0002931144,9.53947e-05,9,1
0.0002365536,0.0001046324,9,1
0.0001963614,0.000113384,9,1
0.0001937684,0.0001182459,9,1
0.0002219677,0.0001153287,9,1
0.0002508154,0.0001031738,9,1
0.0002501671,8.42122e-05,9,1
0.0002128921,6.719535e-05,9,1
0.0001490383,5.94162e-05,9,1
7.951231e-05,6.184718e-05,9,1
2.473423e-05,7.011252e-05,9,1
-1.682422e-06,7.6271e-05,9,1
1.234753e-06,7.546067e-05,9,1
1.9224e-05,6.508849e-05,9,1
3.429608e-05,4.693717e-05,9,1
4.126489e-05,2.489629e-05,9,1
4.483033e-05,6.582909e-06,9,1
4.839576e-05,-3.858999e-07,9,1
4.612685e-05,4.151929e-06,9,1
2.700314e-05,1.338965e-05,9,1
-6.544382e-06,1.9224e-05,9,1
-3.506788e-05,1.59827e-05,9,1
-3.604027e-05,4.244267e-07,9,1
-5.89612e-06,-2.307504e-05,9,1
3.737532e-05,-4.625038e-05,9,1
6.233338e-05,-6.39155e-05,9,1
5.179914e-05,-6.845333e-05,9,1
1.517237e-05,-5.856735e-05,9,1
-3.036798e-05,-3.798505e-05,9,1
-6.893953e-05,-1.659243e-05,9,1
-9.114248e-05,-1.358292e-06,9,1
-9.973194e-05,4.80019e-06,9,1
-9.130454e-05,4.638125e-06,9,1
-6.099833e-05,2.855407e-06,9,1
-1.513384e-05,4.313994e-06,9,1
2.684107e-05,1.079661e-05,9,1
4.758544e-05,1.841368e-05,9,1
4.142696e-05,2.327564e-05,9,1
1.436204e-05,2.424803e-05,9,1
-1.837515e-05,2.81376e-05,9,1
-4.349527e-05,3.818565e-05,9,1
-5.257093e-05,4.839576e-05,9,1
-4.090223e-05,5.309566e-05,9,1
-1.189254e-05,5.277153e-05,9,1
3.13789e-05,5.309566e-05,9,1
8.097089e-05,5.633696e-05,9,1
0.0001193804,6.184718e-05,9,1
0.0001278078,6.78436e-05,9,1
9.426025e-05,7.027458e-05,9,1
2.473423e-05,7.173317e-05,9,1
-6.423963e-05,7.708133e-05,9,1
-0.0001532135,8.712937e-05,9,1
-0.0002267911,9.831188e-05,9,1
-0.0002814071,0.0001062531,9,1
-0.0003167374,0.000110953,9,1
-0.0003335922,0.0001104668,9,1
-0.0003254889,0.0001009049,9,1
-0.0002877277,8.615699e-05,9,1
-0.0002261429,7.238143e-05,9,1
-0.0001554824,6.768154e-05,9,1
-8.757704e-05,7.286763e-05,9,1
-3.393342e-05,8.486046e-05,9,1
-4.113403e-06,0.0001025256,9,1
2.531276e-06,0.0001179218,9,1
-7.192643e-06,0.0001245665,9,1
-1.788895e-05,0.0001205148,9,1
-1.67545e-05,0.000108522,9,1
1.002961e-07,9.344993e-05,9,1
3.121684e-05,7.967438e-05,9,1
7.221937e-05,6.654708e-05,9,1
0.0001222976,5.504044e-05,9,1
0.0001838824,4.628891e-05,9,1
0.0002534084,4.013043e-05,9,1
0.0003230965,3.721326e-05,9,1
0.000378685,3.526847e-05,9,1
0.0004115842,3.397195e-05,9,1
0.0004235771,3.283749e-05,9,1
0.0004226047,3.008238e-05,9,1
0.0004268184,2.781346e-05,9,1
0.0004634451,2.992031e-05,9,1
0.0005482053,3.737532e-05,9,1
0.0006874196,4.580272e-05,9,1
0.0008682846,5.1475e-05,9,1
0.001053039,5.19612e-05,9,1
0.001185285,4.839576e-05,9,1
0.001215267,4.191315e-05,9,1
0.001130993,3.478228e-05,9,1
0.0009635791,2.700314e-05,9,1
0.0007661834,1.857574e-05,9,1
0.0005777013,3.989864e-06,9,1
0.0004132049,-1.99958e-05,9,1
0.0002679943,-4.446767e-05,9,1
0.0001294284,-6.278104e-05,9,1
-7.840905e-06,-7.039812e-05,9,1
-0.0001383035,-7.315322e-05,9,1
-0.0002525595,-7.736692e-05,9,1
-0.0003444506,-8.255302e-05,9,1
-0.0004165696,-9.017008e-05,9,1
-0.0004799371,-9.989401e-05,9,1
-0.0005387668,-0.0001110765,9,1
-0.000589007,-0.0001225832,9,1
-0.0006248235,-0.0001314967,9,1
-0.000638599,-0.0001331174,9,1
-0.0006142893,-0.000122097,9,1
-0.0005356876,-0.000102325,9,1
-0.0003885323,-8.239095e-05,9,1
-0.0001674752,-6.796714e-05,9,1
0.00010366,-6.06742e-05,9,1
0.0003692851,-5.613637e-05,9,1
0.0005542018,-5.159854e-05,9,1
0.0005929354,-4.560212e-05,9,1
0.0004524247,-3.766092e-05,9,1
0.0001560072,-3.117831e-05,9,1
-0.0002146363,-2.955766e-05,9,1
-0.0005514079,-3.539201e-05,9,1
-0.0007812165,-4.835724e-05,9,1
-0.0008769971,-6.521203e-05,9,1
-0.0008476633,-7.736692e-05,9,1
-0.0007150938,-8.336335e-05,9,1
-0.0005157535,-8.109443e-05,9,1
-0.0002997205,-7.039812e-05,9,1
-0.0001298761,-5.500191e-05,9,1
-5.548811e-05,-4.203669e-05,9,1
-7.396356e-05,-3.506788e-05,9,1
-0.0001415448,-3.409549e-05,9,1
-0.0002133397,-3.312309e-05,9,1
-0.0002632558,-2.647842e-05,9,1
-0.0002906449,-1.399939e-05,9,1
-0.0003006929,-1.520357e-06,9,1
-0.0002883759,3.665733e-06,9,1
-0.0002480217,-3.858999e-07,9,1
-0.0001872472,-4.599598e-06,9,1
-0.0001340898,-1.520357e-06,9,1
-0.0001264727,9.986281e-06,9,1
-0.0001861127,2.149292e-05,9,1
-0.000298424,2.76514e-05,9,1
-0.0004251591,2.943412e-05,9,1
-0.0005220741,2.927205e-05,9,1
-0.0005488148,3.056858e-05,9,1
-0.0004841508,3.55926e-05,9,1
-0.000345585,4.499239e-05,9,1
-0.0001789819,5.682316e-05,9,1
-2.955766e-05,6.638502e-05,9,1
6.881599e-05,6.946425e-05,9,1
0.0001013911,6.41161e-05,9,1
7.691926e-05,5.163707e-05,9,1
2.797553e-05,4.256141e-05,9,1
-1.821308e-05,4.385793e-05,9,1
-5.354332e-05,5.56887e-05,9,1
-8.547019e-05,7.335383e-05,9,1
-0.0001190177,9.247754e-05,9,1
-0.0001501342,0.0001093323,9,1
-0.0001729855,0.000123432,9,1
-0.0001854645,0.0001339663,9,1
-0.0001859507,0.0001423936,9,1
-0.0001752544,0.0001469315,9,1
-0.0001559686,0.0001466074,9,1
-0.0001378173,0.0001435281,9,1
-0.0001253383,0.0001425557,9,1
-0.0001251762,0.0001448246,9,1
-0.0001428413,0.0001467694,9,1
-0.0001708786,0.0001412592,9,1
-0.0001937298,0.0001257009,9,1
-0.0002011848,0.0001046324,9,1
-0.0001901644,8.388807e-05,9,1
-0.0001655305,6.865393e-05,9,1
-0.0001327933,6.152305e-05,9,1
-0.0001041077,6.119892e-05,9,1
-9.033215e-05,6.525056e-05,9,1
-9.017008e-05,7.059871e-05,9,1
-8.871149e-05,7.481241e-05,9,1
-7.623246e-05,7.448828e-05,9,1
-5.143648e-05,6.557468e-05,9,1
-1.918548e-05,4.855783e-05,9,1
2.003433e-05,2.457216e-05,9,1
6.087479e-05,-4.275467e-06,9,1
9.069481e-05,-3.231277e-05,9,1
9.896015e-05,-5.710876e-05,9,1
8.761557e-05,-7.704279e-05,9,1
7.092284e-05,-8.741498e-05,9,1
6.346784e-05,-8.660465e-05,9,1
7.140904e-05,-7.931171e-05,9,1
9.896015e-05,-7.104638e-05,9,1
0.0001459591,-6.48879e-05,9,1
0.0002128921,-6.06742e-05,9,1
0.0002981384,-5.2733e-05,9,1
0.0003835469,-4.236082e-05,9,1
0.0004423766,-3.166451e-05,9,1
0.0004563143,-2.599222e-05,9,1
0.000428277,-2.971972e-05,9,1
0.0003741471,-4.462973e-05,9,1
0.0003107795,-6.229485e-05,9,1
0.0002521119,-7.574627e-05,9,1
0.0002057612,-8.125649e-05,9,1
0.0001739964,-7.914964e-05,9,1
0.0001561692,-7.347736e-05,9,1
0.000150659,-6.586029e-05,9,1
0.0001513072,-5.548811e-05,9,1
0.0001519555,-4.106429e-05,9,1
0.0001511452,-2.453363e-05,9,1
0.0001547106,-9.785688e-06,9,1
0.0001790204,5.86492e-07,9,1
0.0002376881,6.744974e-06,9,1
0.0003171001,9.175954e-06,9,1
0.000386302,8.851824e-06,9,1
0.0004217943,4.47606e-06,9,1
0.0004148255,-2.330684e-06,9,1
0.0003728506,-8.489166e-06,9,1
0.0003117519,-1.399939e-05,9,1
0.0002448189,-1.788895e-05,9,1
0.0001837203,-1.967167e-05,9,1
0.000135749,-1.918548e-05,9,1
0.0001044704,-1.853722e-05,9,1
9.101894e-05,-1.610624e-05,9,1
9.053275e-05,-9.461558e-06,9,1
8.939829e-05,3.665733e-06,9,1
7.448828e-05,2.214118e-05,9,1
4.337174e-05,4.077869e-05,9,1
6.096713e-06,5.779555e-05,9,1
-2.631635e-05,7.481241e-05,9,1
-4.106429e-05,9.069481e-05,9,1
-2.955766e-05,0.0001051186,9,1
1.014835e-05,0.0001182459,9,1
7.335383e-05,0.0001286181,9,1
0.0001543865,0.0001344524,9,1
0.0002384984,0.0001347766,9,1
0.0003031625,0.000130725,9,1
0.0003237448,0.0001247285,9,1
0.0002939248,0.0001205148,9,1
0.0002245608,0.0001156529,9,1
0.0001419075,0.0001077117,9,1
7.52986e-05,9.620504e-05,9,1
4.531652e-05,8.729144e-05,9,1
5.001642e-05,8.599492e-05,9,1
7.594687e-05,9.069481e-05,9,1
0.0001009049,9.652917e-05,9,1
0.0001062531,0.0001000946,9,1
8.875003e-05,9.928428e-05,9,1
5.244739e-05,9.361199e-05,9,1
9.013889e-06,8.016057e-05,9,1
-2.664048e-05,6.362991e-05,9,1
-4.965376e-05,4.904402e-05,9,1
-6.278104e-05,4.142696e-05,9,1
-7.60704e-05,4.223728e-05,9,1
-0.0001020008,4.402e-05,9,1
-0.0001515928,4.272347e-05,9,1
-0.0002207947,3.867184e-05,9,1
-0.0002875656,3.510641e-05,9,1
-0.0003350507,3.218923e-05,9,1
-0.000358064,3.121684e-05,9,1
-0.0003664914,3.364782e-05,9,1
-0.0003783222,4.045456e-05,9,1
-0.000405225,5.19612e-05,9,1
-0.0004478482,6.492643e-05,9,1
-0.0004929024,7.497447e-05,9,1
-0.0005253154,7.708133e-05,9,1
-0.0005309877,6.703327e-05,9,1
-0.0004951713,4.709924e-05,9,1
-0.0004133283,1.938607e-05,9,1
-0.0002976137,-1.189254e-05,9,1
-0.0001686097,-3.895745e-05,9,1
-4.560212e-05,-5.386745e-05,9,1
5.325772e-05,-5.759496e-05,9,1
0.0001128978,-5.435365e-05,9,1
0.0001274836,-4.916756e-05,9,1
0.0001012291,-4.349527e-05,9,1
5.504044e-05,-4.300908e-05,9,1
8.365628e-06,-5.176061e-05,9,1
-3.490581e-05,-6.780507e-05,9,1
-7.104638e-05,-8.465986e-05,9,1
-9.389759e-05,-9.438378e-05,9,1
-8.984595e-05,-9.535618e-05,9,1
-3.587821e-05,-8.628052e-05,9,1
9.555677e-05,-6.456377e-05,9,1
0.000319369,-3.717473e-05,9,1
0.0006235657,-1.497178e-05,9,1
0.0009703859,-7.192643e-06,9,1
0.001306348,-1.3027e-05,9,1
0.001567111,-2.664048e-05,9,1
0.001686878,-4.187462e-05,9,1
0.0016274,-5.548811e-05,9,1
0.001404884,-6.456377e-05,9,1
0.001082049,-7.088431e-05,9,1
0.0007378219,-7.623246e-05,9,1
0.000435732,-8.482193e-05,9,1
0.0002128921,-9.568031e-05,9,1
6.719535e-05,-0.0001036215,9,1
-3.004385e-05,-0.0001058904,9,1
-0.0001167488,-0.0001015147,9,1
-0.0002162569,-9.162867e-05,9,1
-0.0003297026,-7.639453e-05,9,1
-0.0004426621,-6.0188e-05,9,1
-0.0005386047,-4.787104e-05,9,1
-0.0006055377,-3.944364e-05,9,1
-0.0006353577,-3.652646e-05,9,1
-0.0006206098,-3.490581e-05,9,1
-0.0005488148,-2.728874e-05,9,1
-0.0004087905,-4.761664e-06,9,1
-0.0002183637,2.797553e-05,9,1
-1.950961e-05,5.974033e-05,9,1
0.0001334801,8.194328e-05,9,1
0.0001991165,9.296373e-05,9,1
0.000165569,9.328786e-05,9,1
5.423012e-05,9.004655e-05,9,1
-9.211487e-05,8.810177e-05,9,1
-0.0002248464,9.004655e-05,9,1
-0.0003026377,9.490851e-05,9,1
-0.0003121996,0.0001018773,9,1
-0.0002682799,0.0001083599,9,1
-0.0002032917,0.0001145184,9,1
-0.000152079,0.0001195424,9,1
-0.0001353863,0.0001232699,9,1
-0.0001514308,0.0001232699,9,1
-0.0001794681,0.0001222976,9,1
-0.0001878955,0.0001229458,9,1
-0.0001605064,0.0001198666,9,1
-0.0001010285,0.000111115,9,1
-2.664048e-05,0.0001012291,9,1
4.790957e-05,9.977047e-05,9,1
0.0001127357,0.0001093323,9,1
0.0001595726,0.0001252147,9,1
0.0001790204,0.0001363972,9,1
0.0001676758,0.0001375317,9,1
0.0001323456,0.0001289422,9,1
8.583286e-05,0.0001150046,9,1
4.547859e-05,0.0001022015,9,1
1.808955e-05,9.604298e-05,9,1
-6.220252e-06,9.766362e-05,9,1
-4.219875e-05,0.0001056048,9,1
-9.470791e-05,0.0001132219,9,1
-0.0001483515,0.0001148425,9,1
-0.0001878955,0.0001103047,9,1
-0.0002036158,0.0001030118,9,1
-0.0001883817,9.555677e-05,9,1
-0.0001402483,8.810177e-05,9,1
-7.315322e-05,7.837785e-05,9,1
-8.002969e-06,6.492643e-05,9,1
3.170304e-05,4.77475e-05,9,1
3.478228e-05,2.619281e-05,9,1
-4.923729e-06,2.855407e-06,9,1
-8.320128e-05,-1.594417e-05,9,1
-0.0001893541,-2.210265e-05,9,1
-0.0003084721,-9.461558e-06,9,1
-0.0004227281,1.841368e-05,9,1
-0.000514457,4.936815e-05,9,1
-0.0005716661,6.978839e-05,9,1
-0.0005849554,7.157111e-05,9,1
-0.0005512458,5.309566e-05,9,1
-0.0004750752,1.97102e-05,9,1
-0.0003567675,-2.388537e-05,9,1
-0.0002068571,-7.120844e-05,9,1
-5.710876e-05,-0.0001102662,9,1
4.742337e-05,-0.0001331174,9,1
7.157111e-05,-0.0001404103,9,1
1.54965e-05,-0.0001415448,9,1
-8.871149e-05,-0.000144462,9,1
-0.000199078,-0.0001512687,9,1
-0.0002882139,-0.0001592099,9,1
-0.0003473677,-0.0001645581,9,1
-0.0003755671,-0.0001634236,9,1
-0.0003666535,-0.0001536997,9,1
-0.0003170615,-0.0001378173,9,1
-0.0002318152,-0.0001219349,9,1
-0.0001227452,-0.0001112386,9,1
-6.706447e-06,-0.0001068628,9,1
9.604298e-05,-0.0001062146,9,1
0.0001733481,-0.000104918,9,1
0.000217592,-9.616651e-05,9,1
0.000220185,-8.093236e-05,9,1
0.0001748067,-6.39155e-05,9,1
9.426025e-05,-4.706071e-05,9,1
6.90704e-06,-2.745081e-05,9,1
-6.099833e-05,-6.058186e-06,9,1
-9.000802e-05,1.290346e-05,9,1
-7.801519e-05,2.538249e-05,9,1
-3.522994e-05,3.073064e-05,9,1
2.651694e-05,3.105477e-05,9,1
9.182927e-05,2.975825e-05,9,1
0.0001433661,2.894792e-05,9,1
0.0001673517,2.619281e-05,9,1
0.0001590864,2.116879e-05,9,1
0.000130887,1.663096e-05,9,1
0.0001013911,1.501031e-05,9,1
8.615699e-05,1.792748e-05,9,1
8.972242e-05,2.522042e-05,9,1
0.0001106288,3.543054e-05,9,1
0.0001399627,4.45062e-05,9,1
0.0001660552,5.260946e-05,9,1
0.0001843686,5.893001e-05,9,1
0.0001957132,6.346784e-05,9,1
0.0002060853,6.41161e-05,9,1
0.0002188885,5.974033e-05,9,1
0.0002284504,5.277153e-05,9,1
0.0002329882,4.985435e-05,9,1
0.0002333123,5.163707e-05,9,1
0.0002290986,5.341979e-05,9,1
0.0002253711,5.212327e-05,9,1
0.0002310434,5.293359e-05,9,1
0.0002514636,6.006447e-05,9,1
0.0002850112,7.043665e-05,9,1
0.0003261758,8.129502e-05,9,1
0.0003666921,9.118101e-05,9,1
0.0003948915,9.896015e-05,9,1
0.0003991052,0.0001039842,9,1
0.0003705817,0.0001013911,9,1
0.0003115899,9.571884e-05,9,1
0.0002328261,9.328786e-05,9,1
0.0001495245,9.458438e-05,9,1
7.935024e-05,9.296373e-05,9,1
2.910999e-05,8.599492e-05,9,1
-3.951337e-06,7.140904e-05,9,1
-2.42095e-05,5.293359e-05,9,1
-3.425755e-05,3.60788e-05,9,1
-3.911951e-05,2.39239e-05,9,1
-4.074016e-05,2.246531e-05,9,1
-4.074016e-05,2.619281e-05,9,1
-3.652646e-05,2.797553e-05,9,1
-2.907146e-05,2.505836e-05,9,1
-2.161646e-05,2.052053e-05,9,1
-1.821308e-05,1.711715e-05,9,1
-2.518189e-05,1.760335e-05,9,1
-4.673658e-05,1.97102e-05,9,1
-7.995997e-05,2.133085e-05,9,1
-0.0001138316,2.214118e-05,9,1
-0.0001319829,2.262738e-05,9,1
-0.0001232314,2.505836e-05,9,1
-9.827335e-05,2.651694e-05,9,1
-7.526008e-05,1.954813e-05,9,1
-6.132246e-05,5.124321e-06,9,1
-4.787104e-05,-1.140634e-05,9,1
-2.647842e-05,-2.501983e-05,9,1
8.365628e-06,-3.117831e-05,9,1
4.807163e-05,-3.069211e-05,9,1
7.724339e-05,-2.988179e-05,9,1
8.437427e-05,-3.069211e-05,9,1
7.011252e-05,-3.166451e-05,9,1
4.142696e-05,-3.522994e-05,9,1
1.209313e-05,-4.138842e-05,9,1
-4.437533e-06,-4.868137e-05,9,1
-5.409925e-06,-5.419158e-05,9,1
9.66215e-06,-5.565017e-05,9,1
4.013043e-05,-5.013995e-05,9,1
8.194328e-05,-3.911951e-05,9,1
0.0001274836,-2.696461e-05,9,1
0.0001676758,-1.594417e-05,9,1
0.000192958,-5.89612e-06,9,1
0.0001999268,5.286387e-06,9,1
0.0001908512,1.64689e-05,9,1
0.0001749688,2.81376e-05,9,1
0.0001613553,3.850978e-05,9,1
0.0001547106,4.596478e-05,9,1
0.0001539003,5.131294e-05,9,1
0.0001589243,5.730935e-05,9,1
0.0001665414,6.735741e-05,9,1
0.0001650828,7.67572e-05,9,1
0.0001428799,7.935024e-05,9,1
9.68533e-05,7.546067e-05,9,1
3.040651e-05,6.914012e-05,9,1
-4.673658e-05,6.46023e-05,9,1
-0.0001201522,6.557468e-05,9,1
-0.0001773612,7.335383e-05,9,1
-0.0002047502,8.340187e-05,9,1
-0.000199078,8.826383e-05,9,1
-0.0001652063,8.534666e-05,9,1
-0.0001115627,7.772959e-05,9,1
-4.689865e-05,6.995045e-05,9,1
2.732727e-05,6.362991e-05,9,1
0.0001075496,6.217132e-05,9,1
0.0001832341,6.735741e-05,9,1
0.0002302331,7.6271e-05,9,1
0.000225209,8.210535e-05,9,1
0.0001628139,7.821578e-05,9,1
6.006447e-05,6.119892e-05,9,1
-5.419158e-05,3.60788e-05,9,1
-0.0001483515,1.193106e-05,9,1
-0.0002037779,-3.951337e-06,9,1
-0.0002212809,-1.059602e-05,9,1
-0.0002185258,-7.840905e-06,9,1
-0.0002107467,1.558884e-06,9,1
-0.0002042641,1.1769e-05,9,1
-0.0001872472,1.987227e-05,9,1
-0.0001402483,2.441009e-05,9,1
-5.483985e-05,2.327564e-05,9,1
5.828175e-05,1.727922e-05,9,1
0.0001783722,9.986281e-06,9,1
0.0002851732,5.934648e-06,9,1
0.0003640991,8.041497e-06,9,1
0.0004123946,1.1769e-05,9,1
0.0004349216,1.079661e-05,9,1
0.0004409181,6.420843e-06,9,1
0.0004318424,-3.858999e-07,9,1
0.000403643,-7.030578e-06,9,1
0.0003511338,-1.497178e-05,9,1
0.0002649151,-2.275091e-05,9,1
0.0001419075,-2.728874e-05,9,1
-6.706447e-06,-2.583016e-05,9,1
-0.0001524032,-2.0482e-05,9,1
-0.0002596904,-1.643037e-05,9,1
-0.0003039342,-1.578211e-05,9,1
-0.0002825416,-1.99958e-05,9,1
-0.000216419,-2.874733e-05,9,1
-0.0001430034,-3.960571e-05,9,1
-9.081835e-05,-4.932962e-05,9,1
-6.521203e-05,-5.370539e-05,9,1
-5.532604e-05,-4.80331e-05,9,1
