EMG1,EMG2,class,user
9.442231e-05,-0.0001157764,9,1
7.384002e-05,-0.0001130213,9,1
5.374392e-05,-0.0001096179,9,1
3.445814e-05,-0.0001088076,9,1
2.246531e-05,-0.0001104282,9,1
2.197911e-05,-0.0001128592,9,1
3.18651e-05,-0.0001126972,9,1
5.082674e-05,-0.0001058904,9,1
7.708133e-05,-9.324933e-05,9,1
0.0001077117,-7.55842e-05,9,1
0.0001354248,-5.532604e-05,9,1
0.0001498487,-3.296103e-05,9,1
0.0001488763,-1.124428e-05,9,1
0.0001440143,9.013889e-06,9,1
0.000158114,2.635488e-05,9,1
0.0002034923,4.045456e-05,9,1
0.0002735045,4.969229e-05,9,1
0.0003474063,5.19612e-05,9,1
0.0004065602,4.677511e-05,9,1
0.0004360561,3.786152e-05,9,1
0.0004274666,3.170304e-05,9,1
0.0003744712,3.235129e-05,9,1
0.0002812837,3.60788e-05,9,1
0.0001665414,3.721326e-05,9,1
6.006447e-05,3.073064e-05,9,1
-8.975362e-06,1.906194e-05,9,1
-2.777494e-05,9.66215e-06,9,1
-3.627206e-06,8.041497e-06,9,1
4.239934e-05,1.371378e-05,9,1
8.567078e-05,2.327564e-05,9,1
0.0001073875,3.332369e-05,9,1
0.0001043083,4.320967e-05,9,1
8.502253e-05,5.228533e-05,9,1
5.99024e-05,5.56887e-05,9,1
3.705119e-05,5.552663e-05,9,1
1.954813e-05,5.293359e-05,9,1
8.689758e-06,5.358185e-05,9,1
4.151929e-06,6.087479e-05,9,1
6.582909e-06,7.011252e-05,9,1
1.468618e-05,7.384002e-05,9,1
2.700314e-05,7.335383e-05,9,1
3.915804e-05,7.416415e-05,9,1
4.35338e-05,8.502253e-05,9,1
3.526847e-05,0.000105929,9,1
1.193106e-05,0.0001315353,9,1
-2.161646e-05,0.0001534141,9,1
-5.743289e-05,0.0001642725,9,1
-8.919769e-05,0.0001642725,9,1
-0.0001188556,0.0001569795,9,1
-0.0001506204,0.000148228,9,1
-0.0001828714,0.0001420695,9,1
-0.0002053985,0.0001351007,9,1
-0.0002151224,0.000125863,9,1
-0.000216419,0.0001130598,9,1
-0.0002251705,9.68533e-05,9,1
-0.0002506147,7.740546e-05,9,1
-0.0002848105,5.893001e-05,9,1
-0.0003078238,4.531652e-05,9,1
-0.0003068514,3.818565e-05,9,1
-0.0002831898,3.543054e-05,9,1
-0.0002501286,3.380988e-05,9,1
-0.0002243602,3.251336e-05,9,1
-0.0002147983,2.927205e-05,9,1
-0.0002235498,2.424803e-05,9,1
-0.000241377,1.679302e-05,9,1
-0.0002556388,8.365628e-06,9,1
-0.0002635799,-1.196227e-06,9,1
-0.0002619593,-1.010982e-05,9,1
-0.000246239,-1.983374e-05,9,1
-0.0002156086,-2.988179e-05,9,1
-0.0001788198,-4.252288e-05,9,1
-0.0001488377,-5.678463e-05,9,1
-0.0001334415,-7.299116e-05,9,1
-0.0001331174,-8.854943e-05,9,1
-0.0001363587,-9.794922e-05,9,1
-0.0001336036,-9.827335e-05,9,1
-0.0001164247,-9.29252e-05,9,1
-8.060823e-05,-8.644259e-05,9,1
-3.247483e-05,-8.02841e-05,9,1
1.257933e-05,-7.493595e-05,9,1
4.466826e-05,-7.137051e-05,9,1
5.974033e-05,-6.618442e-05,9,1
6.217132e-05,-6.148453e-05,9,1
6.119892e-05,-5.921561e-05,9,1
6.735741e-05,-6.083626e-05,9,1
8.810177e-05,-6.294311e-05,9,1
0.0001239182,-5.986387e-05,9,1
0.0001697827,-5.111234e-05,9,1
0.0002148369,-3.879538e-05,9,1
0.0002464396,-2.518189e-05,9,1
0.0002519498,-1.367526e-05,9,1
0.0002279642,-4.923729e-06,9,1
0.0001812893,1.883015e-06,9,1
0.0001302388,8.041497e-06,9,1
8.972242e-05,1.582063e-05,9,1
6.589881e-05,2.716521e-05,9,1
5.61749e-05,3.721326e-05,9,1
5.487838e-05,4.466826e-05,9,1
6.03886e-05,5.098881e-05,9,1
7.173317e-05,5.633696e-05,9,1
8.79397e-05,5.957827e-05,9,1
0.0001077117,6.281957e-05,9,1
0.000128294,6.638502e-05,9,1
0.0001449867,6.800567e-05,9,1
0.0001500107,6.687121e-05,9,1
0.0001378558,6.427817e-05,9,1
0.0001083599,6.119892e-05,9,1
7.351589e-05,5.795762e-05,9,1
4.742337e-05,5.325772e-05,9,1
3.478228e-05,5.050261e-05,9,1
3.591673e-05,5.001642e-05,9,1
4.061663e-05,5.374392e-05,9,1
3.073064e-05,6.03886e-05,9,1
-6.176923e-08,6.395404e-05,9,1
-3.992984e-05,6.103686e-05,9,1
-6.893953e-05,5.390598e-05,9,1
-7.574627e-05,4.920609e-05,9,1
-6.164659e-05,5.131294e-05,9,1
-2.971972e-05,5.844381e-05,9,1
1.906194e-05,6.508849e-05,9,1
8.712937e-05,6.573675e-05,9,1
0.0001756171,6.233338e-05,9,1
0.0002718839,6.249545e-05,9,1
0.000356644,7.043665e-05,9,1
0.0004117463,8.080883e-05,9,1
0.0004271425,8.956036e-05,9,1
0.0004023465,9.507057e-05,9,1
0.0003449753,9.53947e-05,9,1
0.0002666978,9.053275e-05,9,1
0.0001761032,8.437427e-05,9,1
7.772959e-05,8.016057e-05,9,1
-1.869928e-05,7.6271e-05,9,1
-0.0001063766,6.978839e-05,9,1
-0.0001806025,6.200925e-05,9,1
-0.0002455907,5.455425e-05,9,1
-0.0003003688,4.790957e-05,9,1
-0.0003450988,4.320967e-05,9,1
-0.0003760533,4.175109e-05,9,1
-0.0003919357,4.158902e-05,9,1
-0.0003908012,4.02925e-05,9,1
-0.0003687603,3.737532e-05,9,1
-0.0003209511,3.121684e-05,9,1
-0.0002441321,2.084466e-05,9,1
-0.0001522411,1.193106e-05,9,1
-6.942573e-05,6.420843e-06,9,1
-1.983374e-05,3.989864e-06,9,1
-1.497178e-05,3.179537e-06,9,1
-4.997789e-05,-1.520357e-06,9,1
-0.0001060525,-1.059602e-05,9,1
-0.0001608306,-2.307504e-05,9,1
-0.0001895161,-3.555408e-05,9,1
-0.0001786577,-4.495386e-05,9,1
-0.0001305243,-4.787104e-05,9,1
-5.953974e-05,-4.608832e-05,9,1
1.97102e-05,-4.236082e-05,9,1
0.0001020394,-3.814712e-05,9,1
0.00018291,-3.620233e-05,9,1
0.0002569738,-3.798505e-05,9,1
0.0003198552,-4.203669e-05,9,1
0.000371392,-4.706071e-05,9,1
0.000410936,-5.192267e-05,9,1
0.0004324906,-5.516398e-05,9,1
0.0004324906,-5.581224e-05,9,1
0.0004138531,-5.32192e-05,9,1
0.0003827366,-4.965376e-05,9,1
0.0003483787,-4.738484e-05,9,1
0.0003222862,-4.835724e-05,9,1
0.0003099692,-5.435365e-05,9,1
0.0003039728,-6.326724e-05,9,1
0.0002851732,-6.942573e-05,9,1
0.0002433604,-6.91016e-05,9,1
0.0001856651,-6.359137e-05,9,1
0.0001286181,-5.386745e-05,9,1
8.631905e-05,-4.317115e-05,9,1
7.238143e-05,-3.393342e-05,9,1
9.150514e-05,-2.307504e-05,9,1
0.0001386662,-6.868513e-06,9,1
0.0001973338,1.54965e-05,9,1
0.0002448189,4.191315e-05,9,1
0.0002579462,6.330578e-05,9,1
0.0002227781,7.270556e-05,9,1
0.0001412592,7.30297e-05,9,1
3.786152e-05,7.092284e-05,9,1
-5.986387e-05,6.83298e-05,9,1
-0.0001310105,6.492643e-05,9,1
-0.000164396,6.233338e-05,9,1
-0.0001611547,6.265751e-05,9,1
-0.0001342519,6.589881e-05,9,1
-0.0001010285,7.092284e-05,9,1
-7.477388e-05,7.821578e-05,9,1
-6.083626e-05,8.939829e-05,9,1
-5.808115e-05,0.0001030118,9,1
-6.375344e-05,0.0001166253,9,1
-7.169464e-05,0.0001248906,9,1
-7.801519e-05,0.0001266733,9,1
-8.287715e-05,0.0001240803,9,1
-8.644259e-05,0.0001175977,9,1
-9.211487e-05,0.000110953,9,1
-9.859748e-05,0.0001083599,9,1
-0.0001068628,0.0001070634,9,1
-0.0001154523,0.0001033359,9,1
-0.0001238797,9.977047e-05,9,1
-0.0001324691,9.814982e-05,9,1
-0.0001365208,9.944634e-05,9,1
-0.0001332795,0.0001002567,9,1
-0.0001216107,9.814982e-05,9,1
-0.0001068628,8.956036e-05,9,1
-9.649064e-05,7.772959e-05,9,1
-9.438378e-05,6.557468e-05,9,1
-9.713889e-05,5.244739e-05,9,1
-9.908367e-05,3.60788e-05,9,1
-9.843541e-05,1.64689e-05,9,1
-9.794922e-05,-3.858999e-07,9,1
-0.0001036215,-8.165035e-06,9,1
-0.0001229073,-6.382317e-06,9,1
-0.0001561307,3.827799e-06,9,1
-0.0001948643,1.663096e-05,9,1
-0.0002245222,2.489629e-05,9,1
-0.0002358668,2.489629e-05,9,1
-0.000223874,1.484824e-05,9,1
-0.0001982676,-2.330684e-06,9,1
-0.0001747682,-2.275091e-05,9,1
-0.0001663408,-3.960571e-05,9,1
-0.0001746061,-4.90055e-05,9,1
-0.0001880575,-5.030202e-05,9,1
-0.0001972953,-4.673658e-05,9,1
-0.0001964849,-4.284701e-05,9,1
-0.0001877334,-4.47918e-05,9,1
-0.0001754164,-5.370539e-05,9,1
-0.0001647201,-6.748094e-05,9,1
-0.0001572651,-8.109443e-05,9,1
-0.0001558065,-8.935975e-05,9,1
-0.0001614788,-9.260107e-05,9,1
-0.0001703924,-9.162867e-05,9,1
-0.0001801163,-8.935975e-05,9,1
-0.0001938919,-8.854943e-05,9,1
-0.0002154466,-9.162867e-05,9,1
-0.0002410529,-9.405965e-05,9,1
-0.0002621213,-9.422172e-05,9,1
-0.0002647144,-9.2439e-05,9,1
-0.0002352185,-9.405965e-05,9,1
-0.0001716889,-9.908367e-05,9,1
-8.44978e-05,-0.000104756,9,1
6.744974e-06,-0.0001063766,9,1
8.161915e-05,-0.0001008664,9,1
0.0001245665,-8.887356e-05,9,1
0.0001291043,-7.574627e-05,9,1
0.0001044704,-6.586029e-05,9,1
6.930219e-05,-5.937768e-05,9,1
4.499239e-05,-5.613637e-05,9,1
4.904402e-05,-5.59743e-05,9,1
8.453633e-05,-5.775702e-05,9,1
0.0001449867,-5.872941e-05,9,1
0.0002185644,-5.532604e-05,9,1
0.000299597,-4.592625e-05,9,1
0.0003867882,-3.21507e-05,9,1
0.0004820827,-1.562004e-05,9,1
0.0005801322,5.286387e-06,9,1
0.000663596,2.603075e-05,9,1
0.0007050846,4.158902e-05,9,1
0.0006848265,5.001642e-05,9,1
0.0006021731,5.341979e-05,9,1
0.0004744656,5.358185e-05,9,1
0.0003286068,5.131294e-05,9,1
0.0001939304,4.807163e-05,9,1
9.523264e-05,4.531652e-05,9,1
4.175109e-05,4.499239e-05,9,1
2.39239e-05,4.677511e-05,9,1
2.295151e-05,5.179914e-05,9,1
2.068259e-05,5.876794e-05,9,1
9.824215e-06,6.395404e-05,9,1
-9.947754e-06,6.314371e-05,9,1
-3.733679e-05,5.649903e-05,9,1
-6.699475e-05,4.628891e-05,9,1
-9.730096e-05,3.769945e-05,9,1
-0.0001173971,3.640293e-05,9,1
-0.0001135075,4.369587e-05,9,1
-7.18567e-05,5.860588e-05,9,1
1.452411e-05,7.610894e-05,9,1
0.0001367214,8.972242e-05,9,1
0.0002699391,0.0001013911,9,1
0.0003770643,0.0001130598,9,1
0.0004294114,0.0001227837,9,1
0.0004192013,0.0001279698,9,1
0.0003592371,0.0001278078,9,1
0.0002804733,0.0001273216,9,1
0.0002130541,0.0001286181,9,1
0.0001746447,0.0001329939,9,1
0.0001673517,0.0001376938,9,1
0.0001842065,0.0001394765,9,1
0.0002140265,0.0001362352,9,1
0.0002509774,0.0001269974,9,1
0.000292142,0.0001145184,9,1
0.0003320101,0.000103498,9,1
0.0003624784,9.652917e-05,9,1
0.000373823,9.426025e-05,9,1
0.0003592371,9.652917e-05,9,1
0.0003149933,9.782569e-05,9,1
0.0002427121,9.31258e-05,9,1
0.0001514693,7.935024e-05,9,1
5.99024e-05,5.795762e-05,9,1
-9.137427e-06,3.218923e-05,9,1
-4.706071e-05,5.934648e-06,9,1
-6.342931e-05,-1.643037e-05,9,1
-7.18567e-05,-2.907146e-05,9,1
-8.40116e-05,-3.053005e-05,9,1
-0.0001071869,-2.696461e-05,9,1
-0.0001400862,-2.339918e-05,9,1
-0.0001786577,-2.09682e-05,9,1
-0.0002193361,-2.09682e-05,9,1
-0.000263742,-2.485776e-05,9,1
-0.0003178718,-2.955766e-05,9,1
-0.0003818876,-3.279896e-05,9,1
-0.0004481723,-3.393342e-05,9,1
-0.0005001953,-3.847125e-05,9,1
-0.0005236948,-4.884343e-05,9,1
-0.0005149432,-6.0188e-05,9,1
-0.0004817198,-6.91016e-05,9,1
-0.0004390967,-7.250496e-05,9,1
-0.0004018217,-6.926366e-05,9,1
-0.0003741085,-6.148453e-05,9,1
-0.0003528779,-5.2733e-05,9,1
-0.000335537,-4.608832e-05,9,1
-0.0003237062,-4.414354e-05,9,1
-0.0003128478,-4.706071e-05,9,1
-0.000290969,-5.22468e-05,9,1
-0.0002493182,-5.64605e-05,9,1
-0.000191623,-5.64605e-05,9,1
-0.0001310105,-5.354332e-05,9,1
-8.725291e-05,-5.013995e-05,9,1
-7.218083e-05,-4.787104e-05,9,1
-8.190475e-05,-4.738484e-05,9,1
-9.875954e-05,-4.90055e-05,9,1
-0.0001065387,-5.192267e-05,9,1
-9.486997e-05,-5.062615e-05,9,1
-5.791909e-05,-4.317115e-05,9,1
-5.479652e-07,-2.988179e-05,9,1
6.735741e-05,-1.335113e-05,9,1
0.0001389903,-1.196227e-06,9,1
0.0002075439,5.934648e-06,9,1
0.0002644289,1.22552e-05,9,1
0.000304459,2.311357e-05,9,1
0.0003261758,3.899597e-05,9,1
0.0003315239,5.795762e-05,9,1
0.0003185587,7.821578e-05,9,1
0.0002837146,9.68533e-05,9,1
0.0002269918,0.0001137081,9,1
0.0001517934,0.0001287802,9,1
7.059871e-05,0.0001410971,9,1
1.720949e-06,0.0001487142,9,1
-4.317115e-05,0.0001480659,9,1
-6.116039e-05,0.0001428799,9,1
-6.083626e-05,0.0001399627,9,1
-4.835724e-05,0.0001435281,9,1
-3.620233e-05,0.0001509831,9,1
-3.360929e-05,0.0001571416,9,1
-3.863332e-05,0.0001558451,9,1
-3.895745e-05,0.0001475797,9,1
-2.664048e-05,0.0001341283,9,1
-3.858999e-07,0.0001195424,9,1
3.251336e-05,0.0001057669,9,1
6.103686e-05,9.393612e-05,9,1
7.740546e-05,8.437427e-05,9,1
7.708133e-05,7.918817e-05,9,1
5.99024e-05,7.465034e-05,9,1
3.13789e-05,6.978839e-05,9,1
-1.682422e-06,6.476436e-05,9,1
-2.696461e-05,5.94162e-05,9,1
-3.474375e-05,5.115087e-05,9,1
-2.566809e-05,4.077869e-05,9,1
-1.027188e-05,3.13789e-05,9,1
9.106227e-07,2.635488e-05,9,1
2.623614e-07,2.878586e-05,9,1
-1.221667e-05,3.55926e-05,9,1
-3.279896e-05,4.142696e-05,9,1
-5.257093e-05,4.175109e-05,9,1
-6.504996e-05,3.834771e-05,9,1
-6.893953e-05,3.235129e-05,9,1
-6.569822e-05,2.603075e-05,9,1
-6.197072e-05,2.408596e-05,9,1
-6.06742e-05,2.81376e-05,9,1
-5.872941e-05,3.445814e-05,9,1
-5.305713e-05,3.672706e-05,9,1
-4.608832e-05,3.316162e-05,9,1
-4.074016e-05,2.829966e-05,9,1
-3.425755e-05,2.408596e-05,9,1
-2.777494e-05,2.116879e-05,9,1
-2.485776e-05,1.711715e-05,9,1
-2.437157e-05,1.338965e-05,9,1
-2.339918e-05,6.744974e-06,9,1
-1.983374e-05,-2.330684e-06,9,1
-1.578211e-05,-1.367526e-05,9,1
-1.335113e-05,-3.101625e-05,9,1
-1.399939e-05,-5.613637e-05,9,1
-1.3027e-05,-8.644259e-05,9,1
-3.627206e-06,-0.0001141558,9,1
1.727922e-05,-0.0001339277,9,1
4.515445e-05,-0.0001438137,9,1
7.270556e-05,-0.0001462447,9,1
9.150514e-05,-0.0001423551,9,1
9.361199e-05,-0.0001353863,9,1
8.145709e-05,-0.0001256624,9,1
6.654708e-05,-0.0001128592,9,1
5.844381e-05,-9.940781e-05,9,1
6.557468e-05,-8.952183e-05,9,1
8.388807e-05,-8.611845e-05,9,1
0.000101067,-8.611845e-05,9,1
0.0001086841,-8.595638e-05,9,1
0.00010366,-8.482193e-05,9,1
9.004655e-05,-8.287715e-05,9,1
7.432621e-05,-7.688073e-05,9,1
6.03886e-05,-6.81292e-05,9,1
4.888196e-05,-5.824322e-05,9,1
3.445814e-05,-4.949169e-05,9,1
1.468618e-05,-4.122636e-05,9,1
-4.923729e-06,-3.020592e-05,9,1
-1.529591e-05,-1.788895e-05,9,1
-1.124428e-05,-5.247859e-06,9,1
7.069105e-06,7.23117e-06,9,1
3.478228e-05,2.262738e-05,9,1
6.768154e-05,3.883391e-05,9,1
0.0001072255,5.179914e-05,9,1
0.0001470936,6.200925e-05,9,1
0.0001752929,6.897806e-05,9,1
0.0001838824,7.367795e-05,9,1
0.0001709172,7.481241e-05,9,1
0.0001415833,7.384002e-05,9,1
0.0001039842,7.546067e-05,9,1
6.930219e-05,8.194328e-05,9,1
5.439218e-05,9.199134e-05,9,1
6.768154e-05,9.814982e-05,9,1
0.0001047945,9.977047e-05,9,1
0.0001483901,0.0001009049,9,1
0.0001761032,0.00010366,9,1
0.0001762653,0.0001069013,9,1
0.0001503349,0.0001064152,9,1
0.000111115,9.847395e-05,9,1
7.351589e-05,8.42122e-05,9,1
4.839576e-05,7.092284e-05,9,1
3.526847e-05,6.314371e-05,9,1
2.943412e-05,6.119892e-05,9,1
3.008238e-05,6.152305e-05,9,1
4.564065e-05,6.071273e-05,9,1
8.875003e-05,5.682316e-05,9,1
0.0001594105,4.72613e-05,9,1
0.0002433604,3.413401e-05,9,1
0.0003190449,2.538249e-05,9,1
0.0003666921,2.619281e-05,9,1
0.0003723644,3.332369e-05,9,1
0.0003342791,4.661304e-05,9,1
0.0002670219,6.265751e-05,9,1
0.0001900409,7.789165e-05,9,1
0.0001143563,8.486046e-05,9,1
4.434413e-05,8.04847e-05,9,1
-1.837515e-05,6.654708e-05,9,1
-7.169464e-05,4.612685e-05,9,1
-0.0001165867,2.457216e-05,9,1
-0.000149486,6.90704e-06,9,1
-0.0001653684,-5.57199e-06,9,1
-0.0001626133,-1.286493e-05,9,1
-0.0001407345,-1.545797e-05,9,1
-0.0001092938,-1.416145e-05,9,1
-7.914964e-05,-1.25408e-05,9,1
-6.407757e-05,-9.947754e-06,9,1
-7.574627e-05,-6.868513e-06,9,1
-0.0001112386,-5.247859e-06,9,1
-0.0001556445,-5.734056e-06,9,1
-0.0001909747,-1.173047e-05,9,1
-0.0002094502,-2.437157e-05,9,1
-0.0002117191,-3.798505e-05,9,1
-0.0002028055,-5.176061e-05,9,1
-0.000189192,-6.553616e-05,9,1
-0.0001754164,-7.769106e-05,9,1
-0.0001642339,-8.320128e-05,9,1
-0.0001580754,-7.833932e-05,9,1
-0.0001585616,-6.748094e-05,9,1
-0.000166989,-5.937768e-05,9,1
-0.0001812508,-6.06742e-05,9,1
-0.0001982676,-6.845333e-05,9,1
-0.0002123673,-7.833932e-05,9,1
-0.0002173914,-8.709085e-05,9,1
-0.0002126914,-9.130454e-05,9,1
-0.0001968091,-8.854943e-05,9,1
-0.000169258,-7.736692e-05,9,1
-0.0001360346,-5.921561e-05,9,1
-0.0001094559,-4.187462e-05,9,1
-9.66527e-05,-3.101625e-05,9,1
-9.859748e-05,-2.599222e-05,9,1
-0.000112211,-2.404744e-05,9,1
-0.0001303623,-2.177852e-05,9,1
-0.0001481895,-1.448558e-05,9,1
-0.0001658546,-1.844488e-06,9,1
-0.0001814128,1.193106e-05,9,1
-0.0001972953,2.214118e-05,9,1
-0.0002100984,3.024445e-05,9,1
-0.0002105846,3.656499e-05,9,1
-0.0001880575,4.094075e-05,9,1
-0.0001389517,4.256141e-05,9,1
-6.877746e-05,4.110282e-05,9,1
9.824215e-06,4.061663e-05,9,1
8.956036e-05,3.996837e-05,9,1
0.0001667035,4.077869e-05,9,1
0.0002391467,4.645098e-05,9,1
0.0003089969,5.666109e-05,9,1
0.0003746333,6.995045e-05,9,1
0.0004229288,8.46984e-05,9,1
0.0004367043,9.701536e-05,9,1
0.0004115842,0.0001044704,9,1
0.0003603715,0.0001098185,9,1
0.0003023522,0.0001143563,9,1
0.0002566497,0.0001197045,9,1
0.0002344468,0.000123432,9,1
0.0002391467,0.0001175977,9,1
0.0002615117,0.0001018773,9,1
0.000287118,8.113296e-05,9,1
0.0003089969,6.233338e-05,9,1
0.0003274723,4.985435e-05,9,1
0.000341734,4.499239e-05,9,1
0.0003498373,4.72613e-05,9,1
0.0003459477,5.423012e-05,9,1
0.0003245551,6.087479e-05,9,1
0.0002842008,6.249545e-05,9,1
0.000227478,5.876794e-05,9,1
0.0001566554,5.115087e-05,9,1
7.999851e-05,4.142696e-05,9,1
1.209313e-05,3.380988e-05,9,1
-3.717473e-05,3.024445e-05,9,1
-6.051213e-05,2.943412e-05,9,1
-5.354332e-05,2.748934e-05,9,1
-1.20546e-05,2.538249e-05,9,1
6.476436e-05,2.635488e-05,9,1
0.0001639484,3.170304e-05,9,1
0.0002605393,4.094075e-05,9,1
0.0003324963,4.888196e-05,9,1
0.0003631267,5.001642e-05,9,1
0.0003504856,4.402e-05,9,1
0.0003038107,3.332369e-05,9,1
0.0002441707,2.246531e-05,9,1
0.0001876099,1.290346e-05,9,1
0.0001328318,2.693341e-06,9,1
7.059871e-05,-5.734056e-06,9,1
-1.196227e-06,-9.623623e-06,9,1
-8.060823e-05,-9.137427e-06,9,1
-0.0001609926,-4.275467e-06,9,1
-0.0002290601,1.720949e-06,9,1
-0.0002695764,6.258778e-06,9,1
-0.0002788141,1.112074e-05,9,1
-0.0002663351,1.484824e-05,9,1
-0.0002525595,1.403791e-05,9,1
-0.0002570974,7.555301e-06,9,1
-0.0002841623,-1.034161e-06,9,1
-0.0003251648,-9.461558e-06,9,1
-0.0003658432,-1.756482e-05,9,1
-0.0003935563,-2.453363e-05,9,1
-0.0003980942,-2.7937e-05,9,1
-0.0003831841,-2.874733e-05,9,1
-0.0003593606,-2.777494e-05,9,1
-0.0003386162,-2.631635e-05,9,1
-0.0003215994,-2.826114e-05,9,1
-0.0003050687,-3.441962e-05,9,1
-0.0002985861,-3.992984e-05,9,1
-0.0003151167,-3.928157e-05,9,1
-0.0003582261,-2.955766e-05,9,1
-0.0004147869,-1.740276e-05,9,1
-0.0004578962,-7.840905e-06,9,1
-0.0004656754,-8.720959e-07,9,1
-0.0004280762,4.638125e-06,9,1
-0.0003514194,9.175954e-06,9,1
-0.0002535319,1.452411e-05,9,1
-0.0001556445,2.133085e-05,9,1
-7.056019e-05,2.586868e-05,9,1
6.582909e-06,2.732727e-05,9,1
9.16672e-05,2.684107e-05,9,1
0.0001992786,2.619281e-05,9,1
0.000326824,2.684107e-05,9,1
0.0004496696,3.105477e-05,9,1
0.0005344298,3.996837e-05,9,1
0.000562305,5.131294e-05,9,1
0.0005401021,5.860588e-05,9,1
0.0004861343,5.698522e-05,9,1
0.0004224426,4.418206e-05,9,1
0.000366368,2.651694e-05,9,1
0.0003219621,1.322759e-05,9,1
0.0002879283,8.203562e-06,9,1
0.0002594049,1.079661e-05,9,1
0.0002305572,2.116879e-05,9,1
0.0001900409,3.348575e-05,9,1
0.0001328318,4.191315e-05,9,1
7.238143e-05,4.758544e-05,9,1
2.846173e-05,5.341979e-05,9,1
1.290346e-05,5.925414e-05,9,1
1.744129e-05,6.800567e-05,9,1
2.522042e-05,7.67572e-05,9,1
1.64689e-05,8.194328e-05,9,1
-2.210265e-05,8.113296e-05,9,1
-9.535618e-05,7.6271e-05,9,1
-0.0001846542,6.816773e-05,9,1
-0.000261311,6.168512e-05,9,1
-0.000305879,6.022653e-05,9,1
-0.0003186821,6.265751e-05,9,1
-0.0003134961,6.346784e-05,9,1
-0.0003019894,6.281957e-05,9,1
-0.0002891863,6.427817e-05,9,1
-0.0002729798,7.043665e-05,9,1
-0.0002480217,7.805372e-05,9,1
-0.0002131776,8.323981e-05,9,1
-0.0001666649,8.291568e-05,9,1
-0.000104918,7.983644e-05,9,1
-2.291298e-05,7.708133e-05,9,1
8.064677e-05,7.52986e-05,9,1
0.0001987924,7.448828e-05,9,1
0.0003146691,7.189524e-05,9,1
0.0004013741,5.876794e-05,9,1
0.0004355699,3.753739e-05,9,1
0.0004073705,1.565857e-05,9,1
0.0003271482,-3.858999e-07,9,1
0.0002240746,-3.465141e-06,9,1
0.0001323456,5.934648e-06,9,1
6.849186e-05,2.197911e-05,9,1
3.624086e-05,3.786152e-05,9,1
2.586868e-05,4.82337e-05,9,1
2.035846e-05,4.985435e-05,9,1
4.151929e-06,4.628891e-05,9,1
-3.26369e-05,4.077869e-05,9,1
-8.303922e-05,3.575467e-05,9,1
-0.0001310105,2.910999e-05,9,1
-0.0001640719,2.068259e-05,9,1
-0.0001775233,1.22552e-05,9,1
-0.0001754164,8.203562e-06,9,1
-0.0001652063,9.66215e-06,9,1
-0.0001551583,1.679302e-05,9,1
-0.0001512687,2.781346e-05,9,1
-0.0001548341,3.656499e-05,9,1
-0.000156941,3.802358e-05,9,1
-0.0001496481,3.154097e-05,9,1
-0.0001267968,1.889987e-05,9,1
-9.017008e-05,8.365628e-06,9,1
-5.419158e-05,2.04508e-06,9,1
-3.377136e-05,-1.520357e-06,9,1
-3.344723e-05,-5.57199e-06,9,1
-4.754691e-05,-8.651231e-06,9,1
-6.553616e-05,-7.516774e-06,9,1
-7.574627e-05,-1.358292e-06,9,1
-6.958779e-05,5.772582e-06,9,1
-4.333321e-05,1.047248e-05,9,1
-6.868513e-06,1.209313e-05,9,1
2.214118e-05,1.047248e-05,9,1
2.846173e-05,7.23117e-06,9,1
8.689758e-06,2.369211e-06,9,1
-2.745081e-05,-5.247859e-06,9,1
-6.051213e-05,-1.67545e-05,9,1
-6.91016e-05,-3.101625e-05,9,1
-4.138842e-05,-4.722278e-05,9,1
1.9224e-05,-6.180866e-05,9,1
9.426025e-05,-7.18567e-05,9,1
0.0001647587,-7.736692e-05,9,1
0.000215161,-8.255302e-05,9,1
0.0002357433,-9.341139e-05,9,1
0.0002268297,-0.0001131834,9,1
0.0001939304,-0.0001404103,9,1
0.0001488763,-0.000169258,9,1
0.0001054428,-0.0001914609,9,1
7.448828e-05,-0.0002058847,9,1
6.249545e-05,-0.0002144742,9,1
6.897806e-05,-0.0002193361,9,1
8.583286e-05,-0.0002194982,9,1
9.993253e-05,-0.0002131776,9,1
0.0001043083,-0.0002002124,9,1
0.0001033359,-0.0001815749,9,1
0.000108522,-0.0001561307,9,1
0.0001326697,-0.0001212866,9,1
0.0001790204,-7.688073e-05,9,1
0.0002336365,-3.101625e-05,9,1
0.0002752873,7.393236e-06,9,1
0.0002892249,3.056858e-05,9,1
0.000279663,4.045456e-05,9,1
0.0002608634,4.596478e-05,9,1
0.0002410915,5.19612e-05,9,1
0.0002224539,5.585077e-05,9,1
0.0002023578,5.52025e-05,9,1
0.0001777239,5.423012e-05,9,1
0.0001480659,6.022653e-05,9,1
0.0001206769,7.497447e-05,9,1
9.944634e-05,9.798775e-05,9,1
8.161915e-05,0.0001226217,9,1
6.525056e-05,0.0001425557,9,1
4.661304e-05,0.0001540623,9,1
2.278944e-05,0.0001577899,9,1
-2.978945e-06,0.0001563313,9,1
-2.258885e-05,0.0001542244,9,1
-2.712668e-05,0.000155521,9,1
-1.983374e-05,0.0001608691,9,1
-1.367526e-05,0.0001634622,9,1
-2.518189e-05,0.0001566554,9,1
-6.278104e-05,0.0001440143,9,1
-0.0001229073,0.0001291043,9,1
-0.0001985918,0.0001156529,9,1
-0.00027849,0.000103498,9,1
-0.0003512573,9.134307e-05,9,1
-0.0004078181,7.643307e-05,9,1
-0.0004246728,6.330578e-05,9,1
-0.0003779981,5.341979e-05,9,1
-0.0002656868,4.531652e-05,9,1
-0.000114804,3.948217e-05,9,1
2.846173e-05,3.656499e-05,9,1
0.000130887,3.688912e-05,9,1
0.0001798307,4.320967e-05,9,1
0.0001931201,4.77475e-05,9,1
0.0001997648,4.515445e-05,9,1
0.0002172679,3.316162e-05,9,1
0.0002368777,1.54965e-05,9,1
0.0002367157,-2.492749e-06,9,1
0.0001970097,-1.448558e-05,9,1
0.0001190562,-2.161646e-05,9,1
2.457216e-05,-2.501983e-05,9,1
-5.451572e-05,-3.036798e-05,9,1
-8.984595e-05,-3.960571e-05,9,1
-7.866345e-05,-4.997789e-05,9,1
-3.879538e-05,-5.743289e-05,9,1
1.002961e-07,-6.099833e-05,9,1
2.165498e-05,-6.06742e-05,9,1
2.862379e-05,-5.727083e-05,9,1
4.515445e-05,-5.338126e-05,9,1
9.879808e-05,-5.030202e-05,9,1
0.0002018716,-4.884343e-05,9,1
0.0003410858,-4.592625e-05,9,1
0.000483055,-4.106429e-05,9,1
0.0005986077,-3.701266e-05,9,1
0.0006689441,-3.506788e-05,9,1
0.0006840162,-3.101625e-05,9,1
0.0006481997,-2.453363e-05,9,1
0.0005705704,-1.497178e-05,9,1
0.0004653899,-6.868513e-06,9,1
0.0003436788,-2.492749e-06,9,1
0.0002146748,-1.196227e-06,9,1
8.680524e-05,-1.358292e-06,9,1
-2.664048e-05,-3.789272e-06,9,1
-0.0001143178,-9.947754e-06,9,1
-0.0001721751,-1.578211e-05,9,1
-0.0002084778,-1.886135e-05,9,1
-0.0002355427,-1.691656e-05,9,1
-0.0002558008,-6.544382e-06,9,1
-0.0002629317,7.717366e-06,9,1
-0.000253856,1.889987e-05,9,1
-0.0002225774,2.489629e-05,9,1
-0.0001671511,3.13789e-05,9,1
-9.843541e-05,4.239934e-05,9,1
-3.668853e-05,6.006447e-05,9,1
4.80019e-06,8.016057e-05,9,1
1.841368e-05,0.0001013911,9,1
3.665733e-06,0.0001231079,9,1
-3.296103e-05,0.0001422316,9,1
-8.109443e-05,0.0001539003,9,1
-0.0001308485,0.0001535762,9,1
-0.0001802784,0.0001410971,9,1
-0.000231329,0.0001226217,9,1
-0.0002799486,0.0001031738,9,1
-0.0003152788,8.680524e-05,9,1
-0.0003324577,7.594687e-05,9,1
-0.0003326198,7.124698e-05,9,1
-0.000318196,7.059871e-05,9,1
-0.0002985861,7.124698e-05,9,1
-0.0002802727,6.962632e-05,9,1
-0.0002666592,6.281957e-05,9,1
-0.0002572594,5.487838e-05,9,1
-0.0002514251,4.82337e-05,9,1
-0.0002499665,4.320967e-05,9,1
-0.000256287,3.850978e-05,9,1
-0.0002692523,3.656499e-05,9,1
-0.0002801106,3.802358e-05,9,1
-0.0002825416,4.272347e-05,9,1
-0.0002757348,5.179914e-05,9,1
-0.0002668213,6.476436e-05,9,1
-0.0002630937,8.016057e-05,9,1
-0.0002624455,9.571884e-05,9,1
-0.0002616352,0.0001083599,9,1
-0.0002582318,0.0001188942,9,1
-0.0002498044,0.0001300767,9,1
-0.000236353,0.0001427178,9,1
-0.000221605,0.0001535762,9,1
-0.0002063709,0.0001582761,9,1
-0.0001854645,0.0001508211,9,1
-0.0001472171,0.0001299146,9,1
-8.757704e-05,9.928428e-05,9,1
-1.124428e-05,6.476436e-05,9,1
6.897806e-05,3.299956e-05,9,1
0.0001404489,9.824215e-06,9,1
0.0001926339,-3.627206e-06,9,1
0.0002222919,-7.192643e-06,9,1
0.0002336365,-3.858999e-07,9,1
0.0002355812,1.338965e-05,9,1
0.000234933,2.408596e-05,9,1
0.0002383363,2.408596e-05,9,1
0.0002514636,1.193106e-05,9,1
0.0002718839,-6.706447e-06,9,1
0.0002884145,-2.534396e-05,9,1
0.0002908455,-3.571614e-05,9,1
0.0002731804,-4.041603e-05,9,1
0.0002396328,-4.05781e-05,9,1
0.0001944166,-4.171256e-05,9,1
0.0001386662,-5.013995e-05,9,1
7.772959e-05,-6.586029e-05,9,1
2.278944e-05,-8.579432e-05,9,1
-1.594417e-05,-0.0001045939,9,1
-3.960571e-05,-0.0001151281,9,1
-5.516398e-05,-0.000114804,9,1
-6.504996e-05,-0.0001045939,9,1
-7.023606e-05,-8.790117e-05,9,1
-6.731888e-05,-6.829127e-05,9,1
-5.370539e-05,-5.176061e-05,9,1
-2.955766e-05,-4.398147e-05,9,1
3.017472e-06,-4.462973e-05,9,1
3.964424e-05,-4.916756e-05,9,1
6.751948e-05,-5.305713e-05,9,1
7.789165e-05,-5.710876e-05,9,1
6.978839e-05,-6.245691e-05,9,1
5.341979e-05,-6.974985e-05,9,1
3.769945e-05,-7.65566e-05,9,1
2.975825e-05,-8.044617e-05,9,1
2.829966e-05,-7.752899e-05,9,1
2.943412e-05,-6.845333e-05,9,1
3.267542e-05,-5.613637e-05,9,1
4.158902e-05,-4.38194e-05,9,1
5.504044e-05,-3.198864e-05,9,1
6.541262e-05,-1.724069e-05,9,1
6.379197e-05,-2.006553e-06,9,1
5.406805e-05,1.322759e-05,9,1
4.628891e-05,2.76514e-05,9,1
5.682316e-05,3.93201e-05,9,1
9.344993e-05,4.790957e-05,9,1
0.0001443384,5.034055e-05,9,1
0.0001937684,4.72613e-05,9,1
0.0002261814,3.996837e-05,9,1
0.0002360674,3.18651e-05,9,1
0.0002269918,2.684107e-05,9,1
0.0002054371,2.667901e-05,9,1
0.0001761032,3.154097e-05,9,1
0.0001385041,3.899597e-05,9,1
8.826383e-05,4.72613e-05,9,1
2.732727e-05,5.260946e-05,9,1
-3.911951e-05,5.358185e-05,9,1
-0.0001029732,5.277153e-05,9,1
-0.000151917,5.277153e-05,9,1
-0.0001729855,5.504044e-05,9,1
-0.0001590478,5.876794e-05,9,1
-0.0001045939,6.168512e-05,9,1
-1.416145e-05,6.152305e-05,9,1
9.442231e-05,6.03886e-05,9,1
0.0001939304,5.925414e-05,9,1
0.0002540567,5.730935e-05,9,1
0.0002582704,5.131294e-05,9,1
0.0002179161,3.98063e-05,9,1
0.0001637863,2.716521e-05,9,1
0.0001268354,1.873781e-05,9,1
0.0001240803,1.679302e-05,9,1
0.000150659,2.246531e-05,9,1
0.0001869616,3.316162e-05,9,1
0.0002128921,4.077869e-05,9,1
0.0002188885,4.094075e-05,9,1
0.0001983062,3.429608e-05,9,1
0.0001508211,2.878586e-05,9,1
8.291568e-05,2.700314e-05,9,1
7.555301e-06,2.76514e-05,9,1
-6.148453e-05,2.748934e-05,9,1
-0.0001159385,2.635488e-05,9,1
-0.0001548341,2.603075e-05,9,1
-0.0001783336,2.959619e-05,9,1
-0.0001849783,3.364782e-05,9,1
-0.0001780095,3.202716e-05,9,1
-0.0001679614,2.295151e-05,9,1
-0.0001642339,1.014835e-05,9,1
-0.0001686097,5.86492e-07,9,1
-0.0001720131,-1.682422e-06,9,1
-0.0001637477,4.244267e-07,9,1
-0.0001391138,1.883015e-06,9,1
-0.0001003802,2.369211e-06,9,1
-5.629844e-05,-1.682422e-06,9,1
-1.351319e-05,-1.124428e-05,9,1
2.635488e-05,-2.194059e-05,9,1
6.670914e-05,-2.809907e-05,9,1
0.0001091703,-2.453363e-05,9,1
0.0001493625,-1.075808e-05,9,1
0.0001803169,6.420843e-06,9,1
0.0001910133,1.97102e-05,9,1
0.0001762653,2.570662e-05,9,1
0.0001415833,2.586868e-05,9,1
9.847395e-05,2.133085e-05,9,1
5.957827e-05,1.193106e-05,9,1
3.251336e-05,1.234753e-06,9,1
1.857574e-05,-6.868513e-06,9,1
1.452411e-05,-8.813297e-06,9,1
1.338965e-05,-1.682422e-06,9,1
1.22552e-05,1.274139e-05,9,1
1.565857e-05,2.748934e-05,9,1
2.76514e-05,3.445814e-05,9,1
4.758544e-05,3.073064e-05,9,1
7.043665e-05,2.149292e-05,9,1
8.923623e-05,1.355172e-05,9,1
9.68533e-05,1.047248e-05,9,1
8.875003e-05,1.419998e-05,9,1
7.238143e-05,2.327564e-05,9,1
5.909208e-05,3.575467e-05,9,1
5.374392e-05,4.564065e-05,9,1
5.423012e-05,4.855783e-05,9,1
5.341979e-05,4.547859e-05,9,1
4.45062e-05,3.705119e-05,9,1
2.732727e-05,2.570662e-05,9,1
8.851824e-06,1.59827e-05,9,1
-9.785688e-06,1.014835e-05,9,1
-2.761287e-05,1.193106e-05,9,1
-4.171256e-05,2.570662e-05,9,1
-4.560212e-05,5.1475e-05,9,1
-3.944364e-05,7.90261e-05,9,1
-3.069211e-05,9.879808e-05,9,1
-2.550602e-05,0.0001039842,9,1
-2.46957e-05,9.507057e-05,9,1
-2.518189e-05,7.513654e-05,9,1
-2.728874e-05,5.293359e-05,9,1
-3.409549e-05,3.818565e-05,9,1
-4.446767e-05,3.478228e-05,9,1
-5.354332e-05,4.288554e-05,9,1
-5.872941e-05,5.649903e-05,9,1
-6.002594e-05,6.865393e-05,9,1
-6.035007e-05,7.691926e-05,9,1
-7.23429e-05,8.291568e-05,9,1
-0.0001063766,8.988449e-05,9,1
-0.0001655305,9.328786e-05,9,1
-0.0002376495,8.712937e-05,9,1
-0.0003047445,7.221937e-05,9,1
-0.0003472056,5.228533e-05,9,1
-0.0003569296,3.040651e-05,9,1
-0.0003379679,8.689758e-06,9,1
-0.0003015032,-7.840905e-06,9,1
-0.0002643903,-1.934754e-05,9,1
-0.0002324634,-2.680255e-05,9,1
-0.0001955125,-3.296103e-05,9,1
-0.0001387897,-3.782299e-05,9,1
-5.759496e-05,-4.138842e-05,9,1
4.061663e-05,-4.333321e-05,9,1
0.0001373696,-4.462973e-05,9,1
0.0002068957,-4.657452e-05,9,1
0.0002313675,-4.997789e-05,9,1
0.0002112714,-5.240886e-05,9,1
0.0001613553,-5.062615e-05,9,1
0.0001007429,-4.576419e-05,9,1
4.855783e-05,-4.236082e-05,9,1
1.582063e-05,-4.203669e-05,9,1
1.558884e-06,-4.576419e-05,9,1
-3.789272e-06,-5.22468e-05,9,1
-1.237873e-05,-5.743289e-05,9,1
-3.555408e-05,-5.483985e-05,9,1
-7.347736e-05,-4.365734e-05,9,1
-0.0001156143,-2.955766e-05,9,1
-0.0001483515,-1.659243e-05,9,1
-0.0001553203,-1.189254e-05,9,1
-0.0001203142,-1.659243e-05,9,1
-3.604027e-05,-3.004385e-05,9,1
9.101894e-05,-4.770897e-05,9,1
0.0002409294,-6.359137e-05,9,1
0.0004018603,-7.104638e-05,9,1
0.0005551741,-7.169464e-05,9,1
0.0006731578,-6.731888e-05,9,1
0.0007303669,-5.775702e-05,9,1
0.0007130259,-4.673658e-05,9,1
0.0006334517,-3.63644e-05,9,1
0.0005248679,-3.101625e-05,9,1
0.0004276287,-3.020592e-05,9,1
0.0003730126,-3.101625e-05,9,1
0.0003710679,-3.020592e-05,9,1
0.0004028327,-2.680255e-05,9,1
0.0004321665,-2.291298e-05,9,1
0.000425846,-1.886135e-05,9,1
0.0003637749,-1.270286e-05,9,1
0.0002525981,-3.14101e-06,9,1
0.0001265113,8.851824e-06,9,1
2.975825e-05,2.295151e-05,9,1
-3.14101e-06,3.753739e-05,9,1
3.737532e-05,4.985435e-05,9,1
0.000128456,5.487838e-05,9,1
0.0002213195,5.293359e-05,9,1
0.000267184,4.82337e-05,9,1
0.0002363916,4.645098e-05,9,1
0.0001368834,4.790957e-05,9,1
3.017472e-06,5.293359e-05,9,1
-0.0001282554,5.666109e-05,9,1
-0.0002319772,5.374392e-05,9,1
-0.0002995585,4.288554e-05,9,1
-0.0003412093,2.878586e-05,9,1
-0.0003697327,1.808955e-05,9,1
-0.0003920977,1.744129e-05,9,1
-0.0004105732,2.76514e-05,9,1
-0.0004219178,4.337174e-05,9,1
-0.0004188385,5.860588e-05,9,1
-0.0003917736,7.124698e-05,9,1
-0.0003321336,8.145709e-05,9,1
-0.0002399184,8.988449e-05,9,1
-0.0001336036,9.669123e-05,9,1
-4.122636e-05,0.0001005808,9,1
1.954813e-05,0.0001041462,9,1
4.175109e-05,0.0001125736,9,1
3.105477e-05,0.0001278078,9,1
1.002961e-07,0.0001470936,9,1
-3.68506e-05,0.0001663793,9,1
-7.153257e-05,0.0001788584,9,1
-0.0001062146,0.0001777239,9,1
-0.0001425172,0.000160707,9,1
-0.0001778474,0.0001313732,9,1
-0.0002018331,0.0001013911,9,1
-0.0002000504,8.064677e-05,9,1
-0.000171851,7.043665e-05,9,1
-0.0001342519,6.914012e-05,9,1
-0.0001099421,6.962632e-05,9,1
-0.0001109144,6.816773e-05,9,1
-0.000134576,6.314371e-05,9,1
-0.0001733096,5.487838e-05,9,1
-0.0002169052,4.466826e-05,9,1
-0.0002548284,3.429608e-05,9,1
-0.0002862691,2.376183e-05,9,1
-0.0003102548,1.419998e-05,9,1
-0.0003228959,4.151929e-06,9,1
-0.0003222476,-1.010982e-05,9,1
-0.0003113892,-2.907146e-05,9,1
-0.0002953447,-4.657452e-05,9,1
-0.0002767073,-5.743289e-05,9,1
-0.0002640662,-6.229485e-05,9,1
-0.0002622834,-6.407757e-05,9,1
-0.0002658489,-6.715681e-05,9,1
-0.000266173,-7.590833e-05,9,1
-0.0002558008,-9.227693e-05,9,1
-0.0002360289,-0.0001088076,9,1
-0.0002133397,-0.0001177212,9,1
-0.0001961608,-0.0001149661,9,1
-0.0001815749,-0.0001031353,9,1
-0.0001596961,-8.984595e-05,9,1
-0.0001201522,-8.02841e-05,9,1
-6.326724e-05,-7.18567e-05,9,1
2.623614e-07,-6.261898e-05,9,1
5.714729e-05,-5.548811e-05,9,1
9.523264e-05,-5.483985e-05,9,1
0.0001137081,-5.905355e-05,9,1
0.000118408,-6.342931e-05,9,1
0.000118408,-6.261898e-05,9,1
0.0001250527,-5.305713e-05,9,1
0.0001393144,-3.814712e-05,9,1
0.0001553589,-2.015787e-05,9,1
0.000158114,-1.196227e-06,9,1
0.0001339663,1.614476e-05,9,1
7.999851e-05,2.797553e-05,9,1
7.069105e-06,3.494434e-05,9,1
-6.164659e-05,4.077869e-05,9,1
-9.892161e-05,5.082674e-05,9,1
-8.871149e-05,6.508849e-05,9,1
-2.874733e-05,7.951231e-05,9,1
6.330578e-05,9.020862e-05,9,1
0.0001584381,9.928428e-05,9,1
0.0002281262,0.0001070634,9,1
0.0002521119,0.0001167873,9,1
0.0002237505,0.0001310491,9,1
0.0001517934,0.0001483901,9,1
5.909208e-05,0.000162976,9,1
-2.712668e-05,0.0001699448,9,1
-8.44978e-05,0.0001649207,9,1
-0.0001112386,0.0001522796,9,1
-0.0001169109,0.0001417454,9,1
-0.0001114006,0.0001375317,9,1
-9.503204e-05,0.000135749,9,1
-5.808115e-05,0.0001316974,9,1
7.555301e-06,0.0001260251,9,1
9.669123e-05,0.0001188942,9,1
0.0001932822,0.0001080358,9,1
0.000274639,9.037068e-05,9,1
0.0003297412,6.687121e-05,9,1
0.0003579406,3.899597e-05,9,1
0.0003736609,8.365628e-06,9,1
0.0003919743,-2.177852e-05,9,1
0.0004148255,-4.673658e-05,9,1
0.0004371906,-6.780507e-05,9,1
0.0004538833,-8.547019e-05,9,1
0.0004619866,-9.989401e-05,9,1
0.0004657141,-0.0001110765,9,1
0.0004723587,-0.0001173971,9,1
0.0004896998,-0.0001199901,9,1
0.0005214646,-0.0001203142,9,1
0.0005598741,-0.0001173971,9,1
0.0005935837,-0.0001084835,9,1
0.0006135177,-9.260107e-05,9,1
0.0006230795,-7.218083e-05,9,1
0.000626645,-4.981582e-05,9,1
0.0006248623,-2.84232e-05,9,1
0.0006157866,-1.124428e-05,9,1
0.0005974732,-3.303076e-06,9,1
0.0005783495,-7.030578e-06,9,1
0.0005603603,-1.918548e-05,9,1
0.0005407503,-3.360929e-05,9,1
0.0005174129,-4.090223e-05,9,1
0.0004820827,-3.474375e-05,9,1
0.0004271425,-1.529591e-05,9,1
0.0003472443,1.193106e-05,9,1
0.0002470879,3.98063e-05,9,1
0.0001388282,6.589881e-05,9,1
3.056858e-05,8.875003e-05,9,1
-7.266703e-05,0.0001052807,9,1
-0.0001653684,0.000113546,9,1
-0.0002412149,0.000110953,9,1
-0.0002916173,0.0001015532,9,1
-0.0003172236,8.826383e-05,9,1
-0.0003254889,7.416415e-05,9,1
-0.0003292164,6.168512e-05,9,1
-0.0003345645,5.487838e-05,9,1
-0.0003438023,5.423012e-05,9,1
-0.0003583881,5.585077e-05,9,1
-0.0003757291,5.844381e-05,9,1
-0.0003914495,6.217132e-05,9,1
-0.0004006872,6.492643e-05,9,1
-0.0004011734,6.476436e-05,9,1
-0.0003914495,5.893001e-05,9,1
-0.0003745947,4.612685e-05,9,1
-0.0003564434,2.975825e-05,9,1
-0.0003418575,1.533444e-05,9,1
-0.0003313232,2.693341e-06,9,1
-0.0003203028,-8.327101e-06,9,1
-0.0003053928,-1.62683e-05,9,1
-0.0002864312,-2.307504e-05,9,1
-0.000266173,-3.26369e-05,9,1
-0.0002501286,-4.560212e-05,9,1
-0.0002434839,-5.872941e-05,9,1
-0.0002494803,-6.618442e-05,9,1
-0.0002669833,-6.796714e-05,9,1
-0.0002817312,-6.326724e-05,9,1
-0.0002836761,-5.727083e-05,9,1
-0.0002771934,-5.451572e-05,9,1
-0.0002650386,-5.775702e-05,9,1
-0.0002455907,-6.569822e-05,9,1
-0.0002193361,-7.363943e-05,9,1
-0.0001857886,-7.769106e-05,9,1
-0.0001514308,-7.266703e-05,9,1
-0.0001235555,-5.532604e-05,9,1
-0.0001054042,-3.117831e-05,9,1
-9.373552e-05,-9.623623e-06,9,1
-9.049421e-05,4.313994e-06,9,1
-9.324933e-05,1.22552e-05,9,1
-9.843541e-05,1.873781e-05,9,1
-9.924574e-05,2.732727e-05,9,1
-9.778715e-05,4.191315e-05,9,1
-9.519411e-05,6.022653e-05,9,1
-8.757704e-05,7.6271e-05,9,1
-6.521203e-05,8.74535e-05,9,1
-2.971972e-05,9.069481e-05,9,1
1.079661e-05,8.550872e-05,9,1
4.596478e-05,7.400208e-05,9,1
6.525056e-05,6.589881e-05,9,1
6.492643e-05,7.140904e-05,9,1
4.953022e-05,9.231547e-05,9,1
2.278944e-05,0.0001200286,9,1
-1.140634e-05,0.0001436902,9,1
-5.159854e-05,0.0001561692,9,1
-9.746302e-05,0.0001558451,9,1
-0.0001496481,0.0001454729,9,1
-0.0002003745,0.000130887,9,1
-0.0002384598,0.0001198666,9,1
-0.0002520733,0.0001167873,9,1
-0.0002360289,0.0001237561,9,1
-0.0001974573,0.0001376938,9,1
-0.0001402483,0.0001514693,9,1
-6.132246e-05,0.0001564933,9,1
4.547859e-05,0.0001519555,9,1
0.0001686482,0.0001420695,9,1
0.0002829043,0.000135911,9,1
0.0003611819,0.0001391524,9,1
0.0003926226,0.0001503349,9,1
0.0003846814,0.0001626518,9,1
0.0003470822,0.0001642725,9,1
0.0002892249,0.0001503349,9,1
0.0002171058,0.0001247285,9,1
0.0001351007,9.442231e-05,9,1
5.082674e-05,6.654708e-05,9,1
-2.777494e-05,4.434413e-05,9,1
-9.341139e-05,2.700314e-05,9,1
-0.0001418689,1.1769e-05,9,1
-0.0001723372,-7.030578e-06,9,1
-0.0001786577,-3.198864e-05,9,1
-0.0001535376,-5.743289e-05,9,1
-9.000802e-05,-7.704279e-05,9,1
2.04508e-06,-8.903562e-05,9,1
9.620504e-05,-9.794922e-05,9,1
0.000168,-0.0001089697,9,1
0.0002075439,-0.0001225832,9,1
0.000220023,-0.000137007,9,1
0.0002190506,-0.0001506204,9,1
0.0002184023,-0.0001642339,9,1
0.0002198609,-0.0001765509,9,1
0.0002122438,-0.0001853024,9,1
0.000185341,-0.0001883817,9,1
0.00013818,-0.0001859507,9,1
7.870197e-05,-0.0001802784,9,1
2.295151e-05,-0.0001726613,9,1
-1.20546e-05,-0.0001653684,9,1
-1.529591e-05,-0.0001551583,9,1
1.59827e-05,-0.0001384655,9,1
7.562274e-05,-0.0001191798,9,1
0.0001498487,-9.908367e-05,9,1
0.0002148369,-8.07703e-05,9,1
0.000249843,-6.132246e-05,9,1
0.00024255,-4.203669e-05,9,1
0.0001916615,-2.307504e-05,9,1
0.0001104668,-9.461558e-06,9,1
2.133085e-05,-2.168618e-06,9,1
-5.095028e-05,-2.168618e-06,9,1
-9.179074e-05,-6.382317e-06,9,1
-0.0001045939,-8.327101e-06,9,1
-0.0001024871,-7.100305e-07,9,1
-0.0001041077,1.484824e-05,9,1
-0.0001173971,3.380988e-05,9,1
-0.0001425172,5.406805e-05,9,1
-0.0001697442,7.497447e-05,9,1
-0.0001856265,9.069481e-05,9,1
-0.0001870851,0.0001009049,9,1
-0.0001807646,0.0001086841,9,1
-0.0001729855,0.0001120874,9,1
-0.0001647201,0.0001094944,9,1
-0.0001502963,0.0001031738,9,1
-0.0001251762,9.977047e-05,9,1
-8.871149e-05,0.0001043083,9,1
-5.062615e-05,0.0001187321,9,1
-1.902341e-05,0.0001389903,9,1
4.244267e-07,0.0001603829,9,1
1.1769e-05,0.0001759412,9,1
2.052053e-05,0.0001806411,9,1
3.283749e-05,0.000175455,9,1
5.293359e-05,0.0001615174,9,1
8.79397e-05,0.0001425557,9,1
0.000148228,0.0001222976,9,1
0.0002441707,0.0001009049,9,1
0.0003746333,8.016057e-05,9,1
0.0005222749,6.03886e-05,9,1
0.0006592202,3.899597e-05,9,1
0.0007546768,1.112074e-05,9,1
0.0007948689,-2.242678e-05,9,1
0.0007885484,-5.613637e-05,9,1
0.0007567836,-8.660465e-05,9,1
0.0007073536,-0.0001151281,9,1
0.0006328035,-0.0001433275,9,1
0.0005298919,-0.0001734716,9,1
0.0004034809,-0.0002032917,9,1
0.0002641047,-0.0002335979,9,1
0.0001213252,-0.0002632558,9,1
-1.189254e-05,-0.0002862691,9,1
-0.0001216107,-0.000298424,9,1
-0.0002006986,-0.0002955068,9,1
-0.0002575835,-0.0002765452,9,1
-0.0003066893,-0.0002457528,9,1
-0.0003569296,-0.0002079916,9,1
-0.0004086284,-0.0001665028,9,1
-0.0004478482,-0.0001191798,9,1
-0.0004593548,-6.569822e-05,9,1
-0.0004397449,-2.978945e-06,9,1
-0.0003985804,6.735741e-05,9,1
-0.000350609,0.0001376938,9,1
-0.0003110651,0.0001976579,9,1
-0.0002843243,0.0002433604,9,1
-0.0002679557,0.000274801,9,1
-0.0002553146,0.0002908455,9,1
-0.0002408908,0.0002869559,9,1
-0.0002207947,0.0002619979,9,1
-0.0001979435,0.0002190506,9,1
-0.0001760647,0.0001694586,9,1
-0.0001548341,0.0001206769,9,1
-0.0001305243,7.594687e-05,9,1
-0.0001086455,3.672706e-05,9,1
-0.0001044318,-2.238346e-07,9,1
-0.0001261486,-4.106429e-05,9,1
-0.0001712027,-8.82253e-05,9,1
-0.000221605,-0.0001383035,9,1
-0.0002627696,-0.0001857886,9,1
-0.000283514,-0.0002282497,9,1
-0.000276059,-0.0002588801,9,1
-0.0002355427,-0.000276221,9,1
-0.0001575893,-0.0002856209,9,1
-4.025397e-05,-0.0002877277,9,1
0.0001051186,-0.0002788141,9,1
0.0002503292,-0.0002569353,9,1
0.0003743092,-0.000224036,9,1
0.0004639314,-0.0001835197,9,1
0.0005083373,-0.0001405724,9,1
0.0005047718,-9.616651e-05,9,1
0.0004627969,-5.046408e-05,9,1
0.0004007258,-2.81688e-06,9,1
0.0003362238,4.499239e-05,9,1
0.0002830664,8.696731e-05,9,1
0.000250005,0.0001182459,9,1
0.0002386605,0.0001391524,9,1
0.00024255,0.0001548727,9,1
0.0002491947,0.0001699448,9,1
0.0002466017,0.0001871237,9,1
0.0002284504,0.0002023578,9,1
0.0002036544,0.0002125679,9,1
0.0001880961,0.0002169437,9,1
0.0001966855,0.0002190506,9,1
0.0002406053,0.0002222919,9,1
0.0003190449,0.0002303951,9,1
0.0004130428,0.0002417397,9,1
0.0004914824,0.0002535705,9,1
0.0005240576,0.0002624841,9,1
0.0004858102,0.0002655633,9,1
0.0003756057,0.0002634565,9,1
0.0002180782,0.0002551911,9,1
4.661304e-05,0.0002435224,9,1
-0.0001114006,0.0002278021,9,1
-0.0002379736,0.0002119197,9,1
-0.0003266234,0.0001979821,9,1
-0.0003839945,0.0001859892,9,1
-0.0004237005,0.0001773998,9,1
-0.0004535205,0.0001757791,9,1
-0.000477182,0.0001812893,9,1
-0.0004954954,0.0001905271,9,1
-0.0005045711,0.0001965235,9,1
-0.0005006815,0.000195227,9,1
-0.0004862577,0.0001825859,9,1
-0.0004619479,0.0001639484,9,1
-0.0004280762,0.0001440143,9,1
-0.0003849669,0.0001313732,9,1
-0.000333106,0.0001265113,9,1
-0.0002728177,0.0001266733,9,1
-0.0002110708,0.0001265113,9,1
-0.0001635857,0.0001229458,9,1
-0.0001449482,0.0001153287,9,1
-0.0001574272,0.0001044704,9,1
-0.0001870851,9.555677e-05,9,1
-0.0002097743,8.875003e-05,9,1
-0.0001958367,8.145709e-05,9,1
-0.0001269589,7.367795e-05,9,1
-6.706447e-06,6.670914e-05,9,1
0.0001328318,6.022653e-05,9,1
0.0002446569,5.358185e-05,9,1
0.0002911697,4.77475e-05,9,1
0.0002642668,4.304761e-05,9,1
0.0001845306,4.142696e-05,9,1
8.972242e-05,4.094075e-05,9,1
9.66215e-06,4.045456e-05,9,1
-4.754691e-05,3.996837e-05,9,1
-8.158062e-05,3.688912e-05,9,1
-8.725291e-05,2.797553e-05,9,1
-6.002594e-05,1.079661e-05,9,1
-9.137427e-06,-9.947754e-06,9,1
4.175109e-05,-2.728874e-05,9,1
6.573675e-05,-3.960571e-05,9,1
4.82337e-05,-4.949169e-05,9,1
-5.57199e-06,-6.06742e-05,9,1
-6.845333e-05,-7.137051e-05,9,1
-0.0001092938,-8.012204e-05,9,1
-0.0001126972,-8.44978e-05,9,1
-8.287715e-05,-8.352541e-05,9,1
-3.879538e-05,-8.239095e-05,9,1
-3.465141e-06,-8.660465e-05,9,1
1.322759e-05,-9.730096e-05,9,1
9.986281e-06,-0.0001109144,9,1
-3.627206e-06,-0.0001229073,9,1
-1.886135e-05,-0.0001284175,9,1
-3.328516e-05,-0.0001267968,9,1
-4.85193e-05,-0.0001195039,9,1
-6.278104e-05,-0.0001092938,9,1
-7.380149e-05,-0.0001002181,9,1
-7.866345e-05,-9.486997e-05,9,1
-7.817725e-05,-9.422172e-05,9,1
-7.347736e-05,-9.989401e-05,9,1
-6.602235e-05,-0.0001086455,9,1
-5.727083e-05,-0.0001144799,9,1
-4.965376e-05,-0.0001156143,9,1
-4.398147e-05,-0.0001139937,9,1
-3.26369e-05,-0.0001133454,9,1
-1.173047e-05,-0.0001118868,9,1
1.582063e-05,-0.0001115627,9,1
3.996837e-05,-0.0001162626,9,1
5.179914e-05,-0.0001203142,9,1
4.580272e-05,-0.0001165867,9,1
2.230325e-05,-0.0001036215,9,1
-9.299493e-06,-8.871149e-05,9,1
-3.587821e-05,-7.736692e-05,9,1
-4.787104e-05,-6.958779e-05,9,1
-5.078821e-05,-6.180866e-05,9,1
-4.981582e-05,-5.046408e-05,9,1
-4.414354e-05,-3.717473e-05,9,1
-3.555408e-05,-2.453363e-05,9,1
-1.837515e-05,-1.140634e-05,9,1
1.9224e-05,3.179537e-06,9,1
8.145709e-05,1.64689e-05,9,1
0.0001577899,2.376183e-05,9,1
0.000225209,2.34377e-05,9,1
0.0002637806,2.068259e-05,9,1
0.0002618358,2.100672e-05,9,1
0.0002218057,2.700314e-05,9,1
0.000158114,3.591673e-05,9,1
9.053275e-05,4.466826e-05,9,1
3.802358e-05,4.790957e-05,9,1
1.322759e-05,4.564065e-05,9,1
1.679302e-05,3.899597e-05,9,1
3.251336e-05,2.975825e-05,9,1
4.256141e-05,2.116879e-05,9,1
4.628891e-05,1.614476e-05,9,1
5.974033e-05,1.12828e-05,9,1
0.0001020394,5.610517e-06,9,1
0.0001731861,-2.330684e-06,9,1
0.0002568118,-1.20546e-05,9,1
0.0003308757,-2.275091e-05,9,1
0.0003767402,-3.150244e-05,9,1
0.0003890571,-3.393342e-05,9,1
0.000373823,-3.134038e-05,9,1
0.0003402755,-2.339918e-05,9,1
0.0002958695,-1.010982e-05,9,1
0.0002466017,4.47606e-06,9,1
0.000192796,1.501031e-05,9,1
0.000135749,1.59827e-05,9,1
7.967438e-05,1.014835e-05,9,1
2.910999e-05,2.04508e-06,9,1
-1.967167e-05,-3.789272e-06,9,1
-7.120844e-05,-4.599598e-06,9,1
-0.0001243659,3.989864e-06,9,1
-0.000171851,2.230325e-05,9,1
-0.000199078,4.320967e-05,9,1
-0.0001927574,6.119892e-05,9,1
-0.0001532135,7.384002e-05,9,1
-9.049421e-05,7.935024e-05,9,1
-2.680255e-05,8.080883e-05,9,1
1.744129e-05,8.016057e-05,9,1
3.283749e-05,8.04847e-05,9,1
2.214118e-05,8.242948e-05,9,1
-1.358292e-06,8.405014e-05,9,1
-1.886135e-05,8.194328e-05,9,1
-1.351319e-05,7.384002e-05,9,1
1.403791e-05,5.876794e-05,9,1
5.066468e-05,3.850978e-05,9,1
8.599492e-05,1.64689e-05,9,1
0.0001130598,-3.789272e-06,9,1
0.0001292664,-2.210265e-05,9,1
0.0001389903,-3.506788e-05,9,1
0.0001503349,-3.911951e-05,9,1
0.000173024,-3.458168e-05,9,1
0.0002125679,-2.518189e-05,9,1
0.0002663737,-1.886135e-05,9,1
0.0003269861,-1.853722e-05,9,1
0.0003850055,-2.339918e-05,9,1
0.0004331389,-3.393342e-05,9,1
0.0004644175,-4.754691e-05,9,1
0.0004707381,-5.905355e-05,9,1
0.0004488593,-6.39155e-05,9,1
0.00040105,-5.986387e-05,9,1
0.0003333067,-4.835724e-05,9,1
0.0002553532,-3.539201e-05,9,1
0.0001799928,-2.696461e-05,9,1
0.0001154908,-2.242678e-05,9,1
6.298164e-05,-1.950961e-05,9,1
1.987227e-05,-1.918548e-05,9,1
-1.902341e-05,-2.275091e-05,9,1
-5.905355e-05,-2.550602e-05,9,1
-0.0001044318,-2.226472e-05,9,1
-0.0001530514,-1.043395e-05,9,1
-0.000201671,7.717366e-06,9,1
-0.0002391081,3.18651e-05,9,1
-0.0002530457,5.633696e-05,9,1
-0.0002360289,7.594687e-05,9,1
-0.0001922712,9.069481e-05,9,1
-0.0001439758,0.0001007429,9,1
-0.0001133454,0.0001049566,9,1
-0.0001102662,0.00010366,9,1
-0.000127121,9.831188e-05,9,1
-0.0001483515,9.020862e-05,9,1
-0.0001582375,8.518459e-05,9,1
-0.0001485136,8.680524e-05,9,1
-0.0001199901,9.458438e-05,9,1
-7.817725e-05,0.0001077117,9,1
-3.441962e-05,0.0001222976,9,1
-6.868513e-06,0.0001349386,9,1
-8.327101e-06,0.0001422316,9,1
-3.944364e-05,0.0001415833,9,1
-9.000802e-05,0.0001346145,9,1
-0.0001433275,0.0001229458,9,1
-0.0001865989,0.0001072255,9,1
-0.0002073433,9.101894e-05,9,1
-0.000201671,8.194328e-05,9,1
-0.0001783336,8.064677e-05,9,1
-0.0001478653,8.129502e-05,9,1
-0.0001267968,7.724339e-05,9,1
-0.0001253383,6.78436e-05,9,1
-0.0001438137,5.61749e-05,9,1
-0.0001710407,4.434413e-05,9,1
-0.0001935677,3.089271e-05,9,1
-0.0002032917,1.695509e-05,9,1
-0.000199078,3.017472e-06,9,1
-0.0001900023,-7.516774e-06,9,1
-0.0001890299,-1.432352e-05,9,1
-0.0002159328,-1.756482e-05,9,1
-0.0002809209,-2.323711e-05,9,1
-0.0003736223,-3.668853e-05,9,1
-0.0004736166,-5.500191e-05,9,1
-0.000556594,-7.33153e-05,9,1
-0.0006045654,-8.320128e-05,9,1
-0.0006133168,-8.07703e-05,9,1
-0.0005896553,-6.699475e-05,9,1
-0.000544277,-4.738484e-05,9,1
-0.0004867439,-2.939559e-05,9,1
-0.0004224039,-1.691656e-05,9,1
-0.000355633,-5.085794e-06,9,1
-0.000286107,8.527692e-06,9,1
-0.0002112329,2.052053e-05,9,1
-0.000127283,2.748934e-05,9,1
-3.279896e-05,2.76514e-05,9,1
6.687121e-05,1.9224e-05,9,1
0.0001636242,2.693341e-06,9,1
0.0002503292,-1.335113e-05,9,1
0.0003346032,-1.950961e-05,9,1
0.0004279528,-1.578211e-05,9,1
0.0005360505,-7.354709e-06,9,1
0.0006494962,1.002961e-07,9,1
0.0007459252,3.665733e-06,9,1
0.000797624,2.207145e-06,9,1
0.0007870898,-2.238346e-07,9,1
0.0007139983,2.04508e-06,9,1
0.0006028214,1.014835e-05,9,1
0.0004931031,2.278944e-05,9,1
0.0004138531,3.283749e-05,9,1
0.0003816021,3.445814e-05,9,1
0.0003984569,3.154097e-05,9,1
0.0004491834,2.910999e-05,9,1
0.0005026649,2.732727e-05,9,1
0.0005289196,2.651694e-05,9,1
0.0005073649,2.700314e-05,9,1
0.0004362182,2.846173e-05,9,1
0.0003256896,2.910999e-05,9,1
0.0001908512,2.992031e-05,9,1
4.77475e-05,3.251336e-05,9,1
-8.871149e-05,4.094075e-05,9,1
-0.0002044261,5.034055e-05,9,1
-0.000286107,5.423012e-05,9,1
-0.0003251648,5.309566e-05,9,1
-0.0003164132,4.920609e-05,9,1
-0.0002570974,4.661304e-05,9,1
-0.0001590478,4.790957e-05,9,1
-4.576419e-05,5.504044e-05,9,1
4.936815e-05,6.622294e-05,9,1
9.750156e-05,8.04847e-05,9,1
8.453633e-05,9.63671e-05,9,1
1.517237e-05,0.0001107909,9,1
-8.660465e-05,0.0001179218,9,1
-0.0001856265,0.0001120874,9,1
-0.0002592042,9.620504e-05,9,1
-0.0003031239,7.6271e-05,9,1
-0.0003241924,6.233338e-05,9,1
-0.0003266234,5.828175e-05,9,1
-0.0003074997,6.330578e-05,9,1
-0.0002595283,7.108491e-05,9,1
-0.000184168,7.918817e-05,9,1
-9.486997e-05,8.972242e-05,9,1
-4.923729e-06,0.0001044704,9,1
8.129502e-05,0.0001197045,9,1
0.0001686482,0.000130887,9,1
0.0002603772,0.0001339663,9,1
0.0003527545,0.0001273216,9,1
0.0004310321,0.0001122495,9,1
0.0004777069,9.231547e-05,9,1
0.0004820827,7.011252e-05,9,1
0.0004511282,5.179914e-05,9,1
0.0003966742,3.834771e-05,9,1
0.0003401134,2.457216e-05,9,1
0.0003017039,7.393236e-06,9,1
0.0002811216,-1.108221e-05,9,1
0.0002511395,-2.615429e-05,9,1
0.0001851789,-3.150244e-05,9,1
7.967438e-05,-2.615429e-05,9,1
-4.738484e-05,-1.367526e-05,9,1
-0.0001715269,1.396819e-06,9,1
-0.0002617972,1.371378e-05,9,1
-0.0002958309,1.841368e-05,9,1
-0.0002731418,1.630683e-05,9,1
-0.0002136638,9.338019e-06,9,1
-0.0001483515,2.693341e-06,9,1
-0.0001016767,1.720949e-06,9,1
-8.012204e-05,4.80019e-06,9,1
-7.898758e-05,1.031041e-05,9,1
-9.470791e-05,1.54965e-05,9,1
-0.0001287416,1.825161e-05,9,1
-0.000179306,1.59827e-05,9,1
-0.0002360289,7.23117e-06,9,1
-0.0002867553,-1.358292e-06,9,1
-0.0003211132,-9.461558e-06,9,1
-0.0003360231,-1.67545e-05,9,1
-0.000335699,-2.080613e-05,9,1
-0.0003300267,-1.869928e-05,9,1
-0.0003274337,-1.140634e-05,9,1
-0.0003327818,-2.168618e-06,9,1
-0.0003426678,5.86492e-07,9,1
-0.0003489884,-5.57199e-06,9,1
-0.0003460712,-1.383732e-05,9,1
-0.0003371576,-1.756482e-05,9,1
-0.0003253268,-1.837515e-05,9,1
-0.0003143064,-1.869928e-05,9,1
-0.000303448,-1.983374e-05,9,1
-0.0002930758,-1.869928e-05,9,1
-0.0002877277,-1.643037e-05,9,1
-0.0002896725,-1.707863e-05,9,1
-0.0002951827,-2.356124e-05,9,1
-0.0003027998,-3.296103e-05,9,1
-0.0003097686,-4.625038e-05,9,1
-0.0003071755,-6.083626e-05,9,1
-0.0002833519,-7.866345e-05,9,1
-0.0002306807,-9.989401e-05,9,1
-0.0001536997,-0.0001208004,9,1
-6.375344e-05,-0.0001387897,9,1
2.295151e-05,-0.000149486,9,1
9.523264e-05,-0.0001507825,9,1
0.0001496866,-0.0001525652,9,1
0.0001832341,-0.0001618029,9,1
0.0001981441,-0.0001773612,9,1
0.0002017096,-0.0001903264,9,1
0.0002062474,-0.0001940539,9,1
0.0002282883,-0.0001893541,9,1
0.0002850112,-0.0001786577,9,1
0.0003791712,-0.000164396,9,1
0.0005008822,-0.0001488377,9,1
0.0006294001,-0.0001303623,9,1
0.000737984,-0.0001060525,9,1
0.0008089686,-7.720486e-05,9,1
0.0008293889,-4.43056e-05,9,1
0.0007921138,-9.947754e-06,9,1
0.0007011951,2.149292e-05,9,1
0.0005773771,4.223728e-05,9,1
0.0004490213,4.790957e-05,9,1
0.00033671,4.369587e-05,9,1
0.0002556773,3.624086e-05,9,1
0.0002137024,3.299956e-05,9,1
0.0002096508,3.883391e-05,9,1
0.0002313675,5.601284e-05,9,1
0.0002592428,7.90261e-05,9,1
0.0002726942,0.0001054428,9,1
0.0002547049,0.0001289422,9,1
0.0001989545,0.0001441764,9,1
0.0001119254,0.0001508211,9,1
7.23117e-06,0.0001511452,9,1
-9.19528e-05,0.0001537382,9,1
-0.0001614788,0.000163138,9,1
-0.0001836818,0.0001790204,9,1
-0.0001536997,0.0001965235,9,1
-8.109443e-05,0.000207706,9,1
6.744974e-06,0.0002119197,9,1
7.756752e-05,0.000207706,9,1
0.0001120874,0.0001936063,9,1
0.0001143563,0.0001722137,9,1
0.000101067,0.0001467694,9,1
8.242948e-05,0.0001203528,9,1
5.649903e-05,0.0001004187,9,1
2.262738e-05,9.020862e-05,9,1
-1.075808e-05,8.858796e-05,9,1
-2.372331e-05,8.875003e-05,9,1
-6.176923e-08,8.486046e-05,9,1
6.071273e-05,7.935024e-05,9,1
0.0001412592,7.400208e-05,9,1
0.0002159713,6.816773e-05,9,1
0.0002692908,6.249545e-05,9,1
0.0003012177,5.99024e-05,9,1
0.0003154794,5.763349e-05,9,1
0.000304459,5.455425e-05,9,1
0.0002532463,4.953022e-05,9,1
0.0001524417,4.288554e-05,9,1
1.630683e-05,3.380988e-05,9,1
-0.0001300382,2.441009e-05,9,1
-0.0002624455,1.663096e-05,9,1
-0.0003626019,1.193106e-05,9,1
-0.0004230522,1.095867e-05,9,1
-0.0004455793,8.527692e-06,9,1
-0.0004379622,2.531276e-06,9,1
-0.0004108973,-7.192643e-06,9,1
-0.0003736223,-1.902341e-05,9,1
-0.0003389403,-3.231277e-05,9,1
-0.0003118754,-4.738484e-05,9,1
-0.0002891863,-6.213279e-05,9,1
-0.0002677937,-7.120844e-05,9,1
-0.0002418632,-7.218083e-05,9,1
-0.0002131776,-6.683268e-05,9,1
-0.000184168,-5.69467e-05,9,1
-0.0001588858,-4.592625e-05,9,1
-0.0001379794,-3.749886e-05,9,1
-0.0001237176,-3.360929e-05,9,1
-0.0001206384,-3.409549e-05,9,1
-0.0001368449,-3.571614e-05,9,1
-0.0001754164,-3.506788e-05,9,1
-0.0002267911,-3.296103e-05,9,1
-0.0002663351,-3.004385e-05,9,1
-0.0002697385,-2.566809e-05,9,1
-0.0002222533,-2.064406e-05,9,1
-0.0001242038,-1.480971e-05,9,1
7.879432e-06,-7.678839e-06,9,1
0.000148228,3.665733e-06,9,1
0.0002662116,1.436204e-05,9,1
0.0003336308,2.327564e-05,9,1
0.0003329825,3.267542e-05,9,1
0.0002607014,4.369587e-05,9,1
0.0001368834,5.179914e-05,9,1
-7.516774e-06,5.61749e-05,9,1
-0.0001408965,5.714729e-05,9,1
-0.0002340841,5.163707e-05,9,1
-0.0002718453,3.591673e-05,9,1
-0.0002574215,1.679302e-05,9,1
-0.0002133397,8.041497e-06,9,1
-0.0001676373,1.436204e-05,9,1
-0.0001358725,3.13789e-05,9,1
-0.0001159385,4.709924e-05,9,1
-9.19528e-05,5.698522e-05,9,1
-6.099833e-05,6.444023e-05,9,1
-3.069211e-05,7.335383e-05,9,1
-1.237873e-05,8.356394e-05,9,1
-1.335113e-05,8.923623e-05,9,1
-2.501983e-05,8.79397e-05,9,1
-3.328516e-05,7.740546e-05,9,1
-3.458168e-05,6.395404e-05,9,1
-4.252288e-05,5.390598e-05,9,1
-7.509801e-05,4.742337e-05,9,1
-0.0001326312,4.612685e-05,9,1
-0.0001987538,5.098881e-05,9,1
-0.0002514251,6.427817e-05,9,1
-0.0002791382,8.615699e-05,9,1
-0.000273628,0.0001088461,9,1
-0.0002331117,0.000121001,9,1
-0.0001572651,0.0001141943,9,1
-5.159854e-05,9.150514e-05,9,1
6.735741e-05,6.119892e-05,9,1
0.0001783722,3.348575e-05,9,1
0.0002629703,1.565857e-05,9,1
0.0003156415,1.160693e-05,9,1
0.0003504856,2.149292e-05,9,1
0.0003874365,3.688912e-05,9,1
0.0004443214,4.888196e-05,9,1
0.0005191956,4.888196e-05,9,1
0.0005965008,3.656499e-05,9,1
0.0006580857,1.614476e-05,9,1
0.0006911471,-8.327101e-06,9,1
0.0006939021,-3.571614e-05,9,1
0.0006695924,-6.715681e-05,9,1
0.0006274553,-0.0001037836,9,1
0.0005788357,-0.000137169,9,1
0.0005292437,-0.0001590478,9,1
0.0004777069,-0.0001665028,9,1
0.0004211461,-0.0001671511,9,1
0.0003530786,-0.0001686097,9,1
0.0002684805,-0.0001729855,9,1
0.0001701068,-0.0001794681,9,1
6.346784e-05,-0.0001812508,9,1
-3.879538e-05,-0.0001721751,9,1
-0.0001238797,-0.0001483515,9,1
-0.0001833576,-0.0001136696,9,1
-0.0002248464,-7.461182e-05,9,1
-0.0002650386,-3.733679e-05,9,1
-0.0003147926,-7.516774e-06,9,1
-0.000372974,8.365628e-06,9,1
-0.0004339106,1.1769e-05,9,1
-0.0004940368,9.338019e-06,9,1
-0.0005496252,7.555301e-06,9,1
-0.0005987309,6.744974e-06,9,1
-0.0006403818,7.879432e-06,9,1
-0.0006676087,1.241726e-05,9,1
-0.0006749016,1.906194e-05,9,1
-0.0006570745,2.700314e-05,9,1
-0.0006055377,3.251336e-05,9,1
-0.0005167259,3.494434e-05,9,1
-0.0003929081,3.705119e-05,9,1
-0.0002504527,4.288554e-05,9,1
-0.0001062146,5.050261e-05,9,1
2.894792e-05,5.649903e-05,9,1
0.0001477418,5.811968e-05,9,1
0.0002391467,5.763349e-05,9,1
0.0002861456,5.811968e-05,9,1
0.0002795009,5.99024e-05,9,1
0.0002248849,6.41161e-05,9,1
0.0001479039,6.83298e-05,9,1
7.546067e-05,6.622294e-05,9,1
3.089271e-05,5.682316e-05,9,1
2.068259e-05,4.434413e-05,9,1
3.672706e-05,3.543054e-05,9,1
6.622294e-05,3.283749e-05,9,1
9.944634e-05,3.624086e-05,9,1
0.0001315353,4.320967e-05,9,1
0.0001692965,5.61749e-05,9,1
0.0002179161,7.497447e-05,9,1
0.0002756114,9.085688e-05,9,1
0.0003459477,9.766362e-05,9,1
0.0004297355,9.393612e-05,9,1
0.000530054,8.46984e-05,9,1
0.000646417,7.448828e-05,9,1
0.0007645627,6.589881e-05,9,1
0.0008606675,6.119892e-05,9,1
0.0009091251,5.925414e-05,9,1
0.0008883807,6.103686e-05,9,1
0.0007924379,6.152305e-05,9,1
0.0006386379,5.763349e-05,9,1
0.0004589073,5.034055e-05,9,1
0.0002890628,4.223728e-05,9,1
0.0001558451,3.834771e-05,9,1
6.83298e-05,4.142696e-05,9,1
1.711715e-05,4.871989e-05,9,1
-1.950961e-05,5.747142e-05,9,1
-6.06742e-05,6.654708e-05,9,1
-0.0001130213,7.562274e-05,9,1
-0.0001726613,8.550872e-05,9,1
-0.0002318152,9.21534e-05,9,1
-0.0002844864,9.16672e-05,9,1
-0.0003266234,8.194328e-05,9,1
-0.0003583881,6.719535e-05,9,1
-0.0003744326,5.293359e-05,9,1
-0.0003737844,4.320967e-05,9,1
-0.0003601709,3.915804e-05,9,1
-0.0003421817,3.705119e-05,9,1
-0.0003227338,3.251336e-05,9,1
-0.0002998826,2.34377e-05,9,1
-0.000273628,1.565857e-05,9,1
-0.0002489941,1.322759e-05,9,1
-0.0002327876,1.808955e-05,9,1
-0.0002323013,2.862379e-05,9,1
-0.0002423494,4.175109e-05,9,1
-0.0002533699,5.277153e-05,9,1
-0.000263742,5.795762e-05,9,1
-0.0002715212,5.56887e-05,9,1
-0.0002708729,4.547859e-05,9,1
-0.0002564491,2.716521e-05,9,1
-0.000226467,4.962256e-06,9,1
-0.0001887058,-1.545797e-05,9,1
-0.0001533756,-2.907146e-05,9,1
-0.0001258245,-3.279896e-05,9,1
-0.0001029732,-2.955766e-05,9,1
-8.012204e-05,-2.680255e-05,9,1
-5.435365e-05,-3.312309e-05,9,1
-3.117831e-05,-5.159854e-05,9,1
-1.432352e-05,-7.55842e-05,9,1
-8.327101e-06,-9.470791e-05,9,1
-1.432352e-05,-9.584238e-05,9,1
-2.923353e-05,-8.02841e-05,9,1
-4.122636e-05,-5.483985e-05,9,1
-3.620233e-05,-2.745081e-05,9,1
-1.059602e-05,-3.14101e-06,9,1
2.81376e-05,1.565857e-05,9,1
6.930219e-05,2.700314e-05,9,1
9.863601e-05,3.089271e-05,9,1
0.0001083599,2.522042e-05,9,1
0.0001030118,4.47606e-06,9,1
9.053275e-05,-2.84232e-05,9,1
7.708133e-05,-6.667062e-05,9,1
6.362991e-05,-0.0001011905,9,1
5.098881e-05,-0.0001282554,9,1
4.175109e-05,-0.0001462447,9,1
4.612685e-05,-0.0001583996,9,1
7.254349e-05,-0.0001679614,9,1
0.0001206769,-0.0001759026,9,1
0.0001769136,-0.0001853024,9,1
0.0002146748,-0.0001914609,9,1
0.000210137,-0.0001912988,9,1
0.0001618415,-0.0001799543,9,1
8.988449e-05,-0.0001551583,9,1
1.371378e-05,-0.0001199901,9,1
-5.240886e-05,-7.931171e-05,9,1
-9.486997e-05,-4.106429e-05,9,1
-9.422172e-05,-9.137427e-06,9,1
-4.576419e-05,1.792748e-05,9,1
3.332369e-05,4.564065e-05,9,1
0.0001143563,7.367795e-05,9,1
0.0001765894,9.944634e-05,9,1
0.0002112714,0.0001153287,9,1
0.0002109473,0.0001175977,9,1
0.0001701068,0.0001122495,9,1
9.507057e-05,0.0001093323,9,1
6.096713e-06,0.0001125736,9,1
-7.55842e-05,0.0001179218,9,1
-0.000137007,0.0001211631,9,1
-0.0001713648,0.0001213252,9,1
-0.0001754164,0.0001198666,9,1
-0.0001514308,0.0001185701,9,1
-0.0001136696,0.0001172735,9,1
-8.093236e-05,0.000113384,9,1
-6.829127e-05,0.0001064152,9,1
-7.947377e-05,9.798775e-05,9,1
-0.000107349,9.247754e-05,9,1
-0.0001413827,9.296373e-05,9,1
-0.0001703924,9.944634e-05,9,1
-0.0001885437,0.000108522,9,1
-0.0001887058,0.0001153287,9,1
-0.0001695821,0.0001188942,9,1
-0.0001373311,0.0001182459,9,1
-0.0001041077,0.0001150046,9,1
-7.769106e-05,0.0001119254,9,1
-6.310517e-05,0.0001069013,9,1
-5.64605e-05,0.0001022015,9,1
-5.030202e-05,9.717743e-05,9,1
-4.187462e-05,9.134307e-05,9,1
-3.069211e-05,8.599492e-05,9,1
-8.813297e-06,7.853991e-05,9,1
4.256141e-05,6.914012e-05,9,1
0.0001329939,6.249545e-05,9,1
0.0002511395,5.763349e-05,9,1
0.0003673404,5.406805e-05,9,1
0.0004572867,4.904402e-05,9,1
0.0005065545,4.142696e-05,9,1
0.0005115786,3.251336e-05,9,1
0.0004767345,2.505836e-05,9,1
0.0004099636,1.808955e-05,9,1
0.0003226103,1.355172e-05,9,1
0.0002214815,9.338019e-06,9,1
0.0001151667,5.610517e-06,9,1
2.052053e-05,4.151929e-06,9,1
-4.625038e-05,6.744974e-06,9,1
-7.866345e-05,1.468618e-05,9,1
-8.514606e-05,2.651694e-05,9,1
-8.514606e-05,3.737532e-05,9,1
-9.405965e-05,4.223728e-05,9,1
-0.0001146419,4.158902e-05,9,1
-0.0001381414,3.445814e-05,9,1
-0.0001460826,2.246531e-05,9,1
-0.0001289037,6.096713e-06,9,1
-9.065628e-05,-1.124428e-05,9,1
-4.868137e-05,-2.356124e-05,9,1
-2.291298e-05,-2.874733e-05,9,1
-2.291298e-05,-2.7937e-05,9,1
-4.38194e-05,-2.258885e-05,9,1
-6.634648e-05,-1.416145e-05,9,1
-7.60704e-05,-3.789272e-06,9,1
-6.504996e-05,6.258778e-06,9,1
-3.296103e-05,1.12828e-05,9,1
1.873781e-05,1.095867e-05,9,1
9.085688e-05,7.717366e-06,9,1
0.0001748067,3.827799e-06,9,1
0.0002521119,2.623614e-07,9,1
0.0003080245,-4.923729e-06,9,1
0.0003362238,-1.075808e-05,9,1
0.0003427064,-1.173047e-05,9,1
0.0003376824,-5.57199e-06,9,1
0.0003297412,5.86492e-07,9,1
0.0003203414,5.86492e-07,9,1
0.0003104554,-6.220252e-06,9,1
0.0002979764,-1.707863e-05,9,1
0.0002778803,-2.907146e-05,9,1
0.0002427121,-3.68506e-05,9,1
0.000187934,-4.122636e-05,9,1
0.0001158149,-4.122636e-05,9,1
3.98063e-05,-3.701266e-05,9,1
-2.258885e-05,-3.053005e-05,9,1
-5.775702e-05,-2.485776e-05,9,1
-6.569822e-05,-2.113026e-05,9,1
-5.889148e-05,-1.756482e-05,9,1
-5.111234e-05,-1.367526e-05,9,1
-4.657452e-05,-1.010982e-05,9,1
-4.462973e-05,-5.409925e-06,9,1
-4.009191e-05,2.693341e-06,9,1
-3.166451e-05,1.403791e-05,9,1
-1.902341e-05,2.603075e-05,9,1
-1.682422e-06,3.786152e-05,9,1
1.290346e-05,4.855783e-05,9,1
1.841368e-05,5.844381e-05,9,1
9.338019e-06,6.670914e-05,9,1
-1.643037e-05,7.238143e-05,9,1
-6.472583e-05,7.270556e-05,9,1
-0.0001358725,6.865393e-05,9,1
-0.000216581,6.071273e-05,9,1
-0.0002870794,5.325772e-05,9,1
-0.0003373197,4.758544e-05,9,1
-0.000365519,4.175109e-05,9,1
-0.000370543,3.202716e-05,9,1
-0.000342992,2.214118e-05,9,1
-0.0002781658,1.679302e-05,9,1
-0.0001806025,2.262738e-05,9,1
-7.169464e-05,3.802358e-05,9,1
2.424803e-05,5.698522e-05,9,1
8.453633e-05,7.319176e-05,9,1
0.0001033359,8.275361e-05,9,1
8.664318e-05,8.405014e-05,9,1
4.758544e-05,8.242948e-05,9,1
3.179537e-06,8.097089e-05,9,1
-3.247483e-05,7.756752e-05,9,1
-5.467778e-05,6.687121e-05,9,1
-6.586029e-05,4.531652e-05,9,1
-7.120844e-05,1.711715e-05,9,1
-7.477388e-05,-7.516774e-06,9,1
-7.817725e-05,-1.886135e-05,9,1
-8.206682e-05,-1.513384e-05,9,1
-8.709085e-05,-2.492749e-06,9,1
-9.632857e-05,9.986281e-06,9,1
-0.000112373,1.436204e-05,9,1
-0.0001366828,7.069105e-06,9,1
-0.0001652063,-1.059602e-05,9,1
-0.0001862748,-3.344723e-05,9,1
-0.0001911368,-5.69467e-05,9,1
-0.0001731475,-7.477388e-05,9,1
-0.0001360346,-8.303922e-05,9,1
-0.0001015147,-8.320128e-05,9,1
-9.713889e-05,-8.07703e-05,9,1
-0.000134738,-7.736692e-05,9,1
-0.0002068571,-7.33153e-05,9,1
-0.0002961551,-6.423963e-05,9,1
-0.0003849669,-5.338126e-05,9,1
-0.0004590307,-4.090223e-05,9,1
-0.0005016539,-2.566809e-05,9,1
-0.0004946851,-7.192643e-06,9,1
-0.0004196489,9.338019e-06,9,1
-0.0002668213,1.954813e-05,9,1
-4.317115e-05,2.278944e-05,9,1
0.0002132162,2.052053e-05,9,1
0.0004496696,2.01964e-05,9,1
0.000614166,2.376183e-05,9,1
0.000678668,2.667901e-05,9,1
0.0006546823,2.829966e-05,9,1
0.0005731634,2.278944e-05,9,1
0.0004692795,8.041497e-06,9,1
0.0003728506,-1.108221e-05,9,1
0.0002978143,-2.664048e-05,9,1
0.0002461155,-3.198864e-05,9,1
0.0002137024,-2.388537e-05,9,1
0.0001934442,-4.599598e-06,9,1
0.0001819376,1.663096e-05,9,1
0.0001809652,2.943412e-05,9,1
0.0001898788,3.105477e-05,9,1
0.0002015475,2.522042e-05,9,1
0.0002070577,1.64689e-05,9,1
0.000200413,7.393236e-06,9,1
0.0001761032,-7.100305e-07,9,1
0.000135749,-8.651231e-06,9,1
8.761557e-05,-2.064406e-05,9,1
4.061663e-05,-3.733679e-05,9,1
-3.858999e-07,-5.565017e-05,9,1
-2.971972e-05,-7.250496e-05,9,1
-4.349527e-05,-8.384954e-05,9,1
-3.895745e-05,-8.968389e-05,9,1
-1.99958e-05,-9.260107e-05,9,1
5.934648e-06,-9.503204e-05,9,1
2.862379e-05,-9.66527e-05,9,1
4.110282e-05,-8.919769e-05,9,1
4.061663e-05,-7.072225e-05,9,1
2.927205e-05,-3.992984e-05,9,1
9.986281e-06,5.86492e-07,9,1
-8.489166e-06,4.547859e-05,9,1
-2.080613e-05,8.712937e-05,9,1
-2.501983e-05,0.0001195424,9,1
-2.372331e-05,0.0001402868,9,1
-1.950961e-05,0.0001503349,9,1
-1.578211e-05,0.0001517934,9,1
-1.351319e-05,0.0001508211,9,1
-1.027188e-05,0.0001504969,9,1
-2.168618e-06,0.0001534141,9,1
1.112074e-05,0.0001573037,9,1
2.052053e-05,0.0001582761,9,1
2.457216e-05,0.0001587623,9,1
2.975825e-05,0.000160707,9,1
4.045456e-05,0.0001620036,9,1
5.277153e-05,0.0001584381,9,1
6.654708e-05,0.0001487142,9,1
8.826383e-05,0.0001349386,9,1
0.0001214872,0.0001221355,9,1
0.0001676758,0.0001158149,9,1
0.0002294227,0.0001171115,9,1
0.000307052,0.0001224596,9,1
0.0003906778,0.0001312112,9,1
0.0004561522,0.0001428799,9,1
0.0004781931,0.0001545486,9,1
0.0004409181,0.0001621656,9,1
0.0003457857,0.0001608691,9,1
0.0002167816,0.0001453108,9,1
8.664318e-05,0.0001166253,9,1
-1.497178e-05,8.064677e-05,9,1
-7.396356e-05,4.35338e-05,9,1
-9.568031e-05,1.290346e-05,9,1
-9.600444e-05,-7.678839e-06,9,1
-9.519411e-05,-2.194059e-05,9,1
-0.0001075111,-3.117831e-05,9,1
-0.0001374932,-3.992984e-05,9,1
-0.0001802784,-4.835724e-05,9,1
-0.0002308428,-5.435365e-05,9,1
-0.0002887001,-5.840528e-05,9,1
-0.0003494746,-5.953974e-05,9,1
-0.0004036044,-6.06742e-05,9,1
-0.0004379622,-6.48879e-05,9,1
-0.0004501171,-7.169464e-05,9,1
-0.0004446069,-8.02841e-05,9,1
-0.0004245108,-8.741498e-05,9,1
-0.0003848048,-9.033215e-05,9,1
-0.0003186821,-8.871149e-05,9,1
-0.0002308428,-8.547019e-05,9,1
-0.0001292278,-8.02841e-05,9,1
-2.89094e-05,-6.926366e-05,9,1
5.390598e-05,-4.997789e-05,9,1
0.0001056048,-2.518189e-05,9,1
0.0001166253,-3.627206e-06,9,1
9.101894e-05,4.962256e-06,9,1
4.175109e-05,4.244267e-07,9,1
-9.137427e-06,-1.497178e-05,9,1
-4.090223e-05,-3.377136e-05,9,1
-3.847125e-05,-4.689865e-05,9,1
-3.858999e-07,-5.305713e-05,9,1
5.439218e-05,-5.64605e-05,9,1
9.960841e-05,-5.921561e-05,9,1
0.0001169494,-6.06742e-05,9,1
9.993253e-05,-6.132246e-05,9,1
5.649903e-05,-6.002594e-05,9,1
2.207145e-06,-6.06742e-05,9,1
-4.787104e-05,-6.164659e-05,9,1
-8.579432e-05,-6.180866e-05,9,1
-0.0001096179,-5.905355e-05,9,1
-0.0001178833,-5.386745e-05,9,1
-0.0001096179,-4.641245e-05,9,1
-8.806324e-05,-3.847125e-05,9,1
-5.483985e-05,-2.858527e-05,9,1
-1.124428e-05,-1.724069e-05,9,1
3.478228e-05,-4.113403e-06,9,1
6.687121e-05,1.12828e-05,9,1
7.286763e-05,2.846173e-05,9,1
5.471631e-05,4.45062e-05,9,1
2.700314e-05,5.56887e-05,9,1
8.203562e-06,6.168512e-05,9,1
1.938607e-05,6.541262e-05,9,1
7.238143e-05,7.108491e-05,9,1
0.0001670276,7.594687e-05,9,1
0.0002877662,8.097089e-05,9,1
0.0004047775,8.875003e-05,9,1
0.0004814344,9.847395e-05,9,1
0.0004874308,0.0001041462,9,1
0.0004180668,0.0001015532,9,1
0.0002968419,9.507057e-05,9,1
0.0001658931,8.696731e-05,9,1
6.492643e-05,8.097089e-05,9,1
1.306552e-05,8.226741e-05,9,1
9.106227e-07,9.085688e-05,9,1
1.883015e-06,0.0001022015,9,1
-9.299493e-06,0.000113384,9,1
-4.608832e-05,0.0001218114,9,1
-0.0001042698,0.0001269974,9,1
-0.0001757406,0.000130887,9,1
-0.0002468872,0.0001321835,9,1
-0.0003045825,0.0001278078,9,1
-0.0003413713,0.0001180839,9,1
-0.0003575778,0.000105929,9,1
-0.0003519055,9.604298e-05,9,1
-0.0003254889,9.150514e-05,9,1
-0.0002796244,9.280167e-05,9,1
-0.0002146363,0.0001004187,9,1
-0.0001311726,0.0001116012,9,1
-2.907146e-05,0.0001179218,9,1
9.150514e-05,0.0001167873,9,1
0.0002149989,0.0001052807,9,1
0.0003198552,8.502253e-05,9,1
0.0003955397,6.298164e-05,9,1
0.0004367043,4.515445e-05,9,1
0.0004396215,3.380988e-05,9,1
0.0004042913,3.121684e-05,9,1
0.0003360618,3.380988e-05,9,1
0.0002461155,3.316162e-05,9,1
0.0001479039,2.81376e-05,9,1
4.904402e-05,1.614476e-05,9,1
-3.895745e-05,-3.789272e-06,9,1
-0.0001091317,-2.583016e-05,9,1
-0.0001585616,-4.47918e-05,9,1
-0.000184168,-6.116039e-05,9,1
-0.0001869231,-7.396356e-05,9,1
-0.000179306,-8.174268e-05,9,1
-0.0001747682,-8.514606e-05,9,1
-0.0001780095,-8.741498e-05,9,1
-0.0001853024,-9.227693e-05,9,1
-0.0001883817,-9.697683e-05,9,1
-0.0001771992,-9.908367e-05,9,1
-0.000147055,-9.470791e-05,9,1
-0.0001028112,-8.498399e-05,9,1
-5.953974e-05,-7.218083e-05,9,1
-3.166451e-05,-5.905355e-05,9,1
-2.647842e-05,-5.208474e-05,9,1
-4.219875e-05,-5.22468e-05,9,1
-8.093236e-05,-5.516398e-05,9,1
-0.0001361966,-5.986387e-05,9,1
-0.0001943781,-6.715681e-05,9,1
-0.0002415391,-7.671866e-05,9,1
-0.0002632558,-8.417367e-05,9,1
-0.0002556388,-8.887356e-05,9,1
-0.0002227395,-9.276313e-05,9,1
-0.000176713,-9.422172e-05,9,1
-0.0001284175,-9.162867e-05,9,1
-8.968389e-05,-8.514606e-05,9,1
-6.099833e-05,-7.704279e-05,9,1
-4.009191e-05,-6.602235e-05,9,1
-2.874733e-05,-5.240886e-05,9,1
-2.647842e-05,-4.074016e-05,9,1
-2.745081e-05,-3.68506e-05,9,1
-2.372331e-05,-4.236082e-05,9,1
-1.043395e-05,-5.078821e-05,9,1
8.689758e-06,-5.143648e-05,9,1
2.716521e-05,-3.782299e-05,9,1
4.402e-05,-1.25408e-05,9,1
5.860588e-05,1.257933e-05,9,1
6.995045e-05,2.910999e-05,9,1
8.064677e-05,3.18651e-05,9,1
8.939829e-05,2.619281e-05,9,1
9.101894e-05,1.97102e-05,9,1
7.886404e-05,1.776542e-05,9,1
5.374392e-05,1.938607e-05,9,1
2.01964e-05,2.01964e-05,9,1
-9.623623e-06,2.100672e-05,9,1
-1.853722e-05,2.522042e-05,9,1
4.638125e-06,3.299956e-05,9,1
6.200925e-05,3.867184e-05,9,1
0.0001543865,4.207521e-05,9,1
0.0002757735,4.693717e-05,9,1
0.0004086671,5.471631e-05,9,1
0.0005180612,6.573675e-05,9,1
0.000572029,7.724339e-05,9,1
0.0005648981,8.583286e-05,9,1
0.0005083373,9.085688e-05,9,1
0.0004256839,9.555677e-05,9,1
0.0003488649,0.0001022015,9,1
0.0003064038,0.0001057669,9,1
0.0003138588,0.00010366,9,1
0.0003645853,9.296373e-05,9,1
0.0004394595,7.90261e-05,9,1
0.0005247059,6.816773e-05,9,1
0.0006131936,6.379197e-05,9,1
0.0007067053,6.298164e-05,9,1
0.0008037825,6.022653e-05,9,1
0.0008862739,5.293359e-05,9,1
0.0009267902,4.483033e-05,9,1
0.0009045873,3.753739e-05,9,1
0.0008177201,3.380988e-05,9,1
0.0006788301,3.121684e-05,9,1
0.0005157923,2.603075e-05,9,1
0.0003556717,1.776542e-05,9,1
0.0002161334,1.387585e-05,9,1
0.000106091,1.484824e-05,9,1
2.278944e-05,1.727922e-05,9,1
-4.106429e-05,1.679302e-05,9,1
-9.730096e-05,1.54965e-05,9,1
-0.0001536997,1.64689e-05,9,1
-0.0002122053,1.792748e-05,9,1
-0.0002713591,1.64689e-05,9,1
-0.0003254889,1.12828e-05,9,1
-0.0003750809,2.623614e-07,9,1
-0.0004228902,-1.902341e-05,9,1
-0.0004677822,-4.252288e-05,9,1
-0.0005099192,-6.261898e-05,9,1
-0.0005488148,-7.201877e-05,9,1
-0.0005812279,-6.780507e-05,9,1
-0.0006019723,-4.965376e-05,9,1
-0.0006100755,-2.485776e-05,9,1
-0.0006055377,-1.520357e-06,9,1
-0.0005898174,1.371378e-05,9,1
-0.00056648,1.679302e-05,9,1
-0.000539253,7.717366e-06,9,1
-0.000514457,-6.058186e-06,9,1
-0.0004909576,-1.545797e-05,9,1
-0.0004635685,-1.67545e-05,9,1
-0.0004232143,-1.075808e-05,9,1
-0.0003650328,-5.479652e-07,9,1
-0.0002914552,9.013889e-06,9,1
-0.0002188499,1.727922e-05,9,1
-0.0001690959,2.197911e-05,9,1
-0.0001553203,2.214118e-05,9,1
-0.0001770371,1.760335e-05,9,1
-0.0002243602,8.689758e-06,9,1
-0.0002822175,-2.238346e-07,9,1
-0.0003314853,-4.923729e-06,9,1
-0.0003507711,-4.923729e-06,9,1
-0.0003327818,-1.844488e-06,9,1
-0.0002844864,-1.196227e-06,9,1
-0.000224036,-1.682422e-06,9,1
-0.0001700683,-3.465141e-06,9,1
-0.000137169,-5.89612e-06,9,1
-0.0001308485,-1.20546e-05,9,1
-0.0001499722,-2.275091e-05,9,1
-0.0001835197,-3.425755e-05,9,1
-0.000219012,-4.333321e-05,9,1
-0.0002410529,-5.078821e-05,9,1
-0.0002392702,-5.613637e-05,9,1
-0.0002123673,-5.581224e-05,9,1
-0.0001720131,-4.819517e-05,9,1
-0.0001276072,-3.117831e-05,9,1
-7.882551e-05,-7.354709e-06,9,1
-1.918548e-05,2.149292e-05,9,1
5.341979e-05,5.293359e-05,9,1
0.0001360731,8.356394e-05,9,1
0.000217592,0.0001094944,9,1
0.0002790148,0.000125863,9,1
0.0003059176,0.0001268354,9,1
0.0002948972,0.0001163011,9,1
0.0002632944,9.928428e-05,9,1
0.0002365536,8.680524e-05,9,1
0.0002347709,8.307774e-05,9,1
0.000254867,8.534666e-05,9,1
0.0002791768,9.134307e-05,9,1
0.0002923041,9.474644e-05,9,1
0.0002879283,9.101894e-05,9,1
0.0002707494,7.870197e-05,9,1
0.0002621599,6.508849e-05,9,1
0.0002804733,5.601284e-05,9,1
0.00033671,5.325772e-05,9,1
0.0004213082,5.536457e-05,9,1
0.0005094717,6.233338e-05,9,1
0.0005694359,7.286763e-05,9,1
0.0005739738,8.356394e-05,9,1
0.0005102821,9.458438e-05,9,1
0.0003957018,0.0001044704,9,1
0.0002650771,0.0001104668,9,1
0.0001487142,0.0001107909,9,1
6.119892e-05,0.0001077117,9,1
-5.57199e-06,9.960841e-05,9,1
-6.991193e-05,8.761557e-05,9,1
-0.0001498101,7.594687e-05,9,1
-0.0002428356,6.800567e-05,9,1
-0.0003180339,6.022653e-05,9,1
-0.0003371576,5.374392e-05,9,1
-0.0002765452,4.661304e-05,9,1
-0.0001486757,3.753739e-05,9,1
1.002961e-07,2.522042e-05,9,1
0.0001232699,1.12828e-05,9,1
0.0001921477,-2.006553e-06,9,1
0.0001916615,-1.270286e-05,9,1
0.0001328318,-2.064406e-05,9,1
4.02925e-05,-2.437157e-05,9,1
-5.581224e-05,-2.42095e-05,9,1
-0.0001336036,-2.080613e-05,9,1
-0.0001788198,-1.691656e-05,9,1
-0.0001862748,-1.383732e-05,9,1
-0.0001645581,-8.327101e-06,9,1
-0.0001302002,1.234753e-06,9,1
-0.0001024871,7.555301e-06,9,1
-9.081835e-05,6.582909e-06,9,1
-9.341139e-05,-6.176923e-08,9,1
-0.0001034594,-1.043395e-05,9,1
-0.0001125351,-2.242678e-05,9,1
-0.0001199901,-3.231277e-05,9,1
-0.0001250141,-3.895745e-05,9,1
-0.0001264727,-4.138842e-05,9,1
-0.0001232314,-4.171256e-05,9,1
-0.0001143178,-4.203669e-05,9,1
-0.0001028112,-4.203669e-05,9,1
-9.568031e-05,-4.138842e-05,9,1
-9.875954e-05,-3.766092e-05,9,1
-0.0001144799,-2.761287e-05,9,1
-0.0001337657,-1.367526e-05,9,1
-0.0001412206,-6.176923e-08,9,1
-0.0001233935,1.063454e-05,9,1
-7.704279e-05,1.825161e-05,9,1
-1.335113e-05,2.586868e-05,9,1
4.628891e-05,3.397195e-05,9,1
8.599492e-05,4.304761e-05,9,1
9.588091e-05,5.439218e-05,9,1
6.865393e-05,6.557468e-05,9,1
9.338019e-06,7.221937e-05,9,1
-6.180866e-05,6.946425e-05,9,1
-0.0001157764,5.730935e-05,9,1
-0.0001276072,4.385793e-05,9,1
-8.206682e-05,3.462021e-05,9,1
2.165498e-05,2.878586e-05,9,1
0.0001574657,2.732727e-05,9,1
0.0002838767,3.283749e-05,9,1
0.0003655576,4.547859e-05,9,1
0.0003851676,6.314371e-05,9,1
0.0003535648,8.064677e-05,9,1
0.0002973281,9.280167e-05,9,1
0.0002472499,9.847395e-05,9,1
0.0002187264,9.977047e-05,9,1
0.0002125679,9.733949e-05,9,1
0.0002206712,9.377406e-05,9,1
0.0002294227,9.21534e-05,9,1
0.0002333123,9.134307e-05,9,1
0.0002271538,8.777764e-05,9,1
0.0002098128,7.90261e-05,9,1
0.0001803169,6.670914e-05,9,1
0.000145635,5.682316e-05,9,1
0.0001193804,5.131294e-05,9,1
0.0001062531,5.19612e-05,9,1
0.0001049566,5.795762e-05,9,1
0.0001044704,6.654708e-05,9,1
9.490851e-05,7.270556e-05,9,1
7.497447e-05,7.286763e-05,9,1
5.358185e-05,6.638502e-05,9,1
4.077869e-05,5.698522e-05,9,1
4.304761e-05,5.001642e-05,9,1
6.46023e-05,4.304761e-05,9,1
0.0001025256,3.575467e-05,9,1
0.0001417454,3.105477e-05,9,1
0.0001589243,3.040651e-05,9,1
0.0001422316,3.413401e-05,9,1
9.555677e-05,4.223728e-05,9,1
3.624086e-05,4.969229e-05,9,1
-1.432352e-05,5.19612e-05,9,1
-4.284701e-05,4.677511e-05,9,1
-4.981582e-05,3.380988e-05,9,1
-4.608832e-05,1.825161e-05,9,1
-4.673658e-05,2.369211e-06,9,1
-6.44017e-05,-1.189254e-05,9,1
-0.0001028112,-2.874733e-05,9,1
-0.0001507825,-5.32192e-05,9,1
-0.000186761,-8.563225e-05,9,1
-0.0001904885,-0.0001235555,9,1
-0.0001473791,-0.0001627754,9,1
-5.872941e-05,-0.0001934057,9,1
5.19612e-05,-0.0002096122,9,1
0.0001521176,-0.0002075054,9,1
0.0002099749,-0.0001929195,9,1
0.0002010613,-0.0001762268,9,1
0.0001271595,-0.0001632615,9,1
1.160693e-05,-0.0001571031,9,1
-0.0001084835,-0.0001533756,9,1
-0.0002023193,-0.0001441378,9,1
-0.0002561249,-0.0001266348,9,1
-0.0002713591,-0.0001045939,9,1
-0.000258718,-8.222889e-05,9,1
-0.0002331117,-5.69467e-05,9,1
-0.0002083157,-3.279896e-05,9,1
-0.0001901644,-1.480971e-05,9,1
-0.0001835197,-5.57199e-06,9,1
-0.0001880575,-3.303076e-06,9,1
-0.000191785,-2.81688e-06,9,1
-0.0001822232,-4.437533e-06,9,1
-0.0001541859,-7.192643e-06,9,1
-0.0001101041,-8.002969e-06,9,1
-5.710876e-05,-2.330684e-06,9,1
-4.923729e-06,6.420843e-06,9,1
4.02925e-05,1.22552e-05,9,1
7.465034e-05,1.257933e-05,9,1
9.782569e-05,7.555301e-06,9,1
0.000111115,-8.720959e-07,9,1
0.000118408,-1.173047e-05,9,1
0.000130725,-2.453363e-05,9,1
0.0001574657,-3.668853e-05,9,1
0.0002007372,-4.300908e-05,9,1
0.0002453052,-4.074016e-05,9,1
0.0002786906,-3.117831e-05,9,1
0.0003015418,-1.659243e-05,9,1
0.0003177483,-7.100305e-07,9,1
0.0003203414,1.436204e-05,9,1
0.000304297,2.943412e-05,9,1
0.0002694529,4.499239e-05,9,1
0.0002216436,6.200925e-05,9,1
0.000165569,7.724339e-05,9,1
0.0001081979,8.518459e-05,9,1
6.233338e-05,8.518459e-05,9,1
3.526847e-05,7.886404e-05,9,1
2.181705e-05,7.238143e-05,9,1
8.041497e-06,7.108491e-05,9,1
-1.221667e-05,7.691926e-05,9,1
-3.863332e-05,8.74535e-05,9,1
-6.893953e-05,9.68533e-05,9,1
-0.0001018388,0.0001049566,9,1
-0.0001392759,0.0001083599,9,1
-0.0001799543,0.0001070634,9,1
-0.0002117191,0.0001018773,9,1
-0.0002196603,9.442231e-05,9,1
-0.0001997262,8.761557e-05,9,1
-0.0001574272,8.46984e-05,9,1
-0.0001054042,8.664318e-05,9,1
-6.294311e-05,9.199134e-05,9,1
-4.398147e-05,9.361199e-05,9,1
-5.078821e-05,8.777764e-05,9,1
-7.785312e-05,7.789165e-05,9,1
-0.0001135075,6.865393e-05,9,1
-0.000144624,6.217132e-05,9,1
-0.0001574272,6.022653e-05,9,1
-0.0001387897,6.589881e-05,9,1
-8.287715e-05,7.967438e-05,9,1
9.986281e-06,9.620504e-05,9,1
0.0001299146,0.0001099806,9,1
0.0002556773,0.0001138702,9,1
0.0003537269,0.0001067393,9,1
0.000393757,9.652917e-05,9,1
0.0003649094,8.972242e-05,9,1
0.0002790148,8.988449e-05,9,1
0.0001561692,9.134307e-05,9,1
2.651694e-05,9.085688e-05,9,1
-8.352541e-05,9.085688e-05,9,1
-0.0001606685,9.020862e-05,9,1
-0.000208964,8.631905e-05,9,1
-0.0002361909,7.562274e-05,9,1
-0.0002486699,5.828175e-05,9,1
-0.0002457528,3.705119e-05,9,1
-0.0002229016,1.565857e-05,9,1
-0.0001797922,-1.520357e-06,9,1
-0.0001178833,-1.351319e-05,9,1
-4.252288e-05,-2.145439e-05,9,1
3.462021e-05,-2.388537e-05,9,1
9.701536e-05,-2.145439e-05,9,1
0.0001253768,-1.416145e-05,9,1
0.0001051186,-6.706447e-06,9,1
4.077869e-05,-1.844488e-06,9,1
-4.560212e-05,-2.238346e-07,9,1
-0.0001269589,-2.654814e-06,9,1
-0.0001825473,-5.57199e-06,9,1
-0.0002050744,-8.327101e-06,9,1
-0.0001953505,-1.25408e-05,9,1
-0.0001611547,-1.853722e-05,9,1
-0.0001185315,-2.647842e-05,9,1
-8.547019e-05,-3.539201e-05,9,1
-7.428769e-05,-3.992984e-05,9,1
-7.979791e-05,-3.749886e-05,9,1
-8.968389e-05,-3.036798e-05,9,1
-9.276313e-05,-2.437157e-05,9,1
-8.482193e-05,-2.258885e-05,9,1
-6.083626e-05,-2.485776e-05,9,1
-1.837515e-05,-3.150244e-05,9,1
3.543054e-05,-3.895745e-05,9,1
9.134307e-05,-4.236082e-05,9,1
0.0001467694,-4.155049e-05,9,1
0.000200413,-3.766092e-05,9,1
0.0002435224,-3.247483e-05,9,1
0.0002628082,-2.84232e-05,9,1
0.0002581083,-2.923353e-05,9,1
0.0002482223,-3.150244e-05,9,1
0.0002581083,-3.279896e-05,9,1
0.0002908455,-3.004385e-05,9,1
0.0003206656,-2.583016e-05,9,1
0.0003230965,-2.09682e-05,9,1
0.00029198,-1.545797e-05,9,1
0.0002362295,-9.137427e-06,9,1
0.000175455,-7.100305e-07,9,1
0.0001310491,9.500085e-06,9,1
0.0001080358,1.987227e-05,9,1
9.669123e-05,2.829966e-05,9,1
8.113296e-05,3.397195e-05,9,1
4.839576e-05,3.850978e-05,9,1
2.693341e-06,4.35338e-05,9,1
-4.090223e-05,4.628891e-05,9,1
-6.926366e-05,4.466826e-05,9,1
-7.396356e-05,3.93201e-05,9,1
-5.289507e-05,3.299956e-05,9,1
-1.448558e-05,3.235129e-05,9,1
2.181705e-05,3.93201e-05,9,1
4.483033e-05,5.244739e-05,9,1
4.596478e-05,6.606088e-05,9,1
2.797553e-05,7.772959e-05,9,1
-5.479652e-07,8.680524e-05,9,1
-3.182657e-05,8.74535e-05,9,1
-6.148453e-05,7.562274e-05,9,1
-8.773911e-05,5.601284e-05,9,1
-0.0001118868,3.397195e-05,9,1
-0.0001352242,1.857574e-05,9,1
-0.0001571031,1.290346e-05,9,1
-0.0001705545,1.582063e-05,9,1
-0.0001671511,2.278944e-05,9,1
-0.0001460826,3.218923e-05,9,1
-0.0001164247,3.915804e-05,9,1
-9.065628e-05,4.239934e-05,9,1
-7.769106e-05,4.272347e-05,9,1
-7.979791e-05,3.964424e-05,9,1
-9.422172e-05,3.575467e-05,9,1
-0.0001133454,3.348575e-05,9,1
-0.0001298761,3.235129e-05,9,1
-0.0001418689,3.510641e-05,9,1
-0.0001549962,4.126489e-05,9,1
-0.0001755785,4.661304e-05,9,1
-0.0002099363,4.239934e-05,9,1
-0.0002545043,2.829966e-05,9,1
-0.0002987481,9.986281e-06,9,1
-0.0003245165,-9.785688e-06,9,1
-0.0003160891,-2.631635e-05,9,1
-0.0002664971,-3.717473e-05,9,1
-0.0001854645,-3.879538e-05,9,1
-9.762509e-05,-3.506788e-05,9,1
-2.745081e-05,-3.020592e-05,9,1
1.144487e-05,-2.971972e-05,9,1
1.257933e-05,-3.506788e-05,9,1
-1.610624e-05,-4.738484e-05,9,1
-5.338126e-05,-6.407757e-05,9,1
-7.266703e-05,-8.352541e-05,9,1
-5.759496e-05,-0.000104918,9,1
-4.923729e-06,-0.0001263107,9,1
6.427817e-05,-0.0001405724,9,1
0.0001250527,-0.0001478653,9,1
0.0001657311,-0.0001504584,9,1
0.000190365,-0.0001504584,9,1
0.0002073819,-0.0001485136,9,1
0.0002222919,-0.0001478653,9,1
0.0002388225,-0.0001506204,9,1
0.0002632944,-0.0001556445,9,1
0.0002953834,-0.0001567789,9,1
0.0003250413,-0.0001447861,9,1
0.0003389789,-0.0001183694,9,1
0.0003308757,-8.02841e-05,9,1
0.0003125623,-3.506788e-05,9,1
0.0003025142,1.193106e-05,9,1
0.0003049452,5.260946e-05,9,1
0.0003117519,7.740546e-05,9,1
0.0003106175,8.356394e-05,9,1
0.0002913317,7.594687e-05,9,1
0.000244981,6.573675e-05,9,1
0.0001726999,6.314371e-05,9,1
8.242948e-05,7.659513e-05,9,1
-1.335113e-05,0.0001025256,9,1
-9.551824e-05,0.0001304008,9,1
-0.0001532135,0.0001493625,9,1
-0.0001807646,0.0001539003,9,1
-0.0001784957,0.0001446626,9,1
-0.0001509446,0.000128456,9,1
-0.0001060525,0.000118408,9,1
-5.727083e-05,0.0001185701,9,1
-1.967167e-05,0.0001276457,9,1
-2.168618e-06,0.0001427178,9,1
-3.465141e-06,0.0001603829,9,1
-1.3027e-05,0.0001743205,9,1
-1.740276e-05,0.0001799928,9,1
-1.010982e-05,0.0001782101,9,1
7.069105e-06,0.0001720516,9,1
2.894792e-05,0.0001660552,9,1
5.439218e-05,0.0001574657,9,1
7.659513e-05,0.000145797,9,1
9.004655e-05,0.0001328318,9,1
8.858796e-05,0.0001211631,9,1
6.897806e-05,0.0001104668,9,1
3.526847e-05,0.0001012291,9,1
-5.409925e-06,9.069481e-05,9,1
-4.511593e-05,8.113296e-05,9,1
-7.995997e-05,7.481241e-05,9,1
-0.0001071869,7.270556e-05,9,1
-0.0001243659,7.092284e-05,9,1
-0.000129714,7.011252e-05,9,1
-0.0001167488,6.978839e-05,9,1
-6.683268e-05,6.800567e-05,9,1
2.781346e-05,6.476436e-05,9,1
0.000148228,6.314371e-05,9,1
0.0002558394,6.379197e-05,9,1
0.0003077003,6.314371e-05,9,1
0.0002837146,5.828175e-05,9,1
0.0001997648,5.082674e-05,9,1
9.393612e-05,3.996837e-05,9,1
-4.761664e-06,3.105477e-05,9,1
-9.081835e-05,2.570662e-05,9,1
-0.0001673132,2.214118e-05,9,1
-0.0002295462,1.59827e-05,9,1
-0.0002663351,4.313994e-06,9,1
-0.0002681178,-1.335113e-05,9,1
-0.0002384598,-3.393342e-05,9,1
-0.0001844921,-5.289507e-05,9,1
-0.0001144799,-6.731888e-05,9,1
-4.252288e-05,-7.55842e-05,9,1
1.144487e-05,-7.671866e-05,9,1
2.878586e-05,-7.218083e-05,9,1
2.04508e-06,-6.91016e-05,9,1
-5.370539e-05,-6.942573e-05,9,1
-0.0001057284,-7.104638e-05,9,1
-0.0001336036,-6.91016e-05,9,1
-0.0001323071,-6.294311e-05,9,1
-0.0001076731,-5.565017e-05,9,1
-6.359137e-05,-4.657452e-05,9,1
1.396819e-06,-3.782299e-05,9,1
8.242948e-05,-2.826114e-05,9,1
0.0001662173,-2.015787e-05,9,1
0.00024255,-1.432352e-05,9,1
0.0003195311,-9.299493e-06,9,1
0.0004115842,-4.599598e-06,9,1
0.0005157923,-2.238346e-07,9,1
0.0006060627,5.124321e-06,9,1
0.0006483617,9.66215e-06,9,1
0.0006238899,9.986281e-06,9,1
0.0005337815,2.369211e-06,9,1
0.0004067223,-8.651231e-06,9,1
0.000282256,-1.480971e-05,9,1
0.0001931201,-1.383732e-05,9,1
0.0001474177,-1.20546e-05,9,1
0.0001316974,-1.497178e-05,9,1
0.0001192183,-2.518189e-05,9,1
8.875003e-05,-3.604027e-05,9,1
3.786152e-05,-4.041603e-05,9,1
-2.0482e-05,-3.425755e-05,9,1
-6.521203e-05,-2.323711e-05,9,1
-8.547019e-05,-1.20546e-05,9,1
-8.07703e-05,-3.789272e-06,9,1
-5.59743e-05,1.558884e-06,9,1
-1.659243e-05,5.286387e-06,9,1
2.700314e-05,1.079661e-05,9,1
6.83298e-05,1.59827e-05,9,1
0.0001005808,1.776542e-05,9,1
0.0001179218,1.501031e-05,9,1
0.0001099806,1.031041e-05,9,1
7.643307e-05,5.772582e-06,9,1
2.39239e-05,3.503668e-06,9,1
-3.458168e-05,8.203562e-06,9,1
-8.952183e-05,2.100672e-05,9,1
-0.0001405724,4.077869e-05,9,1
-0.0001870851,6.03886e-05,9,1
-0.0002250084,7.254349e-05,9,1
-0.000251101,7.837785e-05,9,1
-0.0002621213,7.951231e-05,9,1
-0.0002595283,7.789165e-05,9,1
-0.0002485079,7.57848e-05,9,1
-0.000231491,7.20573e-05,9,1
-0.000206695,6.865393e-05,9,1
-0.0001715269,6.719535e-05,9,1
-0.0001242038,7.043665e-05,9,1
-6.877746e-05,7.67572e-05,9,1
-1.805102e-05,8.502253e-05,9,1
9.338019e-06,9.053275e-05,9,1
3.503668e-06,8.907416e-05,9,1
-2.323711e-05,8.129502e-05,9,1
-4.738484e-05,7.076078e-05,9,1
-5.386745e-05,6.152305e-05,9,1
-4.009191e-05,5.552663e-05,9,1
-1.20546e-05,4.82337e-05,9,1
2.619281e-05,3.769945e-05,9,1
6.865393e-05,2.359977e-05,9,1
0.0001047945,7.717366e-06,9,1
0.0001235941,-7.840905e-06,9,1
0.0001167873,-2.258885e-05,9,1
7.52986e-05,-3.782299e-05,9,1
-3.789272e-06,-5.289507e-05,9,1
-0.0001157764,-6.294311e-05,9,1
-0.0002428356,-6.634648e-05,9,1
-0.0003559572,-6.164659e-05,9,1
-0.0004279142,-4.868137e-05,9,1
-0.0004460655,-3.069211e-05,9,1
-0.0004211074,-9.623623e-06,9,1
-0.0003784843,8.203562e-06,9,1
-0.0003473677,1.808955e-05,9,1
-0.000335537,1.841368e-05,9,1
-0.0003309991,1.031041e-05,9,1
-0.0003170615,-3.465141e-06,9,1
-0.0002893484,-2.080613e-05,9,1
-0.0002532078,-3.733679e-05,9,1
-0.0002198223,-4.738484e-05,9,1
-0.0001958367,-4.527799e-05,9,1
-0.0001763888,-3.393342e-05,9,1
-0.0001554824,-1.902341e-05,9,1
-0.0001248521,-6.544382e-06,9,1
-7.801519e-05,2.693341e-06,9,1
-9.461558e-06,6.096713e-06,9,1
7.90261e-05,4.962256e-06,9,1
0.0001728619,-3.858999e-07,9,1
0.0002480603,-5.409925e-06,9,1
0.0002929524,-6.058186e-06,9,1
0.0003075383,-2.330684e-06,9,1
0.0002984626,4.80019e-06,9,1
0.0002717218,1.484824e-05,9,1
0.0002316917,2.230325e-05,9,1
0.000185341,2.554455e-05,9,1
0.0001410971,2.262738e-05,9,1
0.0001007429,1.031041e-05,9,1
5.828175e-05,-7.192643e-06,9,1
1.306552e-05,-2.372331e-05,9,1
-2.826114e-05,-3.393342e-05,9,1
-6.213279e-05,-3.409549e-05,9,1
-9.049421e-05,-2.599222e-05,9,1
-0.0001169109,-1.351319e-05,9,1
-0.0001412206,-2.330684e-06,9,1
-0.0001588858,5.86492e-07,9,1
-0.0001652063,-4.923729e-06,9,1
-0.0001556445,-1.691656e-05,9,1
-0.0001264727,-3.68506e-05,9,1
-8.190475e-05,-6.002594e-05,9,1
-2.323711e-05,-8.40116e-05,9,1
4.72613e-05,-0.0001044318,9,1
0.0001218114,-0.0001185315,9,1
0.0001817755,-0.0001277692,9,1
0.0002112714,-0.0001308485,9,1
0.000202844,-0.0001284175,9,1
0.000160545,-0.0001201522,9,1
0.0001077117,-0.0001071869,9,1
6.849186e-05,-9.162867e-05,9,1
6.346784e-05,-7.60704e-05,9,1
0.0001009049,-5.69467e-05,9,1
0.0001686482,-2.501983e-05,9,1
0.0002422259,2.165498e-05,9,1
0.0002940868,7.837785e-05,9,1
0.0003078624,0.0001363972,9,1
0.0002856594,0.0001848548,9,1
0.0002422259,0.0002180782,9,1
0.0001949028,0.0002357433,9,1
0.0001551968,0.0002419018,9,1
0.0001257009,0.0002417397,9,1
0.0001070634,0.000235095,9,1
9.474644e-05,0.0002219677,9,1
8.437427e-05,0.0002068957,9,1
6.962632e-05,0.0001921477,9,1
5.277153e-05,0.0001791825,9,1
3.737532e-05,0.0001683241,9,1
2.570662e-05,0.0001615174,9,1
1.889987e-05,0.0001592484,9,1
1.889987e-05,0.0001579519,9,1
2.505836e-05,0.0001576278,9,1
3.299956e-05,0.0001598967,9,1
3.462021e-05,0.0001616794,9,1
2.570662e-05,0.0001608691,9,1
3.827799e-06,0.0001558451,9,1
-3.117831e-05,0.000145797,9,1
-7.104638e-05,0.0001323456,9,1
-0.0001021629,0.0001158149,9,1
-0.00010978,9.296373e-05,9,1
-9.000802e-05,6.541262e-05,9,1
-5.127441e-05,4.013043e-05,9,1
-9.785688e-06,2.505836e-05,9,1
2.376183e-05,2.149292e-05,9,1
5.034055e-05,2.035846e-05,9,1
7.20573e-05,1.582063e-05,9,1
8.502253e-05,6.744974e-06,9,1
8.340187e-05,-2.654814e-06,9,1
6.946425e-05,-1.092015e-05,9,1
4.645098e-05,-1.837515e-05,9,1
1.452411e-05,-2.647842e-05,9,1
-2.291298e-05,-3.944364e-05,9,1
-5.370539e-05,-5.970181e-05,9,1
-6.423963e-05,-8.611845e-05,9,1
-5.305713e-05,-0.0001102662,9,1
-2.955766e-05,-0.0001230693,9,1
-1.010982e-05,-0.0001183694,9,1
-6.058186e-06,-9.956988e-05,9,1
-1.62683e-05,-7.590833e-05,9,1
-2.84232e-05,-5.208474e-05,9,1
-3.117831e-05,-3.328516e-05,9,1
-1.562004e-05,-1.983374e-05,9,1
2.441009e-05,-1.399939e-05,9,1
8.437427e-05,-1.983374e-05,9,1
0.0001440143,-3.830919e-05,9,1
0.0001806411,-6.180866e-05,9,1
0.0001846927,-7.526008e-05,9,1
0.0001587623,-6.667062e-05,9,1
0.0001128978,-3.782299e-05,9,1
5.828175e-05,-3.951337e-06,9,1
7.717366e-06,1.59827e-05,9,1
-2.89094e-05,1.54965e-05,9,1
-4.317115e-05,-2.006553e-06,9,1
-3.68506e-05,-2.485776e-05,9,1
-1.837515e-05,-4.041603e-05,9,1
9.106227e-07,-4.300908e-05,9,1
1.938607e-05,-3.182657e-05,9,1
4.013043e-05,-1.399939e-05,9,1
7.092284e-05,4.962256e-06,9,1
0.0001070634,2.068259e-05,9,1
0.0001341283,3.235129e-05,9,1
0.0001409351,3.850978e-05,9,1
0.0001257009,3.705119e-05,9,1
0.0001009049,3.024445e-05,9,1
8.032264e-05,2.149292e-05,9,1
7.708133e-05,1.614476e-05,9,1
0.0001030118,1.776542e-05,9,1
0.0001535762,2.619281e-05,9,1
0.0002132162,3.705119e-05,9,1
0.0002611876,4.094075e-05,9,1
0.0002814457,3.526847e-05,9,1
0.0002736666,2.116879e-05,9,1
0.0002464396,6.258778e-06,9,1
0.0002106232,-2.006553e-06,9,1
0.0001770756,-1.520357e-06,9,1
0.0001582761,3.017472e-06,9,1
0.000160707,6.096713e-06,9,1
0.0001769136,5.448452e-06,9,1
0.0001822617,1.002961e-07,9,1
0.0001574657,-7.840905e-06,9,1
0.0001013911,-1.529591e-05,9,1
2.505836e-05,-2.323711e-05,9,1
-5.030202e-05,-2.777494e-05,9,1
-9.989401e-05,-2.712668e-05,9,1
-0.0001060525,-2.080613e-05,9,1
-6.650855e-05,-7.030578e-06,9,1
1.160693e-05,1.59827e-05,9,1
0.0001117633,4.628891e-05,9,1
0.0002086784,7.594687e-05,9,1
0.0002733424,9.588091e-05,9,1
0.0002866318,9.977047e-05,9,1
0.0002388225,8.939829e-05,9,1
0.0001415833,6.800567e-05,9,1
2.052053e-05,3.915804e-05,9,1
-9.081835e-05,9.175954e-06,9,1
-0.0001710407,-1.545797e-05,9,1
-0.0002172293,-2.955766e-05,9,1
-0.000231491,-2.858527e-05,9,1
-0.0002250084,-1.545797e-05,9,1
-0.0002162569,4.244267e-07,9,1
-0.000226467,9.175954e-06,9,1
-0.0002647144,8.041497e-06,9,1
-0.0003279199,9.106227e-07,9,1
-0.000405063,-8.165035e-06,9,1
-0.0004809095,-1.724069e-05,9,1
-0.0005358497,-2.534396e-05,9,1
-0.0005494631,-3.101625e-05,9,1
-0.0004990608,-3.198864e-05,9,1
-0.0003765395,-2.453363e-05,9,1
-0.0002023193,-1.237873e-05,9,1
-2.42095e-05,-2.81688e-06,9,1
0.0001026876,-3.858999e-07,9,1
0.0001430419,-2.978945e-06,9,1
9.344993e-05,-8.165035e-06,9,1
-1.562004e-05,-9.461558e-06,9,1
-0.0001373311,-5.409925e-06,9,1
-0.0002329496,1.883015e-06,9,1
-0.0002898345,6.096713e-06,9,1
-0.0003227338,5.286387e-06,9,1
-0.0003549848,-3.627206e-06,9,1
-0.0003992286,-1.756482e-05,9,1
-0.0004514136,-3.166451e-05,9,1
-0.0005024642,-4.138842e-05,9,1
-0.0005387668,-4.689865e-05,9,1
-0.0005423322,-4.80331e-05,9,1
-0.0004997091,-4.333321e-05,9,1
-0.0004113835,-3.312309e-05,9,1
-0.0002927517,-2.161646e-05,9,1
-0.0001663408,-1.383732e-05,9,1
-5.030202e-05,-1.156841e-05,9,1
4.839576e-05,-1.108221e-05,9,1
0.0001257009,-8.651231e-06,9,1
0.0001799928,-3.14101e-06,9,1
0.000217754,3.503668e-06,9,1
0.0002485465,7.555301e-06,9,1
0.0002816078,6.258778e-06,9,1
0.0003203414,-1.358292e-06,9,1
0.0003611819,-9.299493e-06,9,1
0.0004070464,-1.173047e-05,9,1
0.0004650658,-3.789272e-06,9,1
0.0005339436,1.338965e-05,9,1
0.0005973112,3.60788e-05,9,1
0.0006300483,5.844381e-05,9,1
0.0006153004,8.032264e-05,9,1
0.0005493398,0.0001002567,9,1
0.00044578,0.0001175977,9,1
0.0003271482,0.0001326697,9,1
0.0002180782,0.0001427178,9,1
0.0001402868,0.0001472556,9,1
0.000103498,0.0001436902,9,1
0.0001070634,0.0001289422,9,1
0.0001435281,0.0001054428,9,1
0.0001992786,7.870197e-05,9,1
0.0002615117,5.358185e-05,9,1
0.0003130485,3.60788e-05,9,1
0.0003358997,2.781346e-05,9,1
0.0003153174,2.797553e-05,9,1
0.0002461155,3.494434e-05,9,1
0.0001341283,4.790957e-05,9,1
1.072688e-06,6.638502e-05,9,1
-0.0001237176,8.826383e-05,9,1
-0.0002149604,0.0001086841,9,1
-0.0002593663,0.0001221355,9,1
-0.000263742,0.0001286181,9,1
-0.0002486699,0.0001323456,9,1
-0.0002392702,0.0001346145,9,1
-0.0002546664,0.0001376938,9,1
-0.0002985861,0.0001425557,9,1
-0.0003621157,0.0001475797,9,1
-0.0004288866,0.000148228,9,1
-0.0004752372,0.0001412592,9,1
-0.0004669719,0.0001323456,9,1
-0.000372974,0.0001300767,9,1
-0.0001903264,0.0001346145,9,1
5.212327e-05,0.00013818,9,1
0.0003101313,0.0001352628,9,1
0.000542371,0.0001245665,9,1
0.0007193465,0.0001075496,9,1
0.0008144788,8.712937e-05,9,1
0.00080751,6.703327e-05,9,1
0.0007000606,4.888196e-05,9,1
0.0005227611,3.624086e-05,9,1
0.0003171001,2.975825e-05,9,1
0.0001125736,2.441009e-05,9,1
-6.618442e-05,1.776542e-05,9,1
-0.0001953505,8.041497e-06,9,1
-0.0002475355,-6.868513e-06,9,1
-0.0002131776,-2.437157e-05,9,1
-0.0001190177,-4.268495e-05,9,1
-7.030578e-06,-5.840528e-05,9,1
8.956036e-05,-7.088431e-05,9,1
0.0001545486,-8.255302e-05,9,1
0.0001820997,-9.438378e-05,9,1
0.0001790204,-0.0001079973,9,1
0.0001600588,-0.000119828,9,1
0.0001380179,-0.0001269589,9,1
0.0001188942,-0.0001274451,9,1
9.620504e-05,-0.0001225832,9,1
6.184718e-05,-0.0001183694,9,1
1.209313e-05,-0.0001195039,9,1
-4.333321e-05,-0.0001255003,9,1
-9.324933e-05,-0.0001337657,9,1
-0.0001295519,-0.0001386276,9,1
-0.0001540238,-0.0001324691,9,1
-0.0001686097,-0.0001170729,9,1
-0.000179306,-9.730096e-05,9,1
-0.0001880575,-7.979791e-05,9,1
-0.0001925954,-6.796714e-05,9,1
-0.0001932436,-6.164659e-05,9,1
-0.0001943781,-5.581224e-05,9,1
-0.0001977815,-4.706071e-05,9,1
-0.000199078,-3.506788e-05,9,1
-0.0001961608,-2.339918e-05,9,1
-0.0001849783,-1.707863e-05,9,1
-0.0001658546,-1.788895e-05,9,1
-0.000149486,-2.599222e-05,9,1
-0.0001481895,-3.182657e-05,9,1
-0.0001642339,-2.89094e-05,9,1
-0.0001898403,-1.805102e-05,9,1
-0.0002107467,-8.002969e-06,9,1
-0.000213988,-4.923729e-06,9,1
-0.00019924,-6.382317e-06,9,1
-0.0001729855,-5.89612e-06,9,1
-0.000147055,7.485573e-07,9,1
-0.0001368449,1.468618e-05,9,1
-0.0001485136,3.494434e-05,9,1
-0.0001715269,5.925414e-05,9,1
-0.0001908126,8.550872e-05,9,1
-0.0001901644,0.0001080358,9,1
-0.0001630995,0.0001200286,9,1
-0.0001112386,0.0001200286,9,1
-4.868137e-05,0.0001069013,9,1
1.072688e-06,8.583286e-05,9,1
1.938607e-05,6.200925e-05,9,1
3.665733e-06,3.672706e-05,9,1
-3.782299e-05,1.160693e-05,9,1
-9.568031e-05,-8.813297e-06,9,1
-0.0001596961,-2.015787e-05,9,1
-0.0002125294,-2.226472e-05,9,1
-0.0002323013,-1.853722e-05,9,1
-0.0002023193,-1.270286e-05,9,1
-0.0001266348,-6.544382e-06,9,1
-2.323711e-05,-5.479652e-07,9,1
8.291568e-05,7.555301e-06,9,1
0.0001739964,1.711715e-05,9,1
0.0002388225,2.732727e-05,9,1
0.0002726942,4.110282e-05,9,1
0.0002736666,5.633696e-05,9,1
0.0002496809,6.83298e-05,9,1
0.0002117576,7.416415e-05,9,1
0.0001751309,7.432621e-05,9,1
0.0001461212,7.059871e-05,9,1
0.0001177597,6.476436e-05,9,1
7.853991e-05,5.779555e-05,9,1
2.76514e-05,5.341979e-05,9,1
-2.307504e-05,5.358185e-05,9,1
-5.759496e-05,5.957827e-05,9,1
-7.23429e-05,6.816773e-05,9,1
-7.817725e-05,7.416415e-05,9,1
-8.44978e-05,7.659513e-05,9,1
-9.081835e-05,7.853991e-05,9,1
-8.692878e-05,7.789165e-05,9,1
-6.359137e-05,7.6271e-05,9,1
-1.805102e-05,8.016057e-05,9,1
4.434413e-05,9.377406e-05,9,1
0.0001009049,0.0001128978,9,1
0.000128456,0.0001269974,9,1
0.0001203528,0.0001271595,9,1
9.182927e-05,0.0001128978,9,1
7.562274e-05,9.085688e-05,9,1
0.0001069013,6.768154e-05,9,1
0.0002051129,4.77475e-05,9,1
0.0003610198,3.089271e-05,9,1
0.0005345919,1.54965e-05,9,1
0.0006723474,-1.682422e-06,9,1
0.0007302048,-2.0482e-05,9,1
0.0006987641,-4.074016e-05,9,1
0.0005961767,-5.840528e-05,9,1
0.0004540453,-7.315322e-05,9,1
0.0002983005,-8.773911e-05,9,1
0.0001483901,-0.0001037836,9,1
1.857574e-05,-0.0001182074,9,1
-7.55842e-05,-0.0001308485,9,1
-0.0001165867,-0.0001433275,9,1
-0.0001016767,-0.0001609926,9,1
-4.997789e-05,-0.0001835197,9,1
1.452411e-05,-0.0002055606,9,1
6.946425e-05,-0.0002201465,9,1
0.0001044704,-0.0002211189,9,1
0.0001198666,-0.0002019951,9,1
0.000118408,-0.0001635857,9,1
0.0001013911,-0.000112373,9,1
6.78436e-05,-5.419158e-05,9,1
2.473423e-05,8.851824e-06,9,1
-1.513384e-05,7.221937e-05,9,1
-4.236082e-05,0.000128456,9,1
-6.035007e-05,0.0001691344,9,1
-7.55842e-05,0.0001900409,9,1
-9.179074e-05,0.0001897167,9,1
-0.0001114006,0.000175455,9,1
-0.0001349001,0.0001537382,9,1
-0.0001583996,0.0001325077,9,1
-0.0001783336,0.0001148425,9,1
-0.0001927574,0.0001031738,9,1
-0.0001985918,9.733949e-05,9,1
-0.0001929195,9.831188e-05,9,1
-0.0001763888,0.00010366,9,1
-0.0001538618,0.0001127357,9,1
-0.0001219349,0.0001226217,9,1
-7.65566e-05,0.0001276457,9,1
-1.756482e-05,0.000120839,9,1
5.277153e-05,0.0001007429,9,1
0.0001289422,6.930219e-05,9,1
0.0001971717,3.413401e-05,9,1
0.0002431983,-5.479652e-07,9,1
0.000257298,-2.971972e-05,9,1
0.000235095,-5.176061e-05,9,1
0.0001843686,-6.504996e-05,9,1
0.0001175977,-7.104638e-05,9,1
5.228533e-05,-6.991193e-05,9,1
5.610517e-06,-6.06742e-05,9,1
-1.416145e-05,-4.349527e-05,9,1
-1.367526e-05,-2.0482e-05,9,1
-1.221667e-05,4.313994e-06,9,1
-2.728874e-05,3.202716e-05,9,1
-6.0188e-05,6.168512e-05,9,1
-0.0001018388,9.199134e-05,9,1
-0.0001431655,0.0001200286,9,1
-0.0001796301,0.0001410971,9,1
-0.0002094502,0.0001501728,9,1
-0.0002381357,0.0001448246,9,1
-0.0002673075,0.0001286181,9,1
-0.0002951827,0.0001120874,9,1
-0.0003194925,0.0001022015,9,1
-0.000338292,9.928428e-05,9,1
-0.0003476919,9.928428e-05,9,1
-0.0003402368,9.474644e-05,9,1
-0.0003094444,8.129502e-05,9,1
-0.0002476975,5.974033e-05,9,1
-0.00015451,3.429608e-05,9,1
-3.830919e-05,9.013889e-06,9,1
9.037068e-05,-1.108221e-05,9,1
0.0002162954,-2.518189e-05,9,1
0.0003218,-3.539201e-05,9,1
0.0003926226,-4.203669e-05,9,1
0.0004221185,-4.333321e-05,9,1
0.0004104497,-3.733679e-05,9,1
0.0003608578,-2.647842e-05,9,1
0.0002736666,-1.67545e-05,9,1
0.0001623277,-1.513384e-05,9,1
5.325772e-05,-2.194059e-05,9,1
-3.020592e-05,-2.84232e-05,9,1
-7.396356e-05,-2.826114e-05,9,1
-8.109443e-05,-2.258885e-05,9,1
-6.796714e-05,-1.529591e-05,9,1
-5.435365e-05,-1.448558e-05,9,1
-5.208474e-05,-2.388537e-05,9,1
-6.618442e-05,-3.928157e-05,9,1
-9.762509e-05,-5.370539e-05,9,1
-0.0001413827,-6.06742e-05,9,1
-0.0001822232,-6.164659e-05,9,1
-0.0002029675,-6.213279e-05,9,1
-0.0001908126,-6.44017e-05,9,1
-0.0001441378,-6.91016e-05,9,1
-7.931171e-05,-7.33153e-05,9,1
-1.67545e-05,-7.201877e-05,9,1
3.024445e-05,-6.537409e-05,9,1
6.298164e-05,-5.208474e-05,9,1
8.437427e-05,-3.409549e-05,9,1
9.199134e-05,-1.351319e-05,9,1
8.486046e-05,6.90704e-06,9,1
7.027458e-05,2.522042e-05,9,1
5.277153e-05,3.526847e-05,9,1
3.429608e-05,3.55926e-05,9,1
1.64689e-05,3.024445e-05,9,1
-2.168618e-06,2.846173e-05,9,1
-1.983374e-05,3.332369e-05,9,1
-3.344723e-05,4.223728e-05,9,1
-4.187462e-05,4.790957e-05,9,1
-4.965376e-05,4.385793e-05,9,1
-6.051213e-05,3.283749e-05,9,1
-7.461182e-05,1.906194e-05,9,1
-8.790117e-05,8.203562e-06,9,1
-8.887356e-05,3.341602e-06,9,1
-6.893953e-05,5.124321e-06,9,1
-2.728874e-05,1.193106e-05,9,1
2.927205e-05,2.457216e-05,9,1
8.615699e-05,4.175109e-05,9,1
0.0001266733,5.957827e-05,9,1
0.0001414213,6.946425e-05,9,1
0.0001310491,6.703327e-05,9,1
9.977047e-05,5.19612e-05,9,1
5.082674e-05,2.927205e-05,9,1
-8.002969e-06,7.23117e-06,9,1
-6.39155e-05,-6.382317e-06,9,1
-0.0001029732,-9.137427e-06,9,1
-0.0001185315,-4.761664e-06,9,1
-0.0001067007,3.503668e-06,9,1
-7.347736e-05,1.517237e-05,9,1
-3.150244e-05,2.846173e-05,9,1
9.500085e-06,4.320967e-05,9,1
4.661304e-05,5.779555e-05,9,1
7.983644e-05,6.978839e-05,9,1
0.000108522,8.210535e-05,9,1
0.0001365593,9.896015e-05,9,1
0.0001662173,0.0001218114,9,1
0.0002039785,0.0001466074,9,1
0.000259729,0.0001616794,9,1
0.0003310377,0.0001621656,9,1
0.0004015361,0.0001493625,9,1
0.0004478869,0.0001310491,9,1
0.0004551798,0.0001138702,9,1
0.0004216323,0.0001022015,9,1
0.0003632887,9.831188e-05,9,1
0.000304459,9.814982e-05,9,1
0.0002592428,9.750156e-05,9,1
0.0002346088,9.409818e-05,9,1
0.0002287745,8.696731e-05,9,1
0.0002459534,7.643307e-05,9,1
0.0002864697,6.606088e-05,9,1
0.0003389789,5.876794e-05,9,1
0.0003794953,5.552663e-05,9,1
0.0003846814,5.552663e-05,9,1
0.000341734,5.909208e-05,9,1
0.0002535705,5.779555e-05,9,1
0.0001305629,4.596478e-05,9,1
-1.318906e-05,2.473423e-05,9,1
-0.000159534,9.106227e-07,9,1
-0.0002945344,-1.772689e-05,9,1
-0.0004091146,-3.004385e-05,9,1
-0.0005050572,-3.863332e-05,9,1
-0.0005805797,-4.317115e-05,9,1
-0.0006272545,-4.462973e-05,9,1
-0.0006353577,-4.47918e-05,9,1
-0.0006021344,-4.592625e-05,9,1
-0.0005329325,-5.257093e-05,9,1
-0.0004405553,-6.148453e-05,9,1
-0.0003378059,-6.942573e-05,9,1
-0.000243808,-7.428769e-05,9,1
-0.0001721751,-7.947377e-05,9,1
-0.0001284175,-8.465986e-05,9,1
-0.0001105903,-9.276313e-05,9,1
-0.0001130213,-0.0001024871,9,1
-0.0001232314,-0.0001057284,9,1
-0.0001352242,-9.989401e-05,9,1
-0.0001379794,-8.741498e-05,9,1
-0.0001219349,-7.509801e-05,9,1
-7.931171e-05,-6.472583e-05,9,1
-1.20546e-05,-5.824322e-05,9,1
6.638502e-05,-5.159854e-05,9,1
0.000133318,-4.090223e-05,9,1
0.000170431,-2.437157e-05,9,1
0.000175455,-4.437533e-06,9,1
0.0001642725,1.355172e-05,9,1
0.0001524417,2.376183e-05,9,1
0.0001509831,2.197911e-05,9,1
0.0001610312,1.144487e-05,9,1
0.0001843686,-6.176923e-08,9,1
0.0002166196,-5.89612e-06,9,1
0.0002504913,-4.923729e-06,9,1
0.0002709115,-2.654814e-06,9,1
0.0002657254,-2.006553e-06,9,1
0.0002302331,-8.165035e-06,9,1
0.0001675138,-1.918548e-05,9,1
9.037068e-05,-3.182657e-05,9,1
1.630683e-05,-4.203669e-05,9,1
-4.398147e-05,-4.608832e-05,9,1
-9.146661e-05,-4.025397e-05,9,1
-0.0001248521,-2.534396e-05,9,1
-0.0001415448,-4.761664e-06,9,1
-0.0001421931,1.452411e-05,9,1
-0.0001293899,2.878586e-05,9,1
-0.0001055663,3.624086e-05,9,1
-7.380149e-05,3.802358e-05,9,1
-3.296103e-05,3.672706e-05,9,1
2.295151e-05,3.55926e-05,9,1
9.847395e-05,3.705119e-05,9,1
0.0001859892,4.094075e-05,9,1
0.0002663737,4.531652e-05,9,1
0.0003234207,4.871989e-05,9,1
0.0003459477,5.034055e-05,9,1
0.0003323342,5.066468e-05,9,1
0.0002892249,5.098881e-05,9,1
0.0002307193,5.406805e-05,9,1
0.0001678379,6.006447e-05,9,1
0.0001069013,6.881599e-05,9,1
4.547859e-05,7.837785e-05,9,1
-2.177852e-05,8.518459e-05,9,1
-9.438378e-05,8.291568e-05,9,1
-0.0001640719,7.20573e-05,9,1
-0.0002229016,5.649903e-05,9,1
-0.0002663351,4.223728e-05,9,1
-0.0002911311,3.348575e-05,9,1
-0.0002969654,2.927205e-05,9,1
-0.0002929138,2.505836e-05,9,1
-0.0002882139,2.003433e-05,9,1
-0.0002912931,1.501031e-05,9,1
-0.0003078238,1.419998e-05,9,1
-0.0003337542,1.857574e-05,9,1
-0.0003591985,2.81376e-05,9,1
-0.0003788084,3.786152e-05,9,1
-0.0003904771,4.596478e-05,9,1
-0.0003946908,5.260946e-05,9,1
-0.0003904771,5.585077e-05,9,1
-0.0003697327,5.471631e-05,9,1
-0.0003152788,5.017848e-05,9,1
-0.0002071812,4.72613e-05,9,1
-3.928157e-05,4.742337e-05,9,1
0.0001663793,4.709924e-05,9,1
0.0003605336,4.35338e-05,9,1
0.0004856481,3.591673e-05,9,1
0.0005039615,2.538249e-05,9,1
0.0004156358,1.54965e-05,9,1
0.0002650771,8.365628e-06,9,1
0.0001125736,5.124321e-06,9,1
-1.196227e-06,4.962256e-06,9,1
-6.537409e-05,4.80019e-06,9,1
-9.000802e-05,2.369211e-06,9,1
-8.790117e-05,-4.923729e-06,9,1
-7.153257e-05,-1.529591e-05,9,1
-4.625038e-05,-2.712668e-05,9,1
-1.448558e-05,-3.863332e-05,9,1
2.003433e-05,-5.467778e-05,9,1
5.212327e-05,-7.720486e-05,9,1
7.189524e-05,-0.0001024871,9,1
6.914012e-05,-0.0001267968,9,1
4.094075e-05,-0.0001486757,9,1
-6.058186e-06,-0.0001639098,9,1
-5.727083e-05,-0.0001734716,9,1
-0.0001015147,-0.0001830335,9,1
-0.0001302002,-0.000194216,9,1
-0.0001308485,-0.000206533,9,1
-9.227693e-05,-0.0002146363,9,1
-1.092015e-05,-0.0002110708,9,1
9.782569e-05,-0.000189192,9,1
0.0002067336,-0.0001480274,9,1
0.0002966799,-9.470791e-05,9,1
0.0003636129,-3.944364e-05,9,1
0.0004122325,8.203562e-06,9,1
0.0004451317,4.418206e-05,9,1
0.0004647417,6.865393e-05,9,1
0.0004712243,8.810177e-05,9,1
0.0004627969,0.0001073875,9,1
0.0004368664,0.0001263492,9,1
0.0003908399,0.0001417454,9,1
0.0003286068,0.00015309,9,1
0.0002602152,0.0001623277,9,1
0.0001945787,0.0001701068,9,1
0.0001318594,0.0001767515,9,1
7.076078e-05,0.0001795066,9,1
1.095867e-05,0.0001796687,9,1
-4.706071e-05,0.0001785342,9,1
-9.859748e-05,0.0001767515,9,1
-0.0001339277,0.0001748067,9,1
-0.0001522411,0.0001736723,9,1
-0.0001614788,0.0001722137,9,1
-0.0001697442,0.0001684862,9,1
-0.0001810887,0.0001637863,9,1
-0.0001935677,0.0001589243,9,1
-0.0001945401,0.000155521,9,1
-0.0001665028,0.0001524417,9,1
-9.730096e-05,0.0001501728,9,1
5.772582e-06,0.0001474177,9,1
0.0001169494,0.0001466074,9,1
0.000215161,0.0001487142,9,1
0.0002983005,0.0001513072,9,1
0.0003772264,0.0001534141,9,1
0.0004611762,0.0001534141,9,1
0.0005451261,0.000150659,9,1
0.0006115729,0.0001446626,9,1
0.0006387999,0.0001355869,9,1
0.0006115729,0.0001250527,9,1
0.0005328091,0.000113384,9,1
0.0004187151,0.0001013911,9,1
0.0002911697,9.231547e-05,9,1
0.000168,8.664318e-05,9,1
6.362991e-05,8.04847e-05,9,1
-9.461558e-06,7.011252e-05,9,1
-4.819517e-05,5.163707e-05,9,1
-5.629844e-05,2.81376e-05,9,1
-5.435365e-05,5.772582e-06,9,1
-6.537409e-05,-1.25408e-05,9,1
-0.0001065387,-2.680255e-05,9,1
-0.0001724993,-4.203669e-05,9,1
-0.000246239,-5.791909e-05,9,1
-0.0003062031,-7.315322e-05,9,1
-0.000340561,-8.806324e-05,9,1
-0.0003519055,-0.0001037836,9,1
-0.0003512573,-0.0001191798,9,1
-0.0003468815,-0.0001298761,9,1
-0.000338292,-0.000129714,9,1
-0.0003274337,-0.0001161005,9,1
-0.0003160891,-9.130454e-05,9,1
-0.0003042584,-6.375344e-05,9,1
-0.0002950206,-4.349527e-05,9,1
-0.0002925897,-3.555408e-05,9,1
-0.0002982619,-3.668853e-05,9,1
-0.0003104168,-4.171256e-05,9,1
-0.0003225718,-4.706071e-05,9,1
-0.0003297026,-5.030202e-05,9,1
-0.0003324577,-5.402952e-05,9,1
-0.0003339163,-6.132246e-05,9,1
-0.0003352128,-7.752899e-05,9,1
-0.0003230579,-9.908367e-05,9,1
-0.000290969,-0.0001173971,9,1
-0.0002405667,-0.0001263107,9,1
-0.0001828714,-0.0001285796,9,1
-0.0001349001,-0.0001293899,9,1
-0.0001078352,-0.0001295519,9,1
-0.0001018388,-0.0001274451,9,1
-0.0001104282,-0.0001209625,9,1
-0.0001274451,-0.0001083214,9,1
-0.0001449482,-9.600444e-05,9,1
-0.0001567789,-8.741498e-05,9,1
-0.0001567789,-7.785312e-05,9,1
-0.0001434896,-6.359137e-05,9,1
-0.0001204763,-4.495386e-05,9,1
-8.871149e-05,-2.599222e-05,9,1
-4.819517e-05,-8.002969e-06,9,1
-5.085794e-06,1.031041e-05,9,1
3.251336e-05,3.202716e-05,9,1
5.374392e-05,5.325772e-05,9,1
5.374392e-05,6.865393e-05,9,1
3.121684e-05,7.90261e-05,9,1
-5.479652e-07,8.275361e-05,9,1
-1.99958e-05,8.307774e-05,9,1
-5.247859e-06,8.372601e-05,9,1
5.115087e-05,8.518459e-05,9,1
0.0001425557,8.631905e-05,9,1
0.0002530843,8.907416e-05,9,1
0.0003644232,9.53947e-05,9,1
0.0004568005,0.0001044704,9,1
0.0005191956,0.0001120874,9,1
0.0005441537,0.000113546,9,1
0.0005352402,0.0001090082,9,1
0.0004982892,9.977047e-05,9,1
0.0004446456,8.388807e-05,9,1
0.0003851676,6.330578e-05,9,1
0.0003260137,4.045456e-05,9,1
0.0002644289,1.792748e-05,9,1
0.0001968476,-8.720959e-07,9,1
0.0001304008,-8.975362e-06,9,1
8.032264e-05,-3.858999e-07,9,1
5.747142e-05,2.554455e-05,9,1
5.730935e-05,6.233338e-05,9,1
6.622294e-05,0.0001004187,9,1
7.238143e-05,0.0001312112,9,1
6.930219e-05,0.0001479039,9,1
5.94162e-05,0.0001527658,9,1
4.483033e-05,0.0001500107,9,1
2.619281e-05,0.0001410971,9,1
8.851824e-06,0.0001271595,9,1
-3.858999e-07,0.0001080358,9,1
-1.358292e-06,8.583286e-05,9,1
2.369211e-06,6.622294e-05,9,1
4.151929e-06,5.390598e-05,9,1
-3.858999e-07,4.953022e-05,9,1
-1.691656e-05,4.790957e-05,9,1
-4.657452e-05,4.207521e-05,9,1
-7.931171e-05,3.024445e-05,9,1
-0.0001042698,1.565857e-05,9,1
-0.0001185315,2.623614e-07,9,1
-0.0001173971,-1.918548e-05,9,1
-0.0001015147,-4.398147e-05,9,1
-8.012204e-05,-6.958779e-05,9,1
-6.569822e-05,-9.065628e-05,9,1
-6.586029e-05,-0.0001063766,9,1
-7.898758e-05,-0.0001219349,9,1
-9.486997e-05,-0.0001421931,9,1
-9.843541e-05,-0.0001637477,9,1
-8.547019e-05,-0.0001775233,9,1
-6.829127e-05,-0.0001760647,9,1
-6.342931e-05,-0.0001582375,9,1
-8.271508e-05,-0.0001313347,9,1
-0.0001238797,-0.0001016767,9,1
-0.000166827,-7.315322e-05,9,1
-0.0001877334,-4.592625e-05,9,1
-0.0001687718,-1.869928e-05,9,1
-0.0001096179,4.962256e-06,9,1
-3.312309e-05,2.230325e-05,9,1
2.829966e-05,3.364782e-05,9,1
5.1475e-05,3.98063e-05,9,1
3.429608e-05,4.207521e-05,9,1
-1.156841e-05,3.899597e-05,9,1
-6.893953e-05,2.943412e-05,9,1
-0.0001203142,2.035846e-05,9,1
-0.0001454344,1.792748e-05,9,1
-0.0001238797,2.586868e-05,9,1
-4.155049e-05,4.207521e-05,9,1
8.810177e-05,6.249545e-05,9,1
0.0002227781,8.04847e-05,9,1
0.0003136967,8.729144e-05,9,1
0.0003363859,8.453633e-05,9,1
0.0003026763,7.772959e-05,9,1
0.0002410915,7.20573e-05,9,1
0.0001735102,6.768154e-05,9,1
0.0001112771,6.46023e-05,9,1
6.071273e-05,6.022653e-05,9,1
2.278944e-05,5.1475e-05,9,1
-3.858999e-07,4.02925e-05,9,1
-5.734056e-06,3.121684e-05,9,1
2.531276e-06,2.910999e-05,9,1
1.436204e-05,3.60788e-05,9,1
1.695509e-05,5.260946e-05,9,1
3.503668e-06,7.497447e-05,9,1
-3.101625e-05,9.896015e-05,9,1
-8.239095e-05,0.0001187321,9,1
-0.0001327933,0.0001331559,9,1
-0.0001601823,0.0001441764,9,1
-0.00015451,0.0001526038,9,1
-0.0001235555,0.0001547106,9,1
-8.384954e-05,0.0001485521,9,1
-4.932962e-05,0.0001376938,9,1
-2.453363e-05,0.0001304008,9,1
-1.059602e-05,0.0001318594,9,1
-1.520357e-06,0.0001420695,9,1
1.112074e-05,0.0001602208,9,1
3.656499e-05,0.0001809652,9,1
8.74535e-05,0.000192958,9,1
0.0001616794,0.0001887444,9,1
0.0002417397,0.0001636242,9,1
0.0002968419,0.0001200286,9,1
0.0003059176,6.541262e-05,9,1
0.0002718839,1.1769e-05,9,1
0.0002192126,-3.036798e-05,9,1
0.0001743205,-5.759496e-05,9,1
0.0001577899,-6.893953e-05,9,1
0.0001707551,-7.33153e-05,9,1
0.0002005751,-7.60704e-05,9,1
0.0002295848,-8.320128e-05,9,1
0.0002480603,-9.778715e-05,9,1
0.000257298,-0.000119828,9,1
0.0002615117,-0.0001430034,9,1
0.0002632944,-0.0001634236,9,1
0.0002592428,-0.0001760647,9,1
0.0002456293,-0.0001773612,9,1
0.0002261814,-0.0001674752,9,1
0.0002013854,-0.0001525652,9,1
0.0001663793,-0.0001407345,9,1
0.0001156529,-0.0001386276,9,1
4.985435e-05,-0.0001454344,9,1
-2.145439e-05,-0.0001561307,9,1
-8.530812e-05,-0.0001645581,9,1
-0.0001336036,-0.0001658546,9,1
-0.0001682856,-0.0001596961,9,1
-0.0001908126,-0.0001477033,9,1
-0.0002032917,-0.0001363587,9,1
-0.0002117191,-0.0001289037,9,1
-0.0002203085,-0.0001290658,9,1
-0.0002311669,-0.0001319829,9,1
-0.000243808,-0.0001332795,9,1
-0.0002614731,-0.0001229073,9,1
-0.0002854588,-9.551824e-05,9,1
-0.000310903,-5.354332e-05,9,1
-0.0003267854,-4.599598e-06,9,1
-0.000325651,3.850978e-05,9,1
-0.0003063652,6.606088e-05,9,1
-0.0002744383,7.691926e-05,9,1
-0.0002379736,7.789165e-05,9,1
-0.0002047502,7.140904e-05,9,1
-0.0001771992,6.330578e-05,9,1
-0.0001517549,6.03886e-05,9,1
-0.0001258245,6.687121e-05,9,1
-0.0001016767,8.340187e-05,9,1
-8.482193e-05,0.0001026876,9,1
-8.141856e-05,0.0001148425,9,1
-8.968389e-05,0.0001175977,9,1
-9.778715e-05,0.000118408,9,1
-9.859748e-05,0.0001218114,9,1
-8.968389e-05,0.0001252147,9,1
-7.072225e-05,0.0001276457,9,1
-4.835724e-05,0.000128456,9,1
-3.231277e-05,0.0001299146,9,1
-3.360929e-05,0.0001331559,9,1
-5.516398e-05,0.0001363972,9,1
-9.276313e-05,0.000135911,9,1
-0.0001386276,0.0001310491,9,1
-0.000181737,0.0001239182,9,1
-0.0002125294,0.0001174356,9,1
-0.0002285739,0.000113384,9,1
-0.0002434839,0.0001114392,9,1
-0.0002731418,0.0001106288,9,1
-0.000315765,0.0001083599,9,1
-0.0003566054,0.0001049566,9,1
-0.0003770257,0.0001000946,9,1
-0.0003685983,9.377406e-05,9,1
-0.0003329439,8.567078e-05,9,1
-0.0002734659,7.52986e-05,9,1
-0.0001903264,6.897806e-05,9,1
-8.530812e-05,6.849186e-05,9,1
3.915804e-05,7.189524e-05,9,1
0.0001746447,7.367795e-05,9,1
0.0003060797,7.20573e-05,9,1
0.0004217943,6.78436e-05,9,1
0.0005196818,6.087479e-05,9,1
0.0006016869,5.439218e-05,9,1
0.0006733199,5.341979e-05,9,1
0.0007413874,6.071273e-05,9,1
0.0008204753,6.946425e-05,9,1
0.0009225765,7.432621e-05,9,1
0.001049474,7.286763e-05,9,1
0.001185285,6.735741e-05,9,1
0.001297272,6.233338e-05,9,1
0.001347675,6.022653e-05,9,1
0.001322554,6.249545e-05,9,1
0.001230339,7.043665e-05,9,1
0.001090638,7.67572e-05,9,1
0.0009225765,7.659513e-05,9,1
0.0007421977,6.78436e-05,9,1
0.0005613327,5.066468e-05,9,1
0.0003859779,2.927205e-05,9,1
0.0002185644,1.014835e-05,9,1
6.525056e-05,5.86492e-07,9,1
-6.326724e-05,2.531276e-06,9,1
-0.0001554824,1.014835e-05,9,1
-0.0002081536,1.630683e-05,9,1
-0.0002319772,1.841368e-05,9,1
-0.0002520733,1.468618e-05,9,1
-0.0002937241,5.610517e-06,9,1
-0.0003685983,-4.437533e-06,9,1
-0.0004640547,-1.059602e-05,9,1
-0.0005544871,-1.318906e-05,9,1
-0.0006155858,-1.286493e-05,9,1
-0.0006361681,-1.545797e-05,9,1
-0.000616072,-2.258885e-05,9,1
-0.0005655076,-3.458168e-05,9,1
-0.0004972781,-4.738484e-05,9,1
-0.0004178661,-5.419158e-05,9,1
-0.0003366714,-5.289507e-05,9,1
-0.0002721694,-4.754691e-05,9,1
-0.0002397564,-4.80331e-05,9,1
-0.0002417012,-6.06742e-05,9,1
-0.0002653627,-8.255302e-05,9,1
-0.0002971275,-0.0001062146,9,1
-0.0003272716,-0.000122259,9,1
-0.0003501228,-0.0001290658,9,1
-0.0003676259,-0.0001290658,9,1
-0.0003797808,-0.0001233935,9,1
-0.0003849669,-0.0001146419,9,1
-0.0003812394,-0.000107349,9,1
-0.0003682741,-0.0001057284,9,1
-0.0003467195,-0.0001107524,9,1
-0.0003214373,-0.0001203142,9,1
-0.0002930758,-0.0001287416,9,1
-0.0002635799,-0.0001329553,9,1
-0.0002306807,-0.0001313347,9,1
-0.0001943781,-0.0001266348,9,1
-0.000159534,-0.0001173971,9,1
-0.0001332795,-0.0001034594,9,1
-0.0001235555,-8.935975e-05,9,1
-0.0001259865,-7.720486e-05,9,1
-0.0001238797,-6.634648e-05,9,1
-0.0001076731,-5.338126e-05,9,1
-7.639453e-05,-3.571614e-05,9,1
-3.847125e-05,-1.788895e-05,9,1
-2.330684e-06,-3.789272e-06,9,1
2.667901e-05,9.66215e-06,9,1
4.483033e-05,2.278944e-05,9,1
4.466826e-05,2.959619e-05,9,1
2.586868e-05,2.76514e-05,9,1
-4.761664e-06,2.052053e-05,9,1
-4.300908e-05,1.565857e-05,9,1
-8.854943e-05,1.987227e-05,9,1
-0.0001399241,3.105477e-05,9,1
-0.0001854645,4.223728e-05,9,1
-0.0002105846,4.871989e-05,9,1
-0.0002104225,5.050261e-05,9,1
-0.0001880575,5.066468e-05,9,1
-0.0001460826,5.001642e-05,9,1
-9.324933e-05,4.871989e-05,9,1
-4.333321e-05,4.77475e-05,9,1
-4.761664e-06,4.320967e-05,9,1
1.889987e-05,3.121684e-05,9,1
2.894792e-05,1.322759e-05,9,1
3.13789e-05,-1.844488e-06,9,1
3.13789e-05,-5.89612e-06,9,1
3.18651e-05,2.855407e-06,9,1
3.154097e-05,1.825161e-05,9,1
2.505836e-05,2.910999e-05,9,1
8.689758e-06,3.251336e-05,9,1
-1.3027e-05,3.267542e-05,9,1
-3.198864e-05,3.769945e-05,9,1
-4.009191e-05,5.131294e-05,9,1
-2.323711e-05,6.978839e-05,9,1
2.943412e-05,8.777764e-05,9,1
0.0001146805,9.896015e-05,9,1
0.0002195368,9.928428e-05,9,1
0.000324231,8.939829e-05,9,1
0.0004115842,7.416415e-05,9,1
0.0004692795,5.811968e-05,9,1
0.0005013684,4.418206e-05,9,1
0.0005190336,3.429608e-05,9,1
0.0005350781,2.992031e-05,9,1
0.0005533914,3.283749e-05,9,1
0.0005702463,4.045456e-05,9,1
0.00057446,5.098881e-05,9,1
0.0005535535,6.217132e-05,9,1
0.0005026649,7.173317e-05,9,1
0.0004316803,7.951231e-05,9,1
0.0003602095,8.356394e-05,9,1
0.000299597,8.097089e-05,9,1
0.0002428742,7.384002e-05,9,1
0.0001769136,6.492643e-05,9,1
9.150514e-05,5.795762e-05,9,1
-9.299493e-06,5.455425e-05,9,1
-0.0001068628,5.293359e-05,9,1
-0.0001806025,5.325772e-05,9,1
-0.0002146363,5.56887e-05,9,1
-0.0001976194,5.828175e-05,9,1
-0.0001180453,5.860588e-05,9,1
2.910999e-05,5.860588e-05,9,1
0.0002169437,6.071273e-05,9,1
0.0003885709,6.541262e-05,9,1
0.0004848378,7.076078e-05,9,1
0.0004700898,7.546067e-05,9,1
0.0003584268,7.594687e-05,9,1
0.0001960373,7.432621e-05,9,1
3.624086e-05,7.189524e-05,9,1
-8.012204e-05,7.124698e-05,9,1
-0.0001357104,7.20573e-05,9,1
-0.0001368449,7.481241e-05,9,1
-0.0001070249,7.789165e-05,9,1
-7.574627e-05,7.983644e-05,9,1
-6.229485e-05,7.610894e-05,9,1
-7.461182e-05,6.265751e-05,9,1
-0.0001105903,4.402e-05,9,1
-0.0001598582,2.684107e-05,9,1
-0.0002052365,1.436204e-05,9,1
-0.0002318152,7.393236e-06,9,1
-0.0002334358,3.989864e-06,9,1
-0.0002169052,2.693341e-06,9,1
-0.0001958367,3.665733e-06,9,1
-0.0001828714,6.582909e-06,9,1
-0.0001807646,7.555301e-06,9,1
-0.0001838438,5.610517e-06,9,1
-0.0001890299,1.720949e-06,9,1
-0.000189192,2.693341e-06,9,1
-0.0001815749,7.069105e-06,9,1
-0.0001699062,1.257933e-05,9,1
-0.0001588858,1.841368e-05,9,1
-0.0001485136,2.408596e-05,9,1
-0.0001376552,2.81376e-05,9,1
-0.0001251762,2.716521e-05,9,1
-0.0001109144,2.278944e-05,9,1
-9.924574e-05,1.582063e-05,9,1
-9.065628e-05,1.047248e-05,9,1
-8.417367e-05,6.90704e-06,9,1
-8.060823e-05,6.744974e-06,9,1
-8.320128e-05,1.387585e-05,9,1
-9.584238e-05,2.424803e-05,9,1
-0.0001180453,3.462021e-05,9,1
-0.0001449482,4.402e-05,9,1
-0.0001716889,5.179914e-05,9,1
-0.0001943781,5.698522e-05,9,1
-0.0002047502,5.795762e-05,9,1
-0.0001951884,5.439218e-05,9,1
-0.0001635857,4.35338e-05,9,1
-0.0001120489,2.927205e-05,9,1
-5.402952e-05,1.695509e-05,9,1
-3.627206e-06,1.306552e-05,9,1
3.283749e-05,1.889987e-05,9,1
5.552663e-05,3.445814e-05,9,1
6.83298e-05,5.455425e-05,9,1
8.307774e-05,6.978839e-05,9,1
0.0001093323,7.513654e-05,9,1
0.0001472556,7.400208e-05,9,1
0.0001913374,7.400208e-05,9,1
0.0002310434,7.805372e-05,9,1
0.0002558394,8.599492e-05,9,1
0.0002529222,9.409818e-05,9,1
0.0002184023,9.960841e-05,9,1
0.0001589243,9.993253e-05,9,1
9.555677e-05,9.620504e-05,9,1
5.277153e-05,8.939829e-05,9,1
5.017848e-05,7.90261e-05,9,1
9.004655e-05,6.46023e-05,9,1
0.0001623277,4.580272e-05,9,1
0.0002508154,2.441009e-05,9,1
0.0003363859,3.179537e-06,9,1
0.0003968363,-1.529591e-05,9,1
0.000416122,-2.923353e-05,9,1
0.0003901916,-3.701266e-05,9,1
0.0003252034,-4.106429e-05,9,1
0.000232502,-4.317115e-05,9,1
0.0001295905,-4.770897e-05,9,1
3.445814e-05,-5.240886e-05,9,1
-4.106429e-05,-5.791909e-05,9,1
-9.276313e-05,-6.44017e-05,9,1
-0.0001264727,-7.088431e-05,9,1
-0.0001558065,-7.23429e-05,9,1
-0.0001890299,-6.715681e-05,9,1
-0.0002235498,-5.889148e-05,9,1
-0.0002499665,-5.22468e-05,9,1
-0.0002592042,-4.932962e-05,9,1
-0.0002514251,-5.208474e-05,9,1
-0.000233922,-6.39155e-05,9,1
-0.0002126914,-8.012204e-05,9,1
-0.000186761,-9.535618e-05,9,1
-0.0001575893,-0.0001076731,9,1
-0.0001206384,-0.0001154523,9,1
-6.974985e-05,-0.0001183694,9,1
1.234753e-06,-0.0001175591,9,1
9.507057e-05,-0.0001143178,9,1
0.0002046267,-0.0001110765,9,1
0.0003182346,-0.0001078352,9,1
0.0004211461,-0.0001029732,9,1
0.0004956961,-9.616651e-05,9,1
0.0005319988,-8.984595e-05,9,1
0.0005334574,-8.547019e-05,9,1
0.0005169268,-8.109443e-05,9,1
0.000500396,-7.461182e-05,9,1
0.000497803,-6.245691e-05,9,1
0.000515144,-4.689865e-05,9,1
0.0005415607,-3.150244e-05,9,1
0.0005558224,-2.177852e-05,9,1
0.000532485,-1.934754e-05,9,1
0.0004592314,-1.902341e-05,9,1
0.0003407616,-1.788895e-05,9,1
0.0001937684,-1.351319e-05,9,1
4.207521e-05,-2.330684e-06,9,1
-9.357346e-05,1.501031e-05,9,1
-0.0002045882,3.332369e-05,9,1
-0.000288538,4.953022e-05,9,1
-0.000345585,6.298164e-05,9,1
-0.0003750809,6.995045e-05,9,1
-0.0003698948,7.124698e-05,9,1
-0.0003285682,7.140904e-05,9,1
-0.0002556388,7.30297e-05,9,1
-0.0001716889,7.740546e-05,9,1
-0.0001015147,8.599492e-05,9,1
-6.213279e-05,9.766362e-05,9,1
-5.856735e-05,0.0001078737,9,1
-8.044617e-05,0.0001172735,9,1
-0.0001151281,0.0001239182,9,1
-0.0001467309,0.0001252147,9,1
-0.0001650443,0.0001206769,9,1
-0.0001737958,0.0001069013,9,1
-0.0001870851,8.42122e-05,9,1
-0.0002097743,5.374392e-05,9,1
-0.000238784,1.97102e-05,9,1
-0.0002583939,-1.027188e-05,9,1
-0.0002541802,-3.004385e-05,9,1
-0.0002251705,-3.944364e-05,9,1
-0.0001865989,-3.668853e-05,9,1
-0.000159372,-2.09682e-05,9,1
-0.0001592099,6.744974e-06,9,1
-0.0001828714,3.526847e-05,9,1
-0.0002138259,5.698522e-05,9,1
-0.0002350565,7.286763e-05,9,1
-0.0002397564,8.74535e-05,9,1
-0.0002310048,0.0001022015,9,1
-0.0002175534,0.0001138702,9,1
-0.0002117191,0.0001167873,9,1
-0.0002169052,0.0001062531,9,1
-0.0002253326,8.307774e-05,9,1
-0.0002259808,5.536457e-05,9,1
-0.0002136638,3.348575e-05,9,1
-0.000191623,2.441009e-05,9,1
-0.0001663408,2.457216e-05,9,1
-0.0001428413,2.700314e-05,9,1
-0.0001263107,2.829966e-05,9,1
-0.0001195039,2.667901e-05,9,1
-0.0001211246,1.938607e-05,9,1
-0.0001256624,6.744974e-06,9,1
-0.0001203142,-6.544382e-06,9,1
-9.017008e-05,-1.610624e-05,9,1
-3.474375e-05,-1.659243e-05,9,1
2.781346e-05,-7.030578e-06,9,1
7.448828e-05,9.338019e-06,9,1
8.956036e-05,2.554455e-05,9,1
7.027458e-05,3.624086e-05,9,1
2.81376e-05,3.850978e-05,9,1
-2.031993e-05,3.818565e-05,9,1
-6.051213e-05,4.207521e-05,9,1
-8.336335e-05,5.115087e-05,9,1
-8.384954e-05,5.893001e-05,9,1
-6.326724e-05,5.957827e-05,9,1
-3.441962e-05,5.244739e-05,9,1
-1.156841e-05,4.320967e-05,9,1
7.485573e-07,3.462021e-05,9,1
3.503668e-06,2.667901e-05,9,1
3.989864e-06,1.906194e-05,9,1
1.031041e-05,1.306552e-05,9,1
2.651694e-05,7.393236e-06,9,1
5.19612e-05,5.448452e-06,9,1
8.615699e-05,6.096713e-06,9,1
0.000130887,1.031041e-05,9,1
0.0001940925,1.889987e-05,9,1
0.0002829043,3.040651e-05,9,1
0.000393757,4.369587e-05,9,1
0.0005117406,5.455425e-05,9,1
0.0006104385,6.136099e-05,9,1
0.0006614891,6.362991e-05,9,1
0.0006457687,6.200925e-05,9,1
0.0005658705,6.087479e-05,9,1
0.0004469145,6.200925e-05,9,1
0.0003247172,6.346784e-05,9,1
0.0002256952,6.427817e-05,9,1
0.0001563313,6.136099e-05,9,1
0.000113546,6.055066e-05,9,1
9.118101e-05,6.751948e-05,9,1
8.178122e-05,7.837785e-05,9,1
7.6271e-05,8.84259e-05,9,1
6.930219e-05,9.604298e-05,9,1
5.957827e-05,0.0001026876,9,1
5.358185e-05,0.0001075496,9,1
5.844381e-05,0.0001098185,9,1
7.562274e-05,0.0001112771,9,1
9.879808e-05,0.0001096565,9,1
0.0001195424,0.0001025256,9,1
0.0001257009,8.923623e-05,9,1
0.0001130598,7.481241e-05,9,1
8.032264e-05,5.909208e-05,9,1
3.040651e-05,4.369587e-05,9,1
-2.858527e-05,2.408596e-05,9,1
-8.952183e-05,1.720949e-06,9,1
-0.0001452723,-1.99958e-05,9,1
-0.000191785,-3.409549e-05,9,1
-0.0002246843,-3.976777e-05,9,1
-0.0002408908,-4.138842e-05,9,1
-0.0002444563,-4.527799e-05,9,1
-0.0002395943,-5.143648e-05,9,1
-0.0002254946,-5.64605e-05,9,1
-0.0002026434,-6.164659e-05,9,1
-0.0001836818,-6.829127e-05,9,1
-0.0001830335,-7.720486e-05,9,1
-0.0002039399,-8.498399e-05,9,1
-0.0002392702,-8.790117e-05,9,1
-0.0002708729,-8.530812e-05,9,1
-0.0002805968,-8.125649e-05,9,1
-0.0002593663,-8.255302e-05,9,1
-0.0002133397,-9.227693e-05,9,1
-0.0001690959,-0.0001067007,9,1
-0.0001491618,-0.0001224211,9,1
-0.0001551583,-0.0001366828,9,1
-0.0001720131,-0.0001511067,9,1
-0.0001807646,-0.0001671511,9,1
-0.0001671511,-0.0001804405,9,1
-0.0001306864,-0.0001861127,9,1
-7.153257e-05,-0.0001801163,9,1
1.031041e-05,-0.0001648822,9,1
0.0001143563,-0.0001402483,9,1
0.0002373639,-0.000112211,9,1
0.0003681507,-8.320128e-05,9,1
0.0004882411,-5.59743e-05,9,1
0.0005814288,-3.26369e-05,9,1
0.0006399344,-1.545797e-05,9,1
