EMG1,EMG2,class,user
-8.984595e-05,2.424803e-05,9,1
-0.0001076731,2.878586e-05,9,1
-0.0001306864,3.299956e-05,9,1
-0.0001524032,3.462021e-05,9,1
-0.0001710407,3.105477e-05,9,1
-0.000189192,2.359977e-05,9,1
-0.00021415,1.582063e-05,9,1
-0.0002504527,9.338019e-06,9,1
-0.0002922655,4.962256e-06,9,1
-0.0003243544,2.04508e-06,9,1
-0.0003326198,-1.520357e-06,9,1
-0.000318358,-4.599598e-06,9,1
-0.0002872415,-6.220252e-06,9,1
-0.0002506147,-7.192643e-06,9,1
-0.0002220912,-9.785688e-06,9,1
-0.0002094502,-1.432352e-05,9,1
-0.0002113949,-2.064406e-05,9,1
-0.000216581,-2.583016e-05,9,1
-0.000201671,-2.745081e-05,9,1
-0.0001389517,-2.826114e-05,9,1
-1.3027e-05,-3.296103e-05,9,1
0.000160707,-4.625038e-05,9,1
0.000339141,-6.942573e-05,9,1
0.000468145,-0.0001020008,9,1
0.0005122268,-0.0001365208,9,1
0.000468145,-0.0001665028,9,1
0.0003657197,-0.0001903264,9,1
0.0002440086,-0.0002062088,9,1
0.000130887,-0.0002160948,9,1
3.948217e-05,-0.0002185258,9,1
-3.150244e-05,-0.0002146363,9,1
-8.628052e-05,-0.0002083157,9,1
-0.0001280934,-0.0002005366,9,1
-0.0001606685,-0.0001922712,9,1
-0.0001802784,-0.0001849783,9,1
-0.0001844921,-0.0001741199,9,1
-0.0001737958,-0.0001538618,9,1
-0.0001507825,-0.0001216107,9,1
-0.0001167488,-8.417367e-05,9,1
-8.320128e-05,-4.835724e-05,9,1
-6.148453e-05,-1.529591e-05,9,1
-5.467778e-05,1.727922e-05,9,1
-5.305713e-05,4.807163e-05,9,1
-4.138842e-05,7.416415e-05,9,1
-1.075808e-05,9.247754e-05,9,1
3.93201e-05,9.831188e-05,9,1
9.68533e-05,8.534666e-05,9,1
0.0001441764,5.763349e-05,9,1
0.0001738343,2.457216e-05,9,1
0.0001874478,-4.113403e-06,9,1
0.0001923098,-2.615429e-05,9,1
0.0001957132,-4.349527e-05,9,1
0.000200251,-6.116039e-05,9,1
0.0002021958,-8.141856e-05,9,1
0.000202844,-9.892161e-05,9,1
0.000200251,-0.0001091317,9,1
0.0001955511,-0.0001139937,9,1
0.0001890685,-0.0001190177,9,1
0.0001791825,-0.000127283,9,1
0.0001602208,-0.0001384655,9,1
0.000123432,-0.0001509446,9,1
7.20573e-05,-0.0001583996,9,1
1.825161e-05,-0.0001561307,9,1
-3.344723e-05,-0.0001465688,9,1
-8.465986e-05,-0.0001329553,9,1
-0.0001360346,-0.0001152902,9,1
-0.0001835197,-9.146661e-05,9,1
-0.0002183637,-6.116039e-05,9,1
-0.0002323013,-2.501983e-05,9,1
-0.0002295462,1.241726e-05,9,1
-0.0002198223,4.953022e-05,9,1
-0.0002162569,8.064677e-05,9,1
-0.0002172293,0.0001043083,9,1
-0.0002156086,0.0001188942,9,1
-0.0002049123,0.0001265113,9,1
-0.0001825473,0.0001321835,9,1
-0.0001556445,0.0001351007,9,1
-0.0001326312,0.0001328318,9,1
-0.0001157764,0.000125863,9,1
-9.762509e-05,0.0001164632,9,1
-6.650855e-05,0.0001101427,9,1
-1.983374e-05,0.0001114392,9,1
2.975825e-05,0.0001205148,9,1
6.314371e-05,0.0001373696,9,1
6.914012e-05,0.0001573037,9,1
5.1475e-05,0.0001728619,9,1
2.100672e-05,0.0001820997,9,1
-1.432352e-05,0.0001851789,9,1
-5.176061e-05,0.0001845306,9,1
-8.611845e-05,0.0001814514,9,1
-0.0001110765,0.0001772377,9,1
-0.0001227452,0.0001712413,9,1
-0.0001185315,0.0001626518,9,1
-9.697683e-05,0.0001522796,9,1
-6.083626e-05,0.0001440143,9,1
-1.075808e-05,0.0001409351,9,1
5.795762e-05,0.0001422316,9,1
0.0001475797,0.0001440143,9,1
0.0002501671,0.0001435281,9,1
0.0003469201,0.0001393144,9,1
0.0004240633,0.0001328318,9,1
0.0004845136,0.0001222976,9,1
0.00053994,0.0001098185,9,1
0.000594394,9.814982e-05,9,1
0.000634262,8.437427e-05,9,1
0.0006324793,6.687121e-05,9,1
0.0005739738,4.434413e-05,9,1
0.0004642555,2.262738e-05,9,1
0.000324393,7.555301e-06,9,1
0.000180479,5.124321e-06,9,1
5.293359e-05,1.630683e-05,9,1
-4.576419e-05,3.316162e-05,9,1
-0.0001091317,4.693717e-05,9,1
-0.000134738,5.131294e-05,9,1
-0.0001203142,4.742337e-05,9,1
-7.60704e-05,4.207521e-05,9,1
-2.177852e-05,4.564065e-05,9,1
2.197911e-05,5.974033e-05,9,1
4.061663e-05,7.6271e-05,9,1
2.927205e-05,8.777764e-05,9,1
-2.978945e-06,9.474644e-05,9,1
-3.798505e-05,0.0001025256,9,1
-6.083626e-05,0.0001119254,9,1
-6.91016e-05,0.0001177597,9,1
-7.299116e-05,0.0001177597,9,1
-7.688073e-05,0.0001096565,9,1
-6.456377e-05,9.474644e-05,9,1
-8.002969e-06,7.886404e-05,9,1
9.701536e-05,6.849186e-05,9,1
0.0002229401,6.719535e-05,9,1
0.000324393,7.335383e-05,9,1
0.000363937,8.226741e-05,9,1
0.0003269861,8.875003e-05,9,1
0.0002266676,8.79397e-05,9,1
9.571884e-05,8.226741e-05,9,1
-3.63644e-05,7.384002e-05,9,1
-0.0001524032,6.573675e-05,9,1
-0.0002441321,6.152305e-05,9,1
-0.0003146305,5.909208e-05,9,1
-0.0003698948,5.601284e-05,9,1
-0.0004074939,4.953022e-05,9,1
-0.0004139766,4.158902e-05,9,1
-0.0003812394,3.688912e-05,9,1
-0.0003151167,3.818565e-05,9,1
-0.0002311669,4.466826e-05,9,1
-0.0001404103,5.034055e-05,9,1
-5.192267e-05,5.115087e-05,9,1
2.651694e-05,4.466826e-05,9,1
7.805372e-05,3.18651e-05,9,1
7.821578e-05,1.484824e-05,9,1
9.338019e-06,-2.81688e-06,9,1
-0.0001185315,-1.805102e-05,9,1
-0.0002674695,-2.89094e-05,9,1
-0.000395177,-3.701266e-05,9,1
-0.0004758855,-4.414354e-05,9,1
-0.0005065158,-5.062615e-05,9,1
-0.0004967919,-5.483985e-05,9,1
-0.0004611376,-5.451572e-05,9,1
-0.0004061974,-5.516398e-05,9,1
-0.0003371576,-6.0188e-05,9,1
-0.0002575835,-7.039812e-05,9,1
-0.0001676373,-8.44978e-05,9,1
-7.380149e-05,-9.730096e-05,9,1
1.160693e-05,-0.0001050801,9,1
7.465034e-05,-0.00010978,9,1
0.0001117633,-0.0001125351,9,1
0.0001235941,-0.0001135075,9,1
0.0001140322,-0.0001131834,9,1
9.118101e-05,-0.000112211,9,1
6.249545e-05,-0.0001104282,9,1
3.283749e-05,-0.0001044318,9,1
9.338019e-06,-9.2439e-05,9,1
-1.682422e-06,-7.995997e-05,9,1
2.855407e-06,-7.169464e-05,9,1
2.716521e-05,-7.072225e-05,9,1
6.622294e-05,-7.526008e-05,9,1
0.0001078737,-8.287715e-05,9,1
0.0001375317,-8.887356e-05,9,1
0.0001477418,-8.984595e-05,9,1
0.0001354248,-8.644259e-05,9,1
0.0001013911,-7.833932e-05,9,1
4.985435e-05,-6.731888e-05,9,1
-5.247859e-06,-5.856735e-05,9,1
-4.90055e-05,-5.467778e-05,9,1
-8.093236e-05,-5.467778e-05,9,1
-0.0001157764,-5.516398e-05,9,1
-0.0001733096,-5.32192e-05,9,1
-0.0002606628,-4.527799e-05,9,1
-0.0003621157,-3.21507e-05,9,1
-0.0004468758,-1.967167e-05,9,1
-0.0004873921,-1.497178e-05,9,1
-0.0004653512,-2.015787e-05,9,1
-0.0003784843,-3.279896e-05,9,1
-0.0002429977,-4.495386e-05,9,1
-9.179074e-05,-5.305713e-05,9,1
4.110282e-05,-5.451572e-05,9,1
0.0001266733,-4.787104e-05,9,1
0.0001566554,-3.425755e-05,9,1
0.0001522796,-1.902341e-05,9,1
0.0001474177,-9.785688e-06,9,1
0.0001694586,-1.092015e-05,9,1
0.0002253711,-2.242678e-05,9,1
0.0002973281,-3.782299e-05,9,1
0.0003550234,-4.560212e-05,9,1
0.0003756057,-3.879538e-05,9,1
0.0003600474,-1.691656e-05,9,1
0.0003302274,1.452411e-05,9,1
0.0003205035,4.855783e-05,9,1
0.0003487029,8.032264e-05,9,1
0.0004044533,0.0001064152,9,1
0.0004553419,0.0001269974,9,1
0.0004723587,0.0001398006,9,1
0.0004439973,0.0001401247,9,1
0.0003866261,0.000130725,9,1
0.0003321722,0.0001167873,9,1
0.000309321,0.0001038221,9,1
0.0003276344,9.296373e-05,9,1
0.0003696093,8.712937e-05,9,1
0.000406074,8.664318e-05,9,1
0.0004123946,8.74535e-05,9,1
0.0003843572,8.405014e-05,9,1
0.00033671,7.384002e-05,9,1
0.0002889007,5.698522e-05,9,1
0.0002491947,3.867184e-05,9,1
0.0002130541,2.76514e-05,9,1
0.0001710792,2.716521e-05,9,1
0.0001195424,3.105477e-05,9,1
6.071273e-05,3.380988e-05,9,1
3.989864e-06,3.089271e-05,9,1
-4.138842e-05,2.457216e-05,9,1
-7.299116e-05,2.035846e-05,9,1
-8.887356e-05,1.97102e-05,9,1
-9.033215e-05,2.570662e-05,9,1
-7.55842e-05,3.737532e-05,9,1
-4.414354e-05,5.844381e-05,9,1
-1.010982e-05,8.631905e-05,9,1
4.151929e-06,0.0001132219,9,1
-1.594417e-05,0.0001329939,9,1
-6.764301e-05,0.000143204,9,1
-0.000137169,0.0001396385,9,1
-0.0002052365,0.0001239182,9,1
-0.0002579077,9.944634e-05,9,1
-0.0002864312,7.448828e-05,9,1
-0.0002807589,5.341979e-05,9,1
-0.0002345703,3.672706e-05,9,1
-0.0001543479,1.938607e-05,9,1
-6.472583e-05,-1.196227e-06,9,1
-6.176923e-08,-1.918548e-05,9,1
1.630683e-05,-2.971972e-05,9,1
-1.480971e-05,-3.134038e-05,9,1
-7.250496e-05,-2.777494e-05,9,1
-0.0001285796,-2.307504e-05,9,1
-0.0001606685,-1.869928e-05,9,1
-0.0001655305,-1.432352e-05,9,1
-0.0001606685,-9.947754e-06,9,1
-0.0001640719,-6.058186e-06,9,1
-0.0001784957,-6.706447e-06,9,1
-0.0001903264,-1.399939e-05,9,1
-0.0001801163,-2.42095e-05,9,1
-0.0001396,-3.458168e-05,9,1
-7.477388e-05,-4.300908e-05,9,1
-1.034161e-06,-5.030202e-05,9,1
6.508849e-05,-5.808115e-05,9,1
0.0001150046,-6.245691e-05,9,1
0.0001446626,-5.970181e-05,9,1
0.0001589243,-4.527799e-05,9,1
0.0001715654,-2.0482e-05,9,1
0.0001908512,7.555301e-06,9,1
0.0002120818,3.60788e-05,9,1
0.000217592,5.682316e-05,9,1
0.0001939304,6.265751e-05,9,1
0.0001448246,5.260946e-05,9,1
8.599492e-05,3.364782e-05,9,1
3.996837e-05,1.64689e-05,9,1
2.667901e-05,6.90704e-06,9,1
5.277153e-05,5.286387e-06,9,1
9.944634e-05,1.063454e-05,9,1
0.0001310491,2.149292e-05,9,1
0.0001195424,3.883391e-05,9,1
7.221937e-05,5.828175e-05,9,1
1.808955e-05,7.643307e-05,9,1
-1.416145e-05,8.923623e-05,9,1
-1.529591e-05,9.669123e-05,9,1
3.827799e-06,9.928428e-05,9,1
2.684107e-05,9.750156e-05,9,1
4.742337e-05,8.956036e-05,9,1
7.643307e-05,7.789165e-05,9,1
0.0001265113,6.719535e-05,9,1
0.0001986303,6.638502e-05,9,1
0.0002788527,7.853991e-05,9,1
0.0003524304,9.750156e-05,9,1
0.0004136911,0.0001122495,9,1
0.000470576,0.0001188942,9,1
0.000532647,0.0001172735,9,1
0.0005914768,0.000111115,9,1
0.0006274553,0.0001072255,9,1
0.0006224313,0.0001083599,9,1
0.0005726772,0.0001114392,9,1
0.0004838654,0.0001099806,9,1
0.0003608578,0.0001044704,9,1
0.0002107852,9.717743e-05,9,1
4.288554e-05,8.956036e-05,9,1
-0.0001316588,8.275361e-05,9,1
-0.0002919414,7.967438e-05,9,1
-0.0004180282,8.161915e-05,9,1
-0.0004997091,8.810177e-05,9,1
-0.0005305015,9.247754e-05,9,1
-0.00052175,8.956036e-05,9,1
-0.0004953333,7.562274e-05,9,1
-0.0004694029,5.714729e-05,9,1
-0.0004535205,3.996837e-05,9,1
-0.0004437966,2.359977e-05,9,1
-0.0004318037,7.717366e-06,9,1
-0.0004097628,-5.89612e-06,9,1
-0.0003742705,-1.67545e-05,9,1
-0.0003261372,-2.745081e-05,9,1
-0.0002643903,-4.106429e-05,9,1
-0.000194216,-5.662256e-05,9,1
-0.0001292278,-7.201877e-05,9,1
-8.271508e-05,-8.790117e-05,9,1
-6.245691e-05,-0.0001057284,9,1
-6.521203e-05,-0.0001230693,9,1
-8.644259e-05,-0.000137007,9,1
-0.0001175591,-0.0001447861,9,1
-0.0001515928,-0.0001441378,9,1
-0.0001900023,-0.0001340898,9,1
-0.0002340841,-0.0001144799,9,1
-0.0002825416,-8.984595e-05,9,1
-0.0003254889,-6.342931e-05,9,1
-0.0003575778,-4.171256e-05,9,1
-0.0003728119,-2.858527e-05,9,1
-0.0003697327,-2.599222e-05,9,1
-0.0003496366,-3.798505e-05,9,1
-0.0003139823,-6.06742e-05,9,1
-0.0002668213,-8.320128e-05,9,1
-0.0002088019,-9.454585e-05,9,1
-0.0001447861,-9.389759e-05,9,1
-8.871149e-05,-8.644259e-05,9,1
-5.710876e-05,-7.444975e-05,9,1
-5.613637e-05,-5.986387e-05,9,1
-7.282909e-05,-4.300908e-05,9,1
-8.935975e-05,-2.550602e-05,9,1
-9.438378e-05,-9.299493e-06,9,1
-8.968389e-05,2.531276e-06,9,1
-8.709085e-05,1.144487e-05,9,1
-9.875954e-05,2.035846e-05,9,1
-0.0001258245,3.251336e-05,9,1
-0.0001566169,4.807163e-05,9,1
-0.0001695821,6.346784e-05,9,1
-0.0001524032,7.384002e-05,9,1
-0.0001109144,7.481241e-05,9,1
-5.759496e-05,6.427817e-05,9,1
-5.085794e-06,4.207521e-05,9,1
4.045456e-05,1.355172e-05,9,1
7.221937e-05,-1.837515e-05,9,1
8.518459e-05,-5.030202e-05,9,1
8.113296e-05,-7.623246e-05,9,1
6.703327e-05,-9.000802e-05,9,1
5.309566e-05,-8.919769e-05,9,1
4.645098e-05,-8.060823e-05,9,1
4.904402e-05,-7.169464e-05,9,1
6.071273e-05,-6.715681e-05,9,1
7.513654e-05,-6.683268e-05,9,1
8.939829e-05,-6.748094e-05,9,1
0.0001043083,-6.845333e-05,9,1
0.0001205148,-6.991193e-05,9,1
0.0001378558,-7.088431e-05,9,1
0.0001576278,-6.942573e-05,9,1
0.0001798307,-6.213279e-05,9,1
0.0001994406,-4.80331e-05,9,1
0.0002138645,-2.907146e-05,9,1
0.0002211574,-1.221667e-05,9,1
0.0002221298,1.720949e-06,9,1
0.0002218057,1.193106e-05,9,1
0.000227478,2.068259e-05,9,1
0.0002422259,3.299956e-05,9,1
0.0002613496,5.163707e-05,9,1
0.0002754493,7.691926e-05,9,1
0.0002777182,0.0001046324,9,1
0.0002689667,0.0001315353,9,1
0.0002530843,0.0001524417,9,1
0.0002292607,0.0001626518,9,1
0.0002008992,0.000158114,9,1
0.0001710792,0.0001406109,9,1
0.0001398006,0.0001172735,9,1
0.0001106288,9.409818e-05,9,1
8.79397e-05,7.870197e-05,9,1
7.027458e-05,7.059871e-05,9,1
5.56887e-05,6.768154e-05,9,1
4.175109e-05,6.735741e-05,9,1
2.894792e-05,6.816773e-05,9,1
1.436204e-05,6.735741e-05,9,1
-1.844488e-06,6.930219e-05,9,1
-1.902341e-05,7.789165e-05,9,1
-3.506788e-05,9.085688e-05,9,1
-4.754691e-05,0.0001012291,9,1
-4.625038e-05,0.0001038221,9,1
-1.772689e-05,9.912221e-05,9,1
3.624086e-05,9.31258e-05,9,1
0.0001017153,9.26396e-05,9,1
0.0001595726,0.0001000946,9,1
0.0001898788,0.000113384,9,1
0.0001793446,0.0001261871,9,1
0.0001354248,0.0001320215,9,1
7.983644e-05,0.0001289422,9,1
3.13789e-05,0.0001175977,9,1
-9.137427e-06,0.0001015532,9,1
-4.608832e-05,8.550872e-05,9,1
-7.218083e-05,6.719535e-05,9,1
-7.850138e-05,4.515445e-05,9,1
-6.06742e-05,2.01964e-05,9,1
-2.080613e-05,-4.275467e-06,9,1
3.024445e-05,-2.631635e-05,9,1
8.080883e-05,-4.268495e-05,9,1
0.0001227837,-5.257093e-05,9,1
0.0001446626,-5.613637e-05,9,1
0.0001406109,-5.64605e-05,9,1
0.0001153287,-5.451572e-05,9,1
8.161915e-05,-5.32192e-05,9,1
5.390598e-05,-5.370539e-05,9,1
3.834771e-05,-5.500191e-05,9,1
3.60788e-05,-5.435365e-05,9,1
3.721326e-05,-4.576419e-05,9,1
3.040651e-05,-3.004385e-05,9,1
8.203562e-06,-1.189254e-05,9,1
-2.631635e-05,2.369211e-06,9,1
-6.456377e-05,9.986281e-06,9,1
-9.551824e-05,7.393236e-06,9,1
-0.0001125351,-2.492749e-06,9,1
-0.0001162626,-1.432352e-05,9,1
-0.0001089697,-2.177852e-05,9,1
-9.422172e-05,-2.242678e-05,9,1
-8.303922e-05,-1.399939e-05,9,1
-8.465986e-05,4.151929e-06,9,1
-9.746302e-05,3.121684e-05,9,1
-0.0001086455,6.298164e-05,9,1
-0.0001042698,9.020862e-05,9,1
-7.55842e-05,0.000103498,9,1
-3.458168e-05,0.0001022015,9,1
2.04508e-06,9.134307e-05,9,1
2.927205e-05,7.967438e-05,9,1
5.730935e-05,7.481241e-05,9,1
0.0001041462,8.097089e-05,9,1
0.0001892305,9.604298e-05,9,1
0.0003200173,0.0001138702,9,1
0.000485324,0.0001273216,9,1
0.0006485239,0.0001339663,9,1
0.0007671557,0.0001326697,9,1
0.0008138306,0.0001206769,9,1
0.0007862795,9.798775e-05,9,1
0.0007002227,7.092284e-05,9,1
0.000569598,4.434413e-05,9,1
0.0004149876,1.825161e-05,9,1
0.0002525981,-7.192643e-06,9,1
9.733949e-05,-3.409549e-05,9,1
-4.05781e-05,-6.504996e-05,9,1
-0.0001464067,-0.0001015147,9,1
-0.000199078,-0.0001389517,9,1
-0.0001806025,-0.000166989,9,1
-9.551824e-05,-0.0001760647,9,1
2.829966e-05,-0.0001622891,9,1
0.0001483901,-0.0001267968,9,1
0.000225209,-7.704279e-05,9,1
0.000234933,-2.485776e-05,9,1
0.0001822617,1.9224e-05,9,1
9.458438e-05,5.017848e-05,9,1
4.962256e-06,6.946425e-05,9,1
-6.715681e-05,8.113296e-05,9,1
-0.0001225832,9.21534e-05,9,1
-0.0001757406,0.0001039842,9,1
-0.0002378116,0.0001161391,9,1
-0.000303286,0.0001260251,9,1
-0.0003621157,0.0001300767,9,1
-0.0004134903,0.0001255389,9,1
-0.0004651892,0.0001154908,9,1
-0.0005206155,0.0001054428,9,1
-0.0005716661,9.750156e-05,9,1
-0.0005985689,9.199134e-05,9,1
-0.0005867381,8.79397e-05,9,1
-0.0005280706,8.388807e-05,9,1
-0.0004261314,7.691926e-05,9,1
-0.0002896725,6.687121e-05,9,1
-0.0001323071,5.260946e-05,9,1
1.744129e-05,3.413401e-05,9,1
0.0001313732,1.241726e-05,9,1
0.0001934442,-1.173047e-05,9,1
0.0002031682,-3.766092e-05,9,1
0.0001762653,-6.132246e-05,9,1
0.0001334801,-8.141856e-05,9,1
8.956036e-05,-0.000102325,9,1
4.969229e-05,-0.0001225832,9,1
1.338965e-05,-0.0001389517,9,1
-2.031993e-05,-0.0001464067,9,1
-5.240886e-05,-0.0001415448,9,1
-7.752899e-05,-0.00012469,9,1
-7.931171e-05,-0.0001013526,9,1
-3.814712e-05,-8.02841e-05,9,1
4.35338e-05,-6.715681e-05,9,1
0.0001475797,-6.48879e-05,9,1
0.0002469258,-7.072225e-05,9,1
0.0003213138,-7.785312e-05,9,1
0.0003592371,-8.287715e-05,9,1
0.0003662059,-8.692878e-05,9,1
0.0003589129,-9.2439e-05,9,1
0.0003563199,-9.649064e-05,9,1
0.0003717161,-9.19528e-05,9,1
0.0004054258,-7.639453e-05,9,1
0.00044578,-4.949169e-05,9,1
0.0004770586,-1.691656e-05,9,1
0.0004794896,1.241726e-05,9,1
0.0004405939,3.13789e-05,9,1
0.000356644,3.915804e-05,9,1
0.0002312055,4.02925e-05,9,1
7.999851e-05,3.526847e-05,9,1
-7.509801e-05,2.473423e-05,9,1
-0.0002053985,1.533444e-05,9,1
-0.0002929138,1.355172e-05,9,1
-0.00033813,2.603075e-05,9,1
-0.0003509331,4.953022e-05,9,1
-0.0003449367,7.384002e-05,9,1
-0.0003389403,9.68533e-05,9,1
-0.0003407231,0.000118408,9,1
-0.0003415334,0.0001367214,9,1
-0.0003262992,0.0001479039,9,1
-0.0002870794,0.0001490383,9,1
-0.0002376495,0.0001393144,9,1
-0.0002076674,0.0001203528,9,1
-0.0002177155,9.426025e-05,9,1
-0.0002643903,6.589881e-05,9,1
-0.0003277578,4.158902e-05,9,1
-0.0003886944,2.505836e-05,9,1
-0.0004318037,1.533444e-05,9,1
-0.0004470379,1.112074e-05,9,1
-0.0004334244,1.160693e-05,9,1
-0.0003972838,1.290346e-05,9,1
-0.0003468815,1.338965e-05,9,1
-0.0002872415,1.338965e-05,9,1
-0.0002172293,1.533444e-05,9,1
-0.0001361966,1.614476e-05,9,1
-4.868137e-05,1.371378e-05,9,1
2.910999e-05,8.689758e-06,9,1
7.805372e-05,2.693341e-06,9,1
8.372601e-05,-3.14101e-06,9,1
4.839576e-05,-9.947754e-06,9,1
-1.643037e-05,-2.09682e-05,9,1
-8.935975e-05,-3.960571e-05,9,1
-0.0001501342,-6.586029e-05,9,1
-0.0001906506,-9.260107e-05,9,1
-0.0002102605,-0.0001118868,9,1
-0.0002071812,-0.0001209625,9,1
-0.0001822232,-0.0001178833,9,1
-0.0001407345,-0.0001050801,9,1
-9.19528e-05,-8.239095e-05,9,1
-4.544006e-05,-4.997789e-05,9,1
-7.354709e-06,-1.562004e-05,9,1
1.97102e-05,1.355172e-05,9,1
3.445814e-05,3.721326e-05,9,1
4.045456e-05,5.828175e-05,9,1
4.596478e-05,7.659513e-05,9,1
6.152305e-05,8.972242e-05,9,1
9.247754e-05,9.68533e-05,9,1
0.0001414213,0.0001007429,9,1
0.0001992786,0.0001000946,9,1
0.0002537325,9.555677e-05,9,1
0.0002876042,8.761557e-05,9,1
0.0002874421,7.659513e-05,9,1
0.0002538946,6.41161e-05,9,1
0.0002023578,5.374392e-05,9,1
0.0001483901,4.936815e-05,9,1
0.0001052807,4.985435e-05,9,1
8.696731e-05,5.19612e-05,9,1
9.620504e-05,5.228533e-05,9,1
0.000118408,5.260946e-05,9,1
0.0001363972,5.860588e-05,9,1
0.0001406109,6.670914e-05,9,1
0.0001312112,6.83298e-05,9,1
0.0001119254,6.087479e-05,9,1
8.956036e-05,5.115087e-05,9,1
6.217132e-05,4.72613e-05,9,1
2.910999e-05,5.228533e-05,9,1
-9.137427e-06,5.94162e-05,9,1
-5.2733e-05,6.557468e-05,9,1
-9.827335e-05,6.83298e-05,9,1
-0.0001391138,6.589881e-05,9,1
-0.0001682856,5.585077e-05,9,1
-0.0001784957,3.996837e-05,9,1
-0.000166989,2.262738e-05,9,1
-0.0001423551,9.500085e-06,9,1
-0.0001182074,7.23117e-06,9,1
-0.0001076731,1.419998e-05,9,1
-0.0001062146,2.489629e-05,9,1
-9.276313e-05,3.18651e-05,9,1
-5.111234e-05,3.040651e-05,9,1
1.64689e-05,2.197911e-05,9,1
9.344993e-05,1.403791e-05,9,1
0.000162976,9.500085e-06,9,1
0.0002158093,8.203562e-06,9,1
0.0002509774,7.393236e-06,9,1
0.0002738286,4.313994e-06,9,1
0.0002887387,1.072688e-06,9,1
0.0002948972,1.558884e-06,9,1
0.000289549,1.112074e-05,9,1
0.0002713977,2.927205e-05,9,1
0.0002420638,5.082674e-05,9,1
0.0002078681,6.78436e-05,9,1
0.0001767515,7.497447e-05,9,1
0.0001535762,7.286763e-05,9,1
0.0001373696,6.281957e-05,9,1
0.000130725,4.985435e-05,9,1
0.0001389903,3.883391e-05,9,1
0.0001592484,3.202716e-05,9,1
0.0001858272,3.056858e-05,9,1
0.0002117576,3.510641e-05,9,1
0.000235095,4.094075e-05,9,1
0.0002501671,4.515445e-05,9,1
0.0002519498,4.693717e-05,9,1
0.0002384984,4.628891e-05,9,1
0.0002096508,4.337174e-05,9,1
0.000165569,3.98063e-05,9,1
0.0001122495,3.656499e-05,9,1
5.179914e-05,3.170304e-05,9,1
-1.173047e-05,2.651694e-05,9,1
-6.974985e-05,2.424803e-05,9,1
-0.0001107524,2.732727e-05,9,1
-0.0001284175,3.510641e-05,9,1
-0.0001201522,4.693717e-05,9,1
-8.530812e-05,5.633696e-05,9,1
-2.7937e-05,6.136099e-05,9,1
3.818565e-05,5.795762e-05,9,1
8.680524e-05,4.661304e-05,9,1
9.490851e-05,3.60788e-05,9,1
5.730935e-05,3.235129e-05,9,1
-1.092015e-05,3.624086e-05,9,1
-8.498399e-05,4.175109e-05,9,1
-0.000144462,4.402e-05,9,1
-0.0001789819,3.899597e-05,9,1
-0.0001895161,2.910999e-05,9,1
-0.0001951884,1.841368e-05,9,1
-0.0002191741,7.717366e-06,9,1
-0.0002681178,1.234753e-06,9,1
-0.0003387782,1.720949e-06,9,1
-0.0004120317,1.047248e-05,9,1
-0.0004659995,2.035846e-05,9,1
-0.0004843129,2.748934e-05,9,1
-0.0004645409,2.81376e-05,9,1
-0.0004128421,2.278944e-05,9,1
-0.0003441264,1.679302e-05,9,1
-0.0002705488,1.322759e-05,9,1
-0.0001961608,1.079661e-05,9,1
-0.0001258245,9.175954e-06,9,1
-7.720486e-05,8.527692e-06,9,1
-6.180866e-05,7.717366e-06,9,1
-7.250496e-05,3.827799e-06,9,1
-8.060823e-05,-5.409925e-06,9,1
-5.970181e-05,-1.918548e-05,9,1
2.369211e-06,-3.798505e-05,9,1
9.280167e-05,-6.148453e-05,9,1
0.0001882582,-8.595638e-05,9,1
0.0002610255,-0.0001101041,9,1
0.000289549,-0.0001361966,9,1
0.0002660495,-0.0001627754,9,1
0.0002057612,-0.0001854645,9,1
0.0001347766,-0.0001977815,9,1
7.951231e-05,-0.0001932436,9,1
5.844381e-05,-0.0001739578,9,1
8.194328e-05,-0.0001493239,9,1
0.0001461212,-0.0001285796,9,1
0.0002282883,-0.0001110765,9,1
0.0003008936,-9.017008e-05,9,1
0.0003428685,-6.731888e-05,9,1
0.0003563199,-4.414354e-05,9,1
0.0003592371,-2.518189e-05,9,1
0.0003772264,-1.043395e-05,9,1
0.0004232529,-2.238346e-07,9,1
0.0004906721,2.531276e-06,9,1
0.0005616568,-4.275467e-06,9,1
0.0006178935,-1.67545e-05,9,1
0.00064901,-2.826114e-05,9,1
0.0006522514,-3.409549e-05,9,1
0.0006232416,-3.279896e-05,9,1
0.0005611706,-2.550602e-05,9,1
0.0004794896,-1.3027e-05,9,1
0.0004099636,4.638125e-06,9,1
0.0003856538,2.619281e-05,9,1
0.000418391,4.369587e-05,9,1
0.0004869446,5.649903e-05,9,1
0.0005482053,6.654708e-05,9,1
0.0005546879,7.724339e-05,9,1
0.000482893,9.069481e-05,9,1
0.0003388169,0.000105929,9,1
0.000160707,0.0001190562,9,1
-4.437533e-06,0.0001250527,9,1
-0.000122097,0.0001188942,9,1
-0.0001846542,9.879808e-05,9,1
-0.0002058847,7.254349e-05,9,1
-0.0002097743,5.131294e-05,9,1
-0.0002094502,4.094075e-05,9,1
-0.0002104225,4.288554e-05,9,1
-0.0002156086,5.131294e-05,9,1
-0.0002300324,5.811968e-05,9,1
-0.0002554767,5.860588e-05,9,1
-0.0002875656,5.439218e-05,9,1
-0.000320789,4.920609e-05,9,1
-0.0003527159,4.304761e-05,9,1
-0.0003762153,3.413401e-05,9,1
-0.0003805911,2.829966e-05,9,1
-0.0003591985,3.008238e-05,9,1
-0.0003152788,3.883391e-05,9,1
-0.0002713591,4.953022e-05,9,1
-0.0002585559,5.925414e-05,9,1
-0.0002932379,6.687121e-05,9,1
-0.0003671397,7.238143e-05,9,1
-0.0004565997,7.805372e-05,9,1
-0.0005397392,8.46984e-05,9,1
-0.0005972724,9.458438e-05,9,1
-0.0006230408,0.0001039842,9,1
-0.000611048,0.0001091703,9,1
-0.0005499493,0.0001093323,9,1
-0.0004365036,0.0001065772,9,1
-0.0002911311,0.0001023635,9,1
-0.0001502963,9.960841e-05,9,1
-4.689865e-05,9.426025e-05,9,1
-5.409925e-06,8.42122e-05,9,1
-2.388537e-05,7.043665e-05,9,1
-8.320128e-05,5.666109e-05,9,1
-0.0001548341,4.677511e-05,9,1
-0.0002130156,4.045456e-05,9,1
-0.0002468872,3.316162e-05,9,1
-0.0002569353,2.246531e-05,9,1
-0.0002499665,7.393236e-06,9,1
-0.0002337599,-9.785688e-06,9,1
-0.0002191741,-2.631635e-05,9,1
-0.0002047502,-3.830919e-05,9,1
-0.0001885437,-4.446767e-05,9,1
-0.0001697442,-4.43056e-05,9,1
-0.0001517549,-4.203669e-05,9,1
-0.0001357104,-4.025397e-05,9,1
-0.0001201522,-3.992984e-05,9,1
-0.0001026491,-4.462973e-05,9,1
-8.07703e-05,-5.69467e-05,9,1
-5.743289e-05,-7.380149e-05,9,1
-4.252288e-05,-9.130454e-05,9,1
-4.592625e-05,-0.0001044318,9,1
-6.748094e-05,-0.0001096179,9,1
-9.778715e-05,-0.0001086455,9,1
-0.0001290658,-0.0001044318,9,1
-0.0001546721,-0.000102325,9,1
-0.0001699062,-0.0001029732,9,1
-0.0001797922,-0.0001063766,9,1
-0.0001888679,-0.0001120489,9,1
-0.0001969711,-0.0001165867,9,1
-0.0001985918,-0.0001185315,9,1
-0.0001888679,-0.0001135075,9,1
-0.0001689338,-9.794922e-05,9,1
-0.0001489998,-7.250496e-05,9,1
-0.0001318209,-3.928157e-05,9,1
-0.0001076731,-4.275467e-06,9,1
-6.731888e-05,2.651694e-05,9,1
-1.497178e-05,4.920609e-05,9,1
3.672706e-05,6.638502e-05,9,1
7.691926e-05,7.610894e-05,9,1
0.0001015532,8.113296e-05,9,1
0.0001203528,8.502253e-05,9,1
0.0001480659,9.182927e-05,9,1
0.0001861513,0.0001007429,9,1
0.0002289366,0.0001112771,9,1
0.0002718839,0.0001239182,9,1
0.0003138588,0.0001334801,9,1
0.0003561579,0.0001388282,9,1
0.0004117463,0.0001399627,9,1
0.000500396,0.0001393144,9,1
0.0006300483,0.0001363972,9,1
0.0007835244,0.000130887,9,1
0.0009157698,0.0001273216,9,1
0.00098562,0.0001289422,9,1
0.0009814063,0.000140773,9,1
0.0009146354,0.0001592484,9,1
0.0008057273,0.0001733481,9,1
0.0006789921,0.0001746447,9,1
0.0005589016,0.0001660552,9,1
0.0004624728,0.0001579519,9,1
0.0003932708,0.000155521,9,1
0.0003461098,0.000158114,9,1
0.0003149933,0.0001624898,9,1
0.0002981384,0.0001610312,9,1
0.0002889007,0.0001474177,9,1
0.0002765838,0.0001213252,9,1
0.0002519498,8.648112e-05,9,1
0.0002117576,4.936815e-05,9,1
0.0001539003,1.403791e-05,9,1
8.291568e-05,-1.805102e-05,9,1
7.555301e-06,-5.046408e-05,9,1
-6.06742e-05,-8.271508e-05,9,1
-0.0001110765,-0.0001099421,9,1
-0.0001363587,-0.000127121,9,1
-0.0001384655,-0.0001329553,9,1
-0.0001243659,-0.0001318209,9,1
-0.000104756,-0.0001261486,9,1
-9.29252e-05,-0.0001167488,9,1
-9.697683e-05,-0.0001036215,9,1
-0.0001159385,-8.644259e-05,9,1
-0.0001412206,-6.278104e-05,9,1
-0.0001600202,-3.522994e-05,9,1
-0.0001682856,-1.092015e-05,9,1
-0.0001726613,6.420843e-06,9,1
-0.0001870851,1.792748e-05,9,1
-0.0002199844,2.554455e-05,9,1
-0.0002703867,2.927205e-05,9,1
-0.0003264613,2.943412e-05,9,1
-0.0003763774,2.862379e-05,9,1
-0.0004152731,2.732727e-05,9,1
-0.0004369898,2.586868e-05,9,1
-0.0004434724,2.570662e-05,9,1
-0.0004407173,2.603075e-05,9,1
-0.0004326141,2.667901e-05,9,1
-0.0004136524,2.829966e-05,9,1
-0.0003702189,3.056858e-05,9,1
-0.0002875656,3.121684e-05,9,1
-0.0001525652,2.959619e-05,9,1
2.684107e-05,2.76514e-05,9,1
0.0002209954,2.34377e-05,9,1
0.0003817642,1.1769e-05,9,1
0.0004707381,-1.092015e-05,9,1
0.0004713863,-3.847125e-05,9,1
0.0003924605,-6.44017e-05,9,1
0.0002644289,-7.850138e-05,9,1
0.0001235941,-7.60704e-05,9,1
4.47606e-06,-5.613637e-05,9,1
-6.893953e-05,-2.664048e-05,9,1
-7.866345e-05,-1.034161e-06,9,1
-9.137427e-06,1.209313e-05,9,1
0.0001349386,1.322759e-05,9,1
0.0003256896,5.610517e-06,9,1
0.0005261644,-3.465141e-06,9,1
0.0007018434,-9.137427e-06,9,1
0.0008160995,-5.085794e-06,9,1
0.0008348991,1.1769e-05,9,1
0.0007524078,3.526847e-05,9,1
0.0005952043,5.633696e-05,9,1
0.000406074,6.670914e-05,9,1
0.00022764,6.362991e-05,9,1
8.032264e-05,5.115087e-05,9,1
-2.988179e-05,3.429608e-05,9,1
-0.0001092938,1.9224e-05,9,1
-0.0001686097,7.393236e-06,9,1
-0.0002206326,-2.238346e-07,9,1
-0.0002768693,-3.951337e-06,9,1
-0.0003407231,-5.409925e-06,9,1
-0.0004089525,-1.196227e-06,9,1
-0.0004802613,9.824215e-06,9,1
-0.0005496252,2.408596e-05,9,1
-0.0005993792,3.867184e-05,9,1
-0.0006034309,5.423012e-05,9,1
-0.000541684,6.83298e-05,9,1
-0.0004118697,7.756752e-05,9,1
-0.0002486699,8.129502e-05,9,1
-0.0001071869,8.307774e-05,9,1
-2.307504e-05,8.84259e-05,9,1
6.096713e-06,0.0001007429,9,1
4.151929e-06,0.0001180839,9,1
-1.497178e-05,0.0001346145,9,1
-4.965376e-05,0.0001449867,9,1
-9.697683e-05,0.0001449867,9,1
-0.0001488377,0.0001378558,9,1
-0.0001872472,0.0001289422,9,1
-0.0001940539,0.0001221355,9,1
-0.0001579134,0.0001174356,9,1
-7.396356e-05,0.000115977,9,1
4.320967e-05,0.0001175977,9,1
0.0001577899,0.0001200286,9,1
0.0002339606,0.0001161391,9,1
0.0002527602,0.0001039842,9,1
0.0002196988,8.437427e-05,9,1
0.0001514693,5.860588e-05,9,1
6.508849e-05,2.862379e-05,9,1
-2.664048e-05,-2.492749e-06,9,1
-0.0001167488,-3.182657e-05,9,1
-0.0001963229,-5.921561e-05,9,1
-0.0002558008,-8.709085e-05,9,1
-0.0002875656,-0.0001138316,9,1
-0.0002919414,-0.0001368449,9,1
-0.0002694143,-0.0001567789,9,1
-0.0002263049,-0.0001783336,9,1
-0.0001763888,-0.0002049123,9,1
-0.0001318209,-0.0002308428,9,1
-9.017008e-05,-0.0002486699,9,1
-5.338126e-05,-0.000251263,9,1
-3.085418e-05,-0.0002350565,9,1
-2.89094e-05,-0.0001997262,9,1
-4.932962e-05,-0.0001517549,9,1
-8.790117e-05,-0.0001029732,9,1
-0.000134576,-6.553616e-05,9,1
-0.0001802784,-4.268495e-05,9,1
-0.0002144742,-3.182657e-05,9,1
-0.0002229016,-2.583016e-05,9,1
-0.0002039399,-1.950961e-05,9,1
-0.0001627754,-9.137427e-06,9,1
-0.0001068628,7.23117e-06,9,1
-4.738484e-05,2.554455e-05,9,1
-2.81688e-06,3.883391e-05,9,1
8.365628e-06,4.207521e-05,9,1
-1.464765e-05,3.737532e-05,9,1
-5.289507e-05,2.943412e-05,9,1
-8.741498e-05,2.424803e-05,9,1
-0.0001104282,2.34377e-05,9,1
-0.0001253383,2.846173e-05,9,1
-0.000137007,3.769945e-05,9,1
-0.0001527273,4.920609e-05,9,1
-0.0001737958,6.03886e-05,9,1
-0.0001911368,6.541262e-05,9,1
-0.0001929195,6.168512e-05,9,1
-0.0001708786,5.374392e-05,9,1
-0.0001251762,4.758544e-05,9,1
-6.375344e-05,4.142696e-05,9,1
-1.520357e-06,3.154097e-05,9,1
4.871989e-05,1.533444e-05,9,1
8.340187e-05,-7.678839e-06,9,1
0.0001041462,-3.458168e-05,9,1
0.0001192183,-5.808115e-05,9,1
0.0001354248,-7.526008e-05,9,1
0.0001564933,-8.433573e-05,9,1
0.0001827479,-8.644259e-05,9,1
0.000217592,-7.947377e-05,9,1
0.0002619979,-6.375344e-05,9,1
0.0003122381,-4.268495e-05,9,1
0.0003589129,-2.145439e-05,9,1
0.0003999155,-2.330684e-06,9,1
0.0004397836,1.274139e-05,9,1
0.0004851619,2.230325e-05,9,1
0.0005386435,2.603075e-05,9,1
0.0005882355,3.105477e-05,9,1
0.0006169211,4.142696e-05,9,1
0.0006135177,5.341979e-05,9,1
0.0005775391,6.265751e-05,9,1
0.0005177371,6.914012e-05,9,1
0.0004469145,7.756752e-05,9,1
0.0003747954,9.020862e-05,9,1
0.0003034866,0.0001026876,9,1
0.0002342847,0.0001130598,9,1
0.0001670276,0.0001216493,9,1
9.993253e-05,0.0001295905,9,1
3.526847e-05,0.0001368834,9,1
-1.934754e-05,0.0001427178,9,1
-5.759496e-05,0.0001445005,9,1
-8.303922e-05,0.0001422316,9,1
-9.892161e-05,0.0001373696,9,1
-0.0001005423,0.0001300767,9,1
-8.125649e-05,0.000121001,9,1
-4.544006e-05,0.0001114392,9,1
-1.67545e-05,0.0001096565,9,1
-2.42095e-05,0.0001150046,9,1
-7.947377e-05,0.0001252147,9,1
-0.0001681235,0.0001316974,9,1
-0.0002601766,0.0001305629,9,1
-0.0003284061,0.0001214872,9,1
-0.0003622777,0.0001072255,9,1
-0.0003695707,9.231547e-05,9,1
-0.0003616295,8.04847e-05,9,1
-0.0003392644,7.481241e-05,9,1
-0.000295993,7.20573e-05,9,1
-0.0002193361,6.995045e-05,9,1
-0.0001036215,6.719535e-05,9,1
4.628891e-05,6.362991e-05,9,1
0.0002043026,5.860588e-05,9,1
0.0003339549,5.098881e-05,9,1
0.0004044533,3.996837e-05,9,1
0.0004038051,2.473423e-05,9,1
0.000341572,5.610517e-06,9,1
0.0002431983,-1.3027e-05,9,1
0.0001409351,-2.647842e-05,9,1
5.341979e-05,-3.344723e-05,9,1
-1.740276e-05,-3.571614e-05,9,1
-7.914964e-05,-3.620233e-05,9,1
-0.000137007,-3.587821e-05,9,1
-0.0001869231,-3.68506e-05,9,1
-0.0002217671,-4.236082e-05,9,1
-0.0002370013,-5.451572e-05,9,1
-0.0002373254,-6.974985e-05,9,1
-0.0002263049,-8.255302e-05,9,1
-0.000199078,-8.935975e-05,9,1
-0.0001433275,-9.470791e-05,9,1
-5.727083e-05,-0.0001016767,9,1
4.126489e-05,-0.0001070249,9,1
0.0001355869,-0.0001060525,9,1
0.000217592,-9.924574e-05,9,1
0.0002863077,-8.838737e-05,9,1
0.0003430306,-7.882551e-05,9,1
0.0003801436,-7.380149e-05,9,1
0.0003885709,-7.056019e-05,9,1
0.000363937,-6.81292e-05,9,1
0.0003127243,-6.229485e-05,9,1
0.0002513016,-5.127441e-05,9,1
0.0001989545,-3.960571e-05,9,1
0.0001686482,-3.198864e-05,9,1
0.0001658931,-2.7937e-05,9,1
0.0001816135,-2.09682e-05,9,1
0.0001961994,-5.734056e-06,9,1
0.0001986303,1.711715e-05,9,1
0.0001869616,3.915804e-05,9,1
0.0001603829,5.552663e-05,9,1
0.0001252147,6.362991e-05,9,1
9.296373e-05,6.055066e-05,9,1
6.978839e-05,4.709924e-05,9,1
5.277153e-05,2.975825e-05,9,1
3.494434e-05,1.565857e-05,9,1
1.274139e-05,8.041497e-06,9,1
-1.578211e-05,9.175954e-06,9,1
-5.159854e-05,1.630683e-05,9,1
-9.179074e-05,2.489629e-05,9,1
-0.0001355484,3.429608e-05,9,1
-0.0001827094,4.142696e-05,9,1
-0.0002326255,4.515445e-05,9,1
-0.0002809209,4.628891e-05,9,1
-0.0003246786,5.017848e-05,9,1
-0.0003630881,5.439218e-05,9,1
-0.000395339,5.682316e-05,9,1
-0.0004185144,5.487838e-05,9,1
-0.000432452,5.212327e-05,9,1
-0.0004353692,5.082674e-05,9,1
-0.0004287245,5.423012e-05,9,1
-0.0004164075,6.557468e-05,9,1
-0.0004086284,8.032264e-05,9,1
-0.00041268,9.231547e-05,9,1
-0.00042759,9.523264e-05,9,1
-0.0004489826,8.696731e-05,9,1
-0.0004625961,7.011252e-05,9,1
-0.0004580583,4.742337e-05,9,1
-0.0004235384,2.376183e-05,9,1
-0.0003468815,4.244267e-07,9,1
-0.0002138259,-1.691656e-05,9,1
-2.339918e-05,-2.696461e-05,9,1
0.0002104611,-3.004385e-05,9,1
0.0004555039,-3.036798e-05,9,1
0.0006705648,-2.955766e-05,9,1
0.0008217718,-2.858527e-05,9,1
0.0008925945,-2.323711e-05,9,1
0.0008877325,-1.140634e-05,9,1
0.0008348991,7.717366e-06,9,1
0.000770235,2.910999e-05,9,1
0.0007272876,5.001642e-05,9,1
0.0007102708,7.173317e-05,9,1
0.0006833679,9.182927e-05,9,1
0.0006026593,0.0001039842,9,1
0.0004618245,0.0001017153,9,1
0.0002950592,8.04847e-05,9,1
0.0001440143,4.953022e-05,9,1
3.105477e-05,1.776542e-05,9,1
-4.511593e-05,-9.137427e-06,9,1
-0.0001034594,-3.166451e-05,9,1
-0.0001630995,-5.030202e-05,9,1
-0.0002287359,-6.229485e-05,9,1
-0.0002906449,-6.634648e-05,9,1
-0.0003366714,-6.48879e-05,9,1
-0.0003569296,-6.197072e-05,9,1
-0.0003468815,-5.678463e-05,9,1
-0.0003094444,-4.949169e-05,9,1
-0.0002527216,-4.155049e-05,9,1
-0.0001937298,-3.360929e-05,9,1
-0.0001549962,-2.923353e-05,9,1
-0.0001473791,-2.874733e-05,9,1
-0.0001684476,-3.020592e-05,9,1
-0.0002068571,-2.84232e-05,9,1
-0.000243808,-2.177852e-05,9,1
-0.0002551526,-1.075808e-05,9,1
-0.0002279256,-1.844488e-06,9,1
-0.0001681235,5.286387e-06,9,1
-9.017008e-05,9.66215e-06,9,1
-1.399939e-05,8.041497e-06,9,1
4.013043e-05,2.623614e-07,9,1
5.957827e-05,-7.030578e-06,9,1
4.175109e-05,-1.092015e-05,9,1
-3.627206e-06,-9.461558e-06,9,1
-6.586029e-05,-3.951337e-06,9,1
-0.0001374932,6.096713e-06,9,1
-0.0002094502,1.663096e-05,9,1
-0.0002754107,2.570662e-05,9,1
-0.0003245165,3.380988e-05,9,1
-0.0003412093,4.191315e-05,9,1
-0.0003110651,4.693717e-05,9,1
-0.0002295462,4.855783e-05,9,1
-0.0001099421,4.985435e-05,9,1
1.1769e-05,5.423012e-05,9,1
0.0001002567,6.249545e-05,9,1
0.0001393144,7.610894e-05,9,1
0.0001412592,9.409818e-05,9,1
0.0001287802,0.0001161391,9,1
0.0001177597,0.0001368834,9,1
0.0001083599,0.0001503349,9,1
0.0001000946,0.0001548727,9,1
9.150514e-05,0.000150659,9,1
7.935024e-05,0.0001412592,9,1
6.346784e-05,0.0001287802,9,1
4.77475e-05,0.0001158149,9,1
4.158902e-05,0.0001051186,9,1
5.358185e-05,9.766362e-05,9,1
8.648112e-05,9.150514e-05,9,1
0.0001419075,8.372601e-05,9,1
0.0002169437,7.043665e-05,9,1
0.0002931144,4.807163e-05,9,1
0.0003402755,1.484824e-05,9,1
0.0003305515,-2.518189e-05,9,1
0.0002582704,-6.229485e-05,9,1
0.0001488763,-8.984595e-05,9,1
3.624086e-05,-0.0001094559,9,1
-5.143648e-05,-0.0001232314,9,1
-0.0001109144,-0.0001313347,9,1
-0.0001546721,-0.0001361966,9,1
-0.0001904885,-0.0001352242,9,1
-0.000213988,-0.0001237176,9,1
-0.0002152845,-0.0001032974,9,1
-0.0001880575,-7.639453e-05,9,1
-0.0001438137,-4.819517e-05,9,1
-0.0001032974,-2.372331e-05,9,1
-8.287715e-05,-8.489166e-06,9,1
-8.854943e-05,-2.330684e-06,9,1
-0.0001135075,-1.520357e-06,9,1
-0.000144624,-1.682422e-06,9,1
-0.0001689338,4.638125e-06,9,1
-0.0001802784,2.116879e-05,9,1
-0.0001835197,4.596478e-05,9,1
-0.0001861127,7.140904e-05,9,1
-0.0001880575,9.26396e-05,9,1
-0.0001912988,0.0001046324,9,1
-0.0001989159,0.0001064152,9,1
-0.0002099363,0.0001000946,9,1
-0.0002175534,8.907416e-05,9,1
-0.0002177155,7.740546e-05,9,1
-0.0002102605,6.606088e-05,9,1
-0.0002002124,5.601284e-05,9,1
-0.000191623,4.547859e-05,9,1
-0.0001874093,3.688912e-05,9,1
-0.0001896782,3.688912e-05,9,1
-0.0001948643,4.628891e-05,9,1
-0.0001934057,6.200925e-05,9,1
-0.0001723372,7.999851e-05,9,1
-0.0001251762,0.0001018773,9,1
-5.678463e-05,0.0001245665,9,1
1.841368e-05,0.000143204,9,1
8.550872e-05,0.0001522796,9,1
0.0001378558,0.0001522796,9,1
0.0001769136,0.000143204,9,1
0.0002068957,0.0001261871,9,1
0.0002316917,0.0001062531,9,1
0.0002538946,9.037068e-05,9,1
0.0002725321,8.080883e-05,9,1
0.000282256,7.772959e-05,9,1
0.0002738286,7.886404e-05,9,1
0.000244981,7.643307e-05,9,1
0.0002010613,7.027458e-05,9,1
0.0001564933,6.071273e-05,9,1
0.0001253768,4.839576e-05,9,1
0.0001145184,3.526847e-05,9,1
0.0001253768,1.938607e-05,9,1
0.0001566554,-6.176923e-08,9,1
0.0002062474,-2.485776e-05,9,1
0.0002652392,-5.467778e-05,9,1
0.0003196932,-8.579432e-05,9,1
0.0003585888,-0.0001102662,9,1
0.0003752816,-0.000122259,9,1
0.000361506,-0.000117235,9,1
0.0003145071,-9.827335e-05,9,1
0.0002362295,-7.18567e-05,9,1
0.0001321835,-4.560212e-05,9,1
1.387585e-05,-2.501983e-05,9,1
-0.0001039456,-9.137427e-06,9,1
-0.0001984297,1.072688e-06,9,1
-0.0002506147,6.096713e-06,9,1
-0.0002501286,8.365628e-06,9,1
-0.0002070192,9.338019e-06,9,1
-0.0001506204,1.257933e-05,9,1
-0.0001068628,1.290346e-05,9,1
-7.201877e-05,5.286387e-06,9,1
-2.89094e-05,-9.623623e-06,9,1
4.434413e-05,-2.89094e-05,9,1
0.0001592484,-4.446767e-05,9,1
0.0003072141,-5.548811e-05,9,1
0.0004619866,-6.310517e-05,9,1
0.000594394,-6.942573e-05,9,1
0.000681261,-7.428769e-05,9,1
0.0007195085,-7.704279e-05,9,1
0.0007178878,-7.542214e-05,9,1
0.0006921195,-6.731888e-05,9,1
0.0006520892,-5.386745e-05,9,1
0.0005977973,-3.555408e-05,9,1
0.0005260024,-1.480971e-05,9,1
0.0004336251,6.744974e-06,9,1
0.0003329825,2.846173e-05,9,1
0.0002376881,4.871989e-05,9,1
0.000158114,6.751948e-05,9,1
9.280167e-05,8.518459e-05,9,1
3.656499e-05,0.0001015532,9,1
-1.043395e-05,0.0001172735,9,1
-4.625038e-05,0.0001279698,9,1
-7.33153e-05,0.0001336421,9,1
-9.454585e-05,0.0001342904,9,1
-0.0001071869,0.0001355869,9,1
-0.0001044318,0.0001394765,9,1
-8.628052e-05,0.0001445005,9,1
-5.937768e-05,0.0001464453,9,1
-3.879538e-05,0.0001380179,9,1
-3.604027e-05,0.0001179218,9,1
-5.305713e-05,9.442231e-05,9,1
-8.093236e-05,7.52986e-05,9,1
-0.0001092938,6.444023e-05,9,1
-0.0001264727,5.974033e-05,9,1
-0.0001303623,5.504044e-05,9,1
-0.0001289037,4.985435e-05,9,1
-0.0001337657,4.564065e-05,9,1
-0.000152079,4.256141e-05,9,1
-0.0001780095,3.624086e-05,9,1
-0.0001977815,2.165498e-05,9,1
-0.0002053985,-3.303076e-06,9,1
-0.0002036158,-3.474375e-05,9,1
-0.0001997262,-6.748094e-05,9,1
-0.0002003745,-9.373552e-05,9,1
-0.0002110708,-0.0001126972,9,1
-0.000233922,-0.0001292278,9,1
-0.0002645523,-0.0001457585,9,1
-0.0002849726,-0.0001661787,9,1
-0.0002775176,-0.0001856265,9,1
-0.0002397564,-0.000199078,9,1
-0.0001938919,-0.0002050744,9,1
-0.0001640719,-0.0002032917,9,1
-0.0001554824,-0.0001921092,9,1
-0.0001554824,-0.0001699062,9,1
-0.0001514308,-0.0001431655,9,1
-0.0001365208,-0.0001159385,9,1
-0.0001089697,-9.146661e-05,9,1
-6.796714e-05,-6.748094e-05,9,1
-2.696461e-05,-4.398147e-05,9,1
-1.059602e-05,-2.080613e-05,9,1
-3.409549e-05,-1.844488e-06,9,1
-9.000802e-05,9.175954e-06,9,1
-0.000151917,1.338965e-05,9,1
-0.0001895161,1.484824e-05,9,1
-0.0001861127,1.64689e-05,9,1
-0.0001425172,1.679302e-05,9,1
-7.623246e-05,1.501031e-05,9,1
-1.075808e-05,9.013889e-06,9,1
3.915804e-05,3.179537e-06,9,1
6.573675e-05,2.623614e-07,9,1
7.027458e-05,4.313994e-06,9,1
5.844381e-05,1.54965e-05,9,1
4.013043e-05,3.251336e-05,9,1
2.214118e-05,4.904402e-05,9,1
5.934648e-06,6.395404e-05,9,1
-1.286493e-05,7.57848e-05,9,1
-3.296103e-05,8.372601e-05,9,1
-5.22468e-05,8.534666e-05,9,1
-6.764301e-05,8.453633e-05,9,1
-7.526008e-05,8.696731e-05,9,1
-7.461182e-05,9.782569e-05,9,1
-6.39155e-05,0.0001150046,9,1
-4.47918e-05,0.0001338042,9,1
-1.918548e-05,0.0001449867,9,1
9.66215e-06,0.0001474177,9,1
3.769945e-05,0.0001440143,9,1
6.265751e-05,0.0001352628,9,1
7.918817e-05,0.0001237561,9,1
8.405014e-05,0.0001158149,9,1
7.772959e-05,0.0001145184,9,1
7.027458e-05,0.0001198666,9,1
6.946425e-05,0.0001252147,9,1
7.465034e-05,0.0001287802,9,1
7.967438e-05,0.0001260251,9,1
8.486046e-05,0.0001161391,9,1
8.777764e-05,0.0001009049,9,1
9.118101e-05,8.323981e-05,9,1
9.63671e-05,6.638502e-05,9,1
0.0001018773,5.131294e-05,9,1
0.0001028497,4.142696e-05,9,1
9.928428e-05,3.883391e-05,9,1
0.0001026876,4.320967e-05,9,1
0.0001276457,5.277153e-05,9,1
0.0001791825,5.698522e-05,9,1
0.0002431983,5.017848e-05,9,1
0.0002911697,3.413401e-05,9,1
0.000302028,1.727922e-05,9,1
0.00027707,6.258778e-06,9,1
0.0002355812,3.341602e-06,9,1
0.0001861513,5.448452e-06,9,1
0.0001279698,8.203562e-06,9,1
5.99024e-05,6.90704e-06,9,1
-1.610624e-05,-2.168618e-06,9,1
-9.956988e-05,-1.788895e-05,9,1
-0.0001877334,-3.976777e-05,9,1
-0.0002679557,-6.213279e-05,9,1
-0.0003214373,-7.801519e-05,9,1
-0.0003407231,-8.255302e-05,9,1
-0.0003347266,-7.542214e-05,9,1
-0.0003219235,-6.180866e-05,9,1
-0.0003060411,-4.657452e-05,9,1
-0.0002729798,-3.441962e-05,9,1
-0.0002102605,-3.036798e-05,9,1
-0.0001227452,-3.409549e-05,9,1
-2.680255e-05,-4.349527e-05,9,1
5.260946e-05,-5.500191e-05,9,1
8.453633e-05,-6.699475e-05,9,1
4.207521e-05,-7.866345e-05,9,1
-8.02841e-05,-8.854943e-05,9,1
-0.000251101,-9.66527e-05,9,1
-0.0004121938,-0.0001026491,9,1
-0.0005099192,-0.0001068628,9,1
-0.0005198052,-0.0001083214,9,1
-0.0004518998,-0.0001060525,9,1
-0.0003402368,-9.859748e-05,9,1
-0.0002277635,-8.838737e-05,9,1
-0.0001418689,-7.736692e-05,9,1
-7.623246e-05,-6.715681e-05,9,1
3.341602e-06,-5.743289e-05,9,1
0.0001229458,-4.965376e-05,9,1
0.0002804733,-4.576419e-05,9,1
0.0004449697,-4.511593e-05,9,1
0.0005692738,-4.576419e-05,9,1
0.0006162729,-4.446767e-05,9,1
0.000579484,-3.992984e-05,9,1
0.0004895377,-3.21507e-05,9,1
0.0003931088,-2.323711e-05,9,1
0.0003281205,-1.221667e-05,9,1
0.0003127243,7.485573e-07,9,1
0.000346596,1.031041e-05,9,1
0.0004167703,1.582063e-05,9,1
0.0005057442,2.311357e-05,9,1
0.0005898562,3.526847e-05,9,1
0.0006459308,4.790957e-05,9,1
0.0006600305,5.374392e-05,9,1
0.0006313449,5.358185e-05,9,1
0.0005629533,5.293359e-05,9,1
0.0004634451,5.730935e-05,9,1
0.0003452995,6.930219e-05,9,1
0.0002243987,8.567078e-05,9,1
0.0001161391,9.879808e-05,9,1
2.619281e-05,0.0001081979,9,1
-4.365734e-05,0.0001150046,9,1
-9.811128e-05,0.0001214872,9,1
-0.0001389517,0.0001253768,9,1
-0.0001592099,0.000125863,9,1
-0.0001501342,0.0001224596,9,1
-0.0001120489,0.0001096565,9,1
-6.035007e-05,8.74535e-05,9,1
-1.448558e-05,6.249545e-05,9,1
6.258778e-06,4.564065e-05,9,1
-5.479652e-07,3.721326e-05,9,1
-2.372331e-05,3.802358e-05,9,1
-4.398147e-05,4.645098e-05,9,1
-4.754691e-05,5.893001e-05,9,1
-2.955766e-05,7.20573e-05,9,1
1.234753e-06,8.242948e-05,9,1
3.413401e-05,9.16672e-05,9,1
6.768154e-05,0.0001013911,9,1
0.0001007429,0.0001093323,9,1
0.000125863,0.0001132219,9,1
0.0001355869,0.0001114392,9,1
0.0001276457,0.0001026876,9,1
0.0001030118,9.31258e-05,9,1
6.233338e-05,9.004655e-05,9,1
4.962256e-06,9.523264e-05,9,1
-7.072225e-05,0.0001080358,9,1
-0.0001626133,0.0001203528,9,1
-0.0002658489,0.0001211631,9,1
-0.0003658432,0.0001104668,9,1
-0.0004459034,9.280167e-05,9,1
-0.0004985746,7.789165e-05,9,1
-0.0005270981,6.865393e-05,9,1
-0.0005343911,6.622294e-05,9,1
-0.0005259637,6.946425e-05,9,1
-0.0005068399,7.562274e-05,9,1
-0.0004835025,8.323981e-05,9,1
-0.0004588687,8.988449e-05,9,1
-0.0004379622,9.069481e-05,9,1
-0.0004196489,8.486046e-05,9,1
-0.0004006872,7.30297e-05,9,1
-0.0003750809,5.504044e-05,9,1
-0.0003365093,3.510641e-05,9,1
-0.0002843243,1.565857e-05,9,1
-0.0002310048,-2.81688e-06,9,1
-0.0001924333,-2.129233e-05,9,1
-0.0001796301,-3.717473e-05,9,1
-0.0001929195,-4.38194e-05,9,1
-0.0002144742,-3.830919e-05,9,1
-0.0002282497,-2.42095e-05,9,1
-0.0002306807,-1.027188e-05,9,1
-0.0002306807,-2.492749e-06,9,1
-0.0002357047,-3.303076e-06,9,1
-0.0002481838,-1.270286e-05,9,1
-0.0002669833,-2.923353e-05,9,1
-0.0002891863,-4.608832e-05,9,1
-0.0002980999,-5.775702e-05,9,1
-0.0002794623,-6.229485e-05,9,1
-0.0002318152,-6.035007e-05,9,1
-0.0001690959,-5.159854e-05,9,1
-0.0001120489,-3.944364e-05,9,1
-7.153257e-05,-3.134038e-05,9,1
-5.127441e-05,-3.360929e-05,9,1
-5.32192e-05,-4.38194e-05,9,1
-8.044617e-05,-5.629844e-05,9,1
-0.0001324691,-6.310517e-05,9,1
-0.0001997262,-5.921561e-05,9,1
-0.0002697385,-4.511593e-05,9,1
-0.0003288923,-2.809907e-05,9,1
-0.0003637363,-1.432352e-05,9,1
-0.0003661673,-6.544382e-06,9,1
-0.000342992,-5.57199e-06,9,1
-0.0003036101,-8.165035e-06,9,1
-0.0002564491,-1.545797e-05,9,1
-0.0002083157,-2.518189e-05,9,1
-0.0001686097,-3.360929e-05,9,1
-0.0001447861,-3.409549e-05,9,1
-0.0001397621,-2.712668e-05,9,1
-0.0001438137,-1.562004e-05,9,1
-0.0001361966,-4.113403e-06,9,1
-9.146661e-05,3.341602e-06,9,1
-5.479652e-07,8.203562e-06,9,1
0.0001302388,1.371378e-05,9,1
0.0002807975,2.262738e-05,9,1
0.0004177427,3.462021e-05,9,1
0.0005219508,4.515445e-05,9,1
0.0006015248,5.244739e-05,9,1
0.0006893643,5.601284e-05,9,1
0.0008233925,5.487838e-05,9,1
0.001022409,5.082674e-05,9,1
0.001280741,4.466826e-05,9,1
0.001568894,3.55926e-05,9,1
0.001842623,2.927205e-05,9,1
0.002063033,3.267542e-05,9,1
0.002212944,4.742337e-05,9,1
0.002288305,6.735741e-05,9,1
0.00227777,8.858796e-05,9,1
0.002161407,0.0001065772,9,1
0.001930139,0.0001192183,9,1
0.001592718,0.0001260251,9,1
0.001181557,0.0001257009,9,1
0.0007457631,0.0001175977,9,1
0.0003414099,0.000103498,9,1
1.630683e-05,8.875003e-05,9,1
-0.0002173914,7.6271e-05,9,1
-0.0003763774,6.800567e-05,9,1
-0.0004875542,6.379197e-05,9,1
-0.0005783107,6.103686e-05,9,1
-0.0006569124,5.504044e-05,9,1
-0.0007181731,4.369587e-05,9,1
-0.0007473448,2.651694e-05,9,1
-0.0007411864,8.041497e-06,9,1
-0.0007089354,-9.137427e-06,9,1
-0.0006656639,-2.680255e-05,9,1
-0.0006228787,-4.527799e-05,9,1
-0.0005797693,-6.44017e-05,9,1
-0.0005199672,-8.676672e-05,9,1
-0.0004318037,-0.0001149661,9,1
-0.0003215994,-0.0001460826,9,1
-0.0002126914,-0.0001771992,9,1
-0.0001391138,-0.0002045882,9,1
-0.0001279313,-0.0002243602,9,1
-0.000181737,-0.0002344082,9,1
-0.0002780038,-0.0002334358,9,1
-0.0003755671,-0.0002217671,9,1
-0.0004368278,-0.0002032917,9,1
-0.0004415277,-0.0001836818,9,1
-0.0003899909,-0.0001645581,9,1
-0.000298424,-0.0001431655,9,1
-0.0001870851,-0.0001216107,9,1
-7.60704e-05,-0.0001020008,9,1
1.711715e-05,-8.384954e-05,9,1
8.307774e-05,-6.407757e-05,9,1
0.000115977,-4.009191e-05,9,1
0.0001125736,-1.367526e-05,9,1
7.043665e-05,1.014835e-05,9,1
-3.303076e-06,2.862379e-05,9,1
-9.211487e-05,3.964424e-05,9,1
-0.0001713648,4.531652e-05,9,1
-0.0002201465,4.82337e-05,9,1
-0.0002276015,5.228533e-05,9,1
-0.0001935677,5.747142e-05,9,1
-0.0001276072,6.136099e-05,9,1
-4.641245e-05,6.427817e-05,9,1
3.008238e-05,6.914012e-05,9,1
8.923623e-05,7.870197e-05,9,1
0.000133318,8.988449e-05,9,1
0.0001748067,9.928428e-05,9,1
0.0002149989,0.0001051186,9,1
0.0002318537,0.0001081979,9,1
0.0001944166,0.0001083599,9,1
9.766362e-05,0.0001096565,9,1
-3.328516e-05,0.0001137081,9,1
-0.0001653684,0.0001197045,9,1
-0.0002677937,0.0001231079,9,1
-0.0003279199,0.0001240803,9,1
-0.0003527159,0.0001253768,9,1
-0.0003557951,0.0001294284,9,1
-0.0003478539,0.0001365593,9,1
-0.0003399127,0.0001448246,9,1
-0.0003329439,0.0001521176,9,1
-0.0003167374,0.000155683,9,1
-0.0002893484,0.0001511452,9,1
-0.0002621213,0.000138342,9,1
-0.0002460769,0.0001197045,9,1
-0.000251101,0.0001047945,9,1
-0.0002778417,9.68533e-05,9,1
-0.0003120375,9.733949e-05,9,1
-0.00033813,0.0001025256,9,1
-0.0003454229,0.0001073875,9,1
-0.0003321336,0.0001106288,9,1
-0.0003023136,0.0001081979,9,1
-0.0002622834,9.993253e-05,9,1
-0.0002178775,8.907416e-05,9,1
-0.0001770371,7.918817e-05,9,1
-0.0001475412,6.946425e-05,9,1
-0.0001336036,5.974033e-05,9,1
-0.0001263107,4.77475e-05,9,1
-0.0001144799,3.591673e-05,9,1
-9.000802e-05,2.910999e-05,9,1
-5.953974e-05,2.910999e-05,9,1
-3.231277e-05,3.040651e-05,9,1
-1.497178e-05,3.202716e-05,9,1
-1.594417e-05,3.105477e-05,9,1
-3.458168e-05,2.619281e-05,9,1
-6.602235e-05,1.808955e-05,9,1
-0.0001002181,1.322759e-05,9,1
-0.0001282554,1.517237e-05,9,1
-0.0001436516,1.727922e-05,9,1
-0.0001472171,1.59827e-05,9,1
-0.0001376552,1.095867e-05,9,1
-0.0001165867,4.313994e-06,9,1
-8.725291e-05,2.04508e-06,9,1
-5.872941e-05,2.693341e-06,9,1
-3.620233e-05,2.693341e-06,9,1
-1.659243e-05,1.396819e-06,9,1
9.66215e-06,2.369211e-06,9,1
5.001642e-05,6.90704e-06,9,1
0.000101067,1.079661e-05,9,1
0.0001480659,1.387585e-05,9,1
0.0001769136,1.695509e-05,9,1
0.0001840444,1.987227e-05,9,1
0.0001676758,2.522042e-05,9,1
0.000133318,3.380988e-05,9,1
9.21534e-05,4.661304e-05,9,1
5.487838e-05,6.152305e-05,9,1
2.846173e-05,7.270556e-05,9,1
2.230325e-05,7.238143e-05,9,1
4.175109e-05,6.071273e-05,9,1
9.328786e-05,4.45062e-05,9,1
0.0001785342,3.121684e-05,9,1
0.0002934386,2.441009e-05,9,1
0.0004148255,2.408596e-05,9,1
0.000512551,2.619281e-05,9,1
0.0005600362,2.635488e-05,9,1
0.0005580913,2.441009e-05,9,1
0.000530054,2.230325e-05,9,1
0.0004963444,1.695509e-05,9,1
0.0004579349,9.106227e-07,9,1
0.0004078567,-2.712668e-05,9,1
0.0003389789,-6.569822e-05,9,1
0.0002504913,-0.0001081593,9,1
0.0001540623,-0.0001464067,9,1
7.724339e-05,-0.0001708786,9,1
4.418206e-05,-0.0001763888,9,1
5.828175e-05,-0.0001656925,9,1
0.0001000946,-0.0001447861,9,1
0.0001435281,-0.0001157764,9,1
0.0001689724,-8.530812e-05,9,1
0.0001676758,-5.986387e-05,9,1
0.0001380179,-4.122636e-05,9,1
9.944634e-05,-3.458168e-05,9,1
7.691926e-05,-4.252288e-05,9,1
9.377406e-05,-6.261898e-05,9,1
0.0001543865,-8.498399e-05,9,1
0.0002363916,-0.000104756,9,1
0.0003007315,-0.0001165867,9,1
0.0003213138,-0.0001178833,9,1
0.0002929524,-0.0001089697,9,1
0.0002342847,-9.324933e-05,9,1
0.0001715654,-7.671866e-05,9,1
0.0001231079,-6.44017e-05,9,1
9.555677e-05,-5.953974e-05,9,1
9.733949e-05,-6.229485e-05,9,1
0.0001276457,-6.667062e-05,9,1
0.0001746447,-6.278104e-05,9,1
0.0002138645,-4.462973e-05,9,1
0.0002209954,-1.351319e-05,9,1
0.000187772,2.570662e-05,9,1
0.0001286181,6.816773e-05,9,1
6.427817e-05,0.0001101427,9,1
7.23117e-06,0.0001485521,9,1
-3.863332e-05,0.0001785342,9,1
-7.347736e-05,0.0001987924,9,1
-0.0001000561,0.0002085163,9,1
-0.0001201522,0.0002078681,9,1
-0.0001308485,0.0001987924,9,1
-0.0001298761,0.0001874478,9,1
-0.000117235,0.0001748067,9,1
-9.454585e-05,0.0001660552,9,1
-6.472583e-05,0.0001611932,9,1
-3.701266e-05,0.0001613553,9,1
-2.161646e-05,0.000168,9,1
-2.339918e-05,0.0001806411,9,1
-4.446767e-05,0.0001960373,9,1
-8.174268e-05,0.0002096508,9,1
-0.0001225832,0.0002169437,9,1
-0.0001483515,0.0002169437,9,1
-0.0001532135,0.0002078681,9,1
-0.000142031,0.000190365,9,1
-0.0001279313,0.0001676758,9,1
-0.0001230693,0.0001409351,9,1
-0.000134576,0.0001107909,9,1
-0.0001580754,8.04847e-05,9,1
-0.0001877334,4.953022e-05,9,1
-0.0002191741,1.873781e-05,9,1
-0.0002478596,-9.461558e-06,9,1
-0.0002656868,-3.409549e-05,9,1
-0.0002656868,-5.678463e-05,9,1
-0.0002475355,-8.271508e-05,9,1
-0.0002152845,-0.0001136696,9,1
-0.0001797922,-0.0001489998,9,1
-0.0001528894,-0.0001835197,9,1
-0.0001431655,-0.0002138259,9,1
-0.0001506204,-0.0002421874,9,1
-0.0001700683,-0.0002739521,9,1
-0.0001974573,-0.000310903,9,1
-0.0002329496,-0.0003540124,9,1
-0.0002746004,-0.000400201,9,1
-0.0003212752,-0.0004382863,9,1
-0.000365357,-0.0004577342,9,1
-0.0003946908,-0.0004530343,9,1
-0.0003958252,-0.0004277521,9,1
-0.0003572537,-0.0003896668,9,1
-0.0002805968,-0.0003502849,9,1
-0.0001911368,-0.000313334,9,1
-0.0001327933,-0.0002770314,9,1
-0.0001329553,-0.0002400805,9,1
-0.0001849783,-0.0002039399,9,1
-0.0002545043,-0.0001695821,9,1
-0.0002977757,-0.0001421931,9,1
-0.0002801106,-0.0001208004,9,1
-0.0001870851,-9.989401e-05,9,1
-3.020592e-05,-7.299116e-05,9,1
0.0001594105,-3.733679e-05,9,1
0.0003396272,5.124321e-06,9,1
0.0004720346,5.066468e-05,9,1
0.0005337815,9.63671e-05,9,1
0.0005242196,0.0001388282,9,1
0.0004657141,0.0001725378,9,1
0.0003931088,0.0001965235,9,1
0.0003346032,0.0002137024,9,1
0.0003036487,0.0002294227,9,1
0.0003008936,0.00024255,9,1
0.0003158036,0.0002514636,9,1
0.0003344411,0.0002535705,9,1
0.000349027,0.000250005,9,1
0.0003493511,0.0002428742,9,1
0.0003307136,0.000232502,9,1
0.0003041349,0.0002205092,9,1
0.0002901973,0.0002109473,9,1
0.0003060797,0.0002111094,9,1
0.0003568061,0.0002234263,9,1
0.0004414042,0.0002451431,9,1
0.0005616568,0.0002694529,9,1
0.0007068674,0.0002908455,9,1
0.000851916,0.000307052,9,1
0.0009647136,0.0003151553,9,1
0.001008957,0.000314345,9,1
0.0009611481,0.0003077003,9,1
0.000822258,0.000299597,9,1
0.0006115729,0.00029198,9,1
0.0003616681,0.000282256,9,1
0.0001086841,0.0002689667,9,1
-0.0001201522,0.0002563256,9,1
-0.0003092824,0.0002504913,9,1
-0.0004504412,0.0002555152,9,1
-0.0005480045,0.0002678322,9,1
-0.0006183409,0.000277232,9,1
-0.0006818705,0.0002744769,9,1
-0.0007463724,0.0002600531,9,1
-0.0007992057,0.0002393087,9,1
-0.0008150881,0.0002162954,9,1
-0.0007645238,0.0001926339,9,1
-0.0006347094,0.0001692965,9,1
-0.0004322899,0.0001467694,9,1
-0.0001929195,0.0001244044,9,1
3.55926e-05,0.0001000946,9,1
0.000215161,7.853991e-05,9,1
0.0003324963,6.006447e-05,9,1
0.0003989431,4.434413e-05,9,1
0.000438325,2.651694e-05,9,1
0.000470576,5.934648e-06,9,1
0.0005015305,-1.740276e-05,9,1
0.0005253541,-3.944364e-05,9,1
0.0005247059,-5.808115e-05,9,1
0.000485324,-7.60704e-05,9,1
0.0003989431,-0.0001000561,9,1
0.0002688046,-0.000129714,9,1
0.0001122495,-0.0001600202,9,1
-4.365734e-05,-0.000191623,9,1
-0.0001796301,-0.0002245222,9,1
-0.0002904828,-0.0002600145,9,1
-0.0003788084,-0.000290969,9,1
-0.0004510895,-0.0003125237,9,1
-0.0005151053,-0.0003196545,9,1
-0.0005728005,-0.0003100927,9,1
-0.0006193133,-0.0002862691,9,1
-0.0006479988,-0.0002545043,9,1
-0.0006554538,-0.0002185258,9,1
-0.000648323,-0.0001836818,9,1
-0.0006358439,-0.0001553203,9,1
-0.0006065101,-0.0001352242,9,1
-0.000541846,-0.0001261486,9,1
-0.0004387725,-0.0001250141,9,1
-0.0003178718,-0.0001232314,9,1
-0.00021415,-0.0001141558,9,1
-0.0001551583,-9.308726e-05,9,1
-0.0001434896,-6.197072e-05,9,1
-0.0001538618,-3.101625e-05,9,1
-0.0001566169,-1.416145e-05,9,1
-0.0001387897,-1.399939e-05,9,1
-0.0001091317,-2.323711e-05,9,1
-8.271508e-05,-3.166451e-05,9,1
-7.396356e-05,-3.26369e-05,9,1
-8.368748e-05,-2.680255e-05,9,1
-0.0001044318,-1.869928e-05,9,1
-0.0001292278,-1.221667e-05,9,1
-0.0001504584,-1.010982e-05,9,1
-0.0001582375,-8.813297e-06,9,1
-0.0001428413,-7.030578e-06,9,1
-0.0001007043,-8.720959e-07,9,1
-3.847125e-05,1.047248e-05,9,1
2.570662e-05,2.39239e-05,9,1
7.432621e-05,3.591673e-05,9,1
9.928428e-05,4.223728e-05,9,1
0.0001002567,4.337174e-05,9,1
8.437427e-05,4.02925e-05,9,1
5.844381e-05,3.624086e-05,9,1
2.489629e-05,3.624086e-05,9,1
-9.623623e-06,4.191315e-05,9,1
-3.490581e-05,5.649903e-05,9,1
-3.296103e-05,7.789165e-05,9,1
3.827799e-06,0.0001018773,9,1
6.184718e-05,0.0001229458,9,1
0.0001174356,0.0001346145,9,1
0.0001472556,0.0001360731,9,1
0.0001428799,0.0001318594,9,1
0.0001125736,0.0001250527,9,1
6.768154e-05,0.0001167873,9,1
1.873781e-05,0.0001070634,9,1
-2.907146e-05,0.0001039842,9,1
-7.104638e-05,0.000111115,9,1
-0.0001036215,0.0001250527,9,1
-0.0001227452,0.0001389903,9,1
-0.0001183694,0.0001448246,9,1
-8.012204e-05,0.0001386662,9,1
-1.25408e-05,0.0001255389,9,1
5.94162e-05,0.0001093323,9,1
0.0001044704,9.53947e-05,9,1
0.0001077117,8.242948e-05,9,1
7.691926e-05,6.978839e-05,9,1
2.910999e-05,5.61749e-05,9,1
-1.821308e-05,4.158902e-05,9,1
-4.80331e-05,2.651694e-05,9,1
-4.608832e-05,9.500085e-06,9,1
-2.238346e-07,-1.059602e-05,9,1
8.777764e-05,-3.166451e-05,9,1
0.0001961994,-5.030202e-05,9,1
0.0002952213,-6.213279e-05,9,1
0.0003498373,-6.877746e-05,9,1
0.0003431926,-7.704279e-05,9,1
0.0002832284,-9.276313e-05,9,1
0.0001992786,-0.000117235,9,1
0.0001269974,-0.0001459206,9,1
8.84259e-05,-0.0001697442,9,1
9.020862e-05,-0.0001804405,9,1
0.0001266733,-0.0001788198,9,1
0.000192796,-0.0001687718,9,1
0.0002825802,-0.0001558065,9,1
0.0003892192,-0.0001412206,9,1
0.0004976409,-0.0001243659,9,1
0.0005846701,-0.0001067007,9,1
0.0006302104,-8.417367e-05,9,1
0.0006177314,-5.808115e-05,9,1
0.0005362125,-3.490581e-05,9,1
0.0003914881,-2.372331e-05,9,1
0.0002099749,-2.631635e-05,9,1
3.494434e-05,-3.425755e-05,9,1
-9.827335e-05,-3.976777e-05,9,1
-0.0001755785,-3.944364e-05,9,1
-0.0002060468,-3.134038e-05,9,1
-0.0002071812,-1.367526e-05,9,1
-0.000191785,8.527692e-06,9,1
-0.0001673132,3.008238e-05,9,1
-0.0001405724,4.547859e-05,9,1
-0.0001180453,5.487838e-05,9,1
-9.859748e-05,6.200925e-05,9,1
-7.509801e-05,7.108491e-05,9,1
-3.717473e-05,8.631905e-05,9,1
2.068259e-05,0.0001038221,9,1
9.26396e-05,0.0001182459,9,1
0.0001658931,0.0001231079,9,1
0.0002313675,0.0001179218,9,1
0.0002905214,0.0001093323,9,1
0.000341734,0.0001039842,9,1
0.0003744712,0.0001031738,9,1
0.000376416,0.0001051186,9,1
0.000339303,0.0001026876,9,1
0.0002652392,9.020862e-05,9,1
0.0001748067,6.362991e-05,9,1
0.0001112771,2.424803e-05,9,1
0.0001099806,-1.934754e-05,9,1
0.0001715654,-5.937768e-05,9,1
0.0002574601,-9.584238e-05,9,1
0.0003077003,-0.0001323071,9,1
0.0002859836,-0.0001699062,9,1
0.0001939304,-0.0002044261,9,1
5.99024e-05,-0.0002292221,9,1
-8.903562e-05,-0.0002428356,9,1
-0.0002305186,-0.0002446183,9,1
-0.000348016,-0.0002326255,9,1
-0.0004259694,-0.0002028055,9,1
-0.0004518998,-0.0001535376,9,1
-0.0004272659,-9.081835e-05,9,1
-0.0003674638,-1.853722e-05,9,1
-0.0002899966,5.698522e-05,9,1
-0.0002083157,0.000125863,9,1
-0.0001230693,0.0001830721,9,1
-3.360929e-05,0.0002279642,9,1
5.260946e-05,0.000259891,9,1
0.0001190562,0.0002812837,9,1
0.0001498487,0.0002924662,9,1
0.0001398006,0.0002960316,9,1
9.831188e-05,0.0002940868,9,1
4.223728e-05,0.0002898731,9,1
-1.545797e-05,0.0002864697,9,1
-6.44017e-05,0.0002861456,9,1
-9.973194e-05,0.0002861456,9,1
-0.0001242038,0.0002842008,9,1
-0.0001434896,0.0002731804,9,1
-0.0001600202,0.0002501671,9,1
-0.0001702304,0.000217592,9,1
-0.0001655305,0.0001837203,9,1
-0.0001402483,0.0001558451,9,1
-9.762509e-05,0.0001394765,9,1
-4.560212e-05,0.0001320215,9,1
7.879432e-06,0.0001245665,9,1
4.904402e-05,0.0001080358,9,1
6.606088e-05,8.097089e-05,9,1
5.828175e-05,4.936815e-05,9,1
3.462021e-05,2.34377e-05,9,1
9.66215e-06,8.041497e-06,9,1
-2.654814e-06,2.693341e-06,9,1
-1.520357e-06,3.665733e-06,9,1
2.04508e-06,3.989864e-06,9,1
-6.544382e-06,-7.192643e-06,9,1
-3.296103e-05,-3.717473e-05,9,1
-6.650855e-05,-8.336335e-05,9,1
-8.903562e-05,-0.0001384655,9,1
-8.44978e-05,-0.0001921092,9,1
-5.062615e-05,-0.0002370013,9,1
9.338019e-06,-0.0002689281,9,1
9.16672e-05,-0.0002872415,9,1
0.0001970097,-0.0002919414,9,1
0.0003245551,-0.0002833519,9,1
0.0004644175,-0.0002643903,9,1
0.000596825,-0.0002421874,9,1
0.000690985,-0.0002207947,9,1
0.0007245325,-0.0002008607,9,1
0.0006964952,-0.0001778474,9,1
0.0006230795,-0.0001473791,9,1
0.0005247059,-0.0001068628,9,1
0.0004093153,-6.116039e-05,9,1
0.0002778803,-1.62683e-05,9,1
0.0001341283,2.003433e-05,9,1
-6.058186e-06,4.35338e-05,9,1
-0.000122259,5.795762e-05,9,1
-0.0002036158,6.849186e-05,9,1
-0.0002558008,7.691926e-05,9,1
-0.000293562,8.615699e-05,9,1
-0.0003261372,9.409818e-05,9,1
-0.0003533641,0.0001013911,9,1
-0.0003685983,0.0001103047,9,1
-0.0003726499,0.0001203528,9,1
-0.0003689224,0.0001295905,9,1
-0.000360333,0.0001344524,9,1
-0.0003425058,0.0001352628,9,1
-0.0003164132,0.0001349386,9,1
-0.0002980999,0.0001331559,9,1
-0.0003070135,0.0001292664,9,1
-0.0003468815,0.0001203528,9,1
-0.0004055492,0.000103498,9,1
-0.0004591928,8.145709e-05,9,1
-0.0004877163,6.379197e-05,9,1
-0.0004826922,5.698522e-05,9,1
-0.0004463896,5.94162e-05,9,1
-0.000387884,6.800567e-05,9,1
-0.0003190063,7.951231e-05,9,1
-0.0002504527,8.939829e-05,9,1
-0.0001937298,9.717743e-05,9,1
-0.0001478653,0.0001015532,9,1
-9.276313e-05,9.944634e-05,9,1
-5.247859e-06,9.393612e-05,9,1
0.0001198666,9.118101e-05,9,1
0.0002616738,9.912221e-05,9,1
0.0003871123,0.0001150046,9,1
0.0004723587,0.0001295905,9,1
0.0005110924,0.0001289422,9,1
0.000514982,0.0001132219,9,1
0.0004948858,9.101894e-05,9,1
0.0004595556,7.57848e-05,9,1
0.0004101256,7.546067e-05,9,1
0.0003430306,8.648112e-05,9,1
0.0002563256,9.944634e-05,9,1
0.0001548727,0.0001062531,9,1
4.580272e-05,0.0001064152,9,1
-5.872941e-05,9.814982e-05,9,1
-0.0001473791,8.648112e-05,9,1
-0.0002183637,7.594687e-05,9,1
-0.0002742763,6.83298e-05,9,1
-0.000320789,6.298164e-05,9,1
-0.0003591985,5.974033e-05,9,1
-0.0003888564,5.682316e-05,9,1
-0.0004096008,5.115087e-05,9,1
-0.0004222419,4.061663e-05,9,1
-0.0004340726,2.829966e-05,9,1
-0.0004494688,1.776542e-05,9,1
-0.0004658375,1.144487e-05,9,1
-0.0004731304,9.824215e-06,9,1
-0.00046211,7.879432e-06,9,1
-0.0004316416,2.04508e-06,9,1
-0.0003809152,-7.354709e-06,9,1
-0.0003084721,-1.62683e-05,9,1
-0.0002126914,-2.356124e-05,9,1
-9.535618e-05,-2.745081e-05,9,1
2.927205e-05,-2.615429e-05,9,1
0.0001409351,-1.983374e-05,9,1
0.0002248849,-1.124428e-05,9,1
0.0002725321,-5.247859e-06,9,1
0.0002817699,-5.57199e-06,9,1
0.0002553532,-1.059602e-05,9,1
0.0001934442,-1.837515e-05,9,1
0.0001119254,-2.874733e-05,9,1
4.304761e-05,-4.05781e-05,9,1
2.959619e-05,-5.095028e-05,9,1
0.0001000946,-5.986387e-05,9,1
0.0002459534,-6.81292e-05,9,1
0.0004276287,-7.590833e-05,9,1
0.0005961767,-8.514606e-05,9,1
0.0007039502,-9.794922e-05,9,1
0.0007287462,-0.0001154523,9,1
0.000671213,-0.000137169,9,1
0.0005520949,-0.0001572651,9,1
0.0004089912,-0.0001686097,9,1
0.0002850112,-0.0001666649,9,1
0.0002020337,-0.0001554824,9,1
0.0001539003,-0.000142031,9,1
0.0001190562,-0.0001327933,9,1
8.04847e-05,-0.0001259865,9,1
3.948217e-05,-0.0001169109,9,1
1.160693e-05,-0.0001015147,9,1
6.420843e-06,-8.336335e-05,9,1
2.246531e-05,-6.569822e-05,9,1
5.244739e-05,-5.159854e-05,9,1
8.194328e-05,-4.365734e-05,9,1
9.652917e-05,-4.236082e-05,9,1
9.361199e-05,-4.511593e-05,9,1
8.194328e-05,-4.300908e-05,9,1
7.448828e-05,-3.247483e-05,9,1
7.513654e-05,-1.318906e-05,9,1
7.67572e-05,9.66215e-06,9,1
7.319176e-05,2.975825e-05,9,1
6.281957e-05,4.223728e-05,9,1
4.920609e-05,4.855783e-05,9,1
3.494434e-05,5.439218e-05,9,1
2.505836e-05,5.957827e-05,9,1
2.246531e-05,6.476436e-05,9,1
1.906194e-05,7.076078e-05,9,1
5.124321e-06,7.789165e-05,9,1
-2.7937e-05,8.599492e-05,9,1
-7.914964e-05,9.16672e-05,9,1
-0.0001342519,9.296373e-05,9,1
-0.0001747682,8.972242e-05,9,1
-0.0001875713,8.599492e-05,9,1
-0.0001723372,8.583286e-05,9,1
-0.0001379794,9.21534e-05,9,1
-0.0001000561,0.0001069013,9,1
-7.120844e-05,0.0001260251,9,1
-6.06742e-05,0.0001420695,9,1
-6.342931e-05,0.0001508211,9,1
-6.359137e-05,0.0001542244,9,1
-5.354332e-05,0.000155521,9,1
-3.717473e-05,0.0001542244,9,1
-2.437157e-05,0.0001464453,9,1
-2.485776e-05,0.0001347766,9,1
-4.787104e-05,0.0001226217,9,1
-9.19528e-05,0.0001083599,9,1
-0.0001402483,9.26396e-05,9,1
-0.0001791439,7.481241e-05,9,1
-0.0001976194,5.1475e-05,9,1
-0.0001893541,2.262738e-05,9,1
-0.0001609926,-9.623623e-06,9,1
-0.0001243659,-4.041603e-05,9,1
-9.114248e-05,-6.683268e-05,9,1
-7.120844e-05,-8.903562e-05,9,1
-6.764301e-05,-0.0001091317,9,1
-7.850138e-05,-0.0001360346,9,1
-9.811128e-05,-0.0001731475,9,1
-0.0001175591,-0.000216581,9,1
-0.0001287416,-0.000253856,9,1
-0.0001279313,-0.0002746004,9,1
-0.0001180453,-0.0002741142,9,1
-0.0001067007,-0.0002546664,9,1
-9.762509e-05,-0.0002229016,9,1
-9.098041e-05,-0.0001882196,9,1
-8.465986e-05,-0.0001541859,9,1
-7.493595e-05,-0.000119666,9,1
-6.116039e-05,-8.271508e-05,9,1
-4.916756e-05,-4.365734e-05,9,1
-4.138842e-05,-6.544382e-06,9,1
-3.620233e-05,2.295151e-05,9,1
-2.988179e-05,4.094075e-05,9,1
-1.821308e-05,5.001642e-05,9,1
6.420843e-06,5.714729e-05,9,1
4.126489e-05,6.444023e-05,9,1
7.335383e-05,7.059871e-05,9,1
9.101894e-05,7.124698e-05,9,1
8.648112e-05,6.687121e-05,9,1
5.909208e-05,6.217132e-05,9,1
1.290346e-05,5.730935e-05,9,1
-3.960571e-05,5.163707e-05,9,1
-8.222889e-05,4.904402e-05,9,1
-0.0001020008,5.179914e-05,9,1
-9.649064e-05,6.184718e-05,9,1
-6.294311e-05,7.059871e-05,9,1
-6.706447e-06,6.962632e-05,9,1
6.136099e-05,5.828175e-05,9,1
0.0001388282,4.077869e-05,9,1
0.0002234263,2.39239e-05,9,1
0.0003086727,1.54965e-05,9,1
0.0003770643,1.711715e-05,9,1
0.0004125566,2.457216e-05,9,1
0.000406074,3.105477e-05,9,1
0.0003610198,3.397195e-05,9,1
0.0002923041,3.656499e-05,9,1
0.0002218057,4.191315e-05,9,1
0.0001694586,4.499239e-05,9,1
0.0001459591,3.93201e-05,9,1
0.0001545486,2.262738e-05,9,1
0.0001867996,-3.627206e-06,9,1
0.0002255332,-3.053005e-05,9,1
0.0002560015,-5.095028e-05,9,1
0.0002712356,-6.245691e-05,9,1
0.0002705873,-6.991193e-05,9,1
0.0002511395,-7.736692e-05,9,1
0.0002158093,-8.628052e-05,9,1
0.0001739964,-9.405965e-05,9,1
0.0001449867,-9.324933e-05,9,1
0.0001487142,-7.461182e-05,9,1
0.0001934442,-3.393342e-05,9,1
0.0002649151,2.408596e-05,9,1
0.0003310377,8.615699e-05,9,1
0.000368799,0.0001389903,9,1
0.0003746333,0.0001712413,9,1
0.0003532407,0.000180479,9,1
0.0003175863,0.0001738343,9,1
0.0002827423,0.0001624898,9,1
0.000252274,0.0001513072,9,1
0.0002135403,0.0001440143,9,1
0.0001535762,0.0001414213,9,1
6.816773e-05,0.0001402868,9,1
-2.518189e-05,0.00013818,9,1
-0.000104918,0.0001363972,9,1
-0.0001637477,0.0001386662,9,1
-0.0002078295,0.0001451488,9,1
-0.0002476975,0.0001534141,9,1
-0.0002888622,0.0001594105,9,1
-0.0003297026,0.0001595726,9,1
-0.0003626019,0.00015309,9,1
-0.0003779981,0.0001386662,9,1
-0.0003716775,0.0001240803,9,1
-0.0003446126,0.0001145184,9,1
-0.0003002067,0.0001116012,9,1
-0.0002421874,0.0001128978,9,1
-0.0001715269,0.0001164632,9,1
-8.644259e-05,0.0001188942,9,1
1.744129e-05,0.0001177597,9,1
0.0001276457,0.0001128978,9,1
0.0002213195,0.0001069013,9,1
0.0002735045,0.0001028497,9,1
0.000279663,9.928428e-05,9,1
0.0002532463,9.150514e-05,9,1
0.0002154851,7.594687e-05,9,1
0.0001752929,5.601284e-05,9,1
0.0001302388,3.624086e-05,9,1
7.367795e-05,2.214118e-05,9,1
4.244267e-07,1.436204e-05,9,1
-8.40116e-05,1.063454e-05,9,1
-0.0001682856,5.934648e-06,9,1
-0.0002378116,-4.923729e-06,9,1
-0.0002844864,-2.064406e-05,9,1
-0.0003076617,-3.458168e-05,9,1
-0.0003209511,-3.944364e-05,9,1
-0.0003467195,-3.976777e-05,9,1
-0.0003964735,-4.414354e-05,9,1
-0.0004643789,-5.354332e-05,9,1
-0.0005288809,-6.245691e-05,9,1
-0.0005674524,-6.81292e-05,9,1
-0.00056648,-7.104638e-05,9,1
-0.0005308256,-6.893953e-05,9,1
-0.0004763717,-6.553616e-05,9,1
-0.0004206212,-6.310517e-05,9,1
-0.0003731361,-6.261898e-05,9,1
-0.0003347266,-6.326724e-05,9,1
-0.0003036101,-6.245691e-05,9,1
-0.0002695764,-5.565017e-05,9,1
-0.0002212809,-4.43056e-05,9,1
-0.0001439758,-3.117831e-05,9,1
-3.117831e-05,-2.031993e-05,9,1
0.0001073875,-1.108221e-05,9,1
0.0002436845,-2.492749e-06,9,1
0.0003474063,5.286387e-06,9,1
0.0003978086,1.64689e-05,9,1
0.0003969983,3.267542e-05,9,1
0.0003653956,5.1475e-05,9,1
0.000329255,6.816773e-05,9,1
0.0003107795,7.951231e-05,9,1
0.0003138588,8.388807e-05,9,1
0.0003295791,7.870197e-05,9,1
0.0003478926,6.379197e-05,9,1
0.0003592371,4.628891e-05,9,1
0.0003640991,3.380988e-05,9,1
0.0003605336,2.829966e-05,9,1
0.0003430306,2.684107e-05,9,1
0.0003067279,2.76514e-05,9,1
0.0002550291,3.202716e-05,9,1
0.0001961994,4.288554e-05,9,1
0.000145797,5.666109e-05,9,1
0.0001224596,6.978839e-05,9,1
0.0001318594,7.870197e-05,9,1
0.0001592484,8.129502e-05,9,1
0.0001803169,7.772959e-05,9,1
0.0001769136,6.897806e-05,9,1
0.0001474177,6.136099e-05,9,1
0.0001028497,5.811968e-05,9,1
5.163707e-05,5.601284e-05,9,1
1.072688e-06,4.904402e-05,9,1
-4.770897e-05,3.510641e-05,9,1
-9.227693e-05,1.436204e-05,9,1
-0.0001306864,-8.813297e-06,9,1
-0.0001647201,-2.712668e-05,9,1
-0.0002003745,-3.830919e-05,9,1
-0.0002423494,-3.928157e-05,9,1
-0.0002878898,-2.647842e-05,9,1
-0.0003267854,2.369211e-06,9,1
-0.0003481781,3.899597e-05,9,1
-0.000335537,7.432621e-05,9,1
-0.0002799486,9.944634e-05,9,1
-0.0001818991,0.0001093323,9,1
-5.824322e-05,0.0001044704,9,1
6.622294e-05,9.004655e-05,9,1
0.0001683241,7.367795e-05,9,1
0.0002303951,5.666109e-05,9,1
0.0002359054,3.98063e-05,9,1
0.0001866375,2.39239e-05,9,1
0.0001028497,1.144487e-05,9,1
1.209313e-05,4.151929e-06,9,1
-6.504996e-05,-3.858999e-07,9,1
-0.0001216107,-6.706447e-06,9,1
-0.0001566169,-2.323711e-05,9,1
-0.0001720131,-5.500191e-05,9,1
-0.0001741199,-0.0001005423,9,1
-0.0001703924,-0.0001507825,9,1
-0.0001695821,-0.0001937298,9,1
-0.0001784957,-0.0002266291,9,1
-0.0002021572,-0.000251263,9,1
-0.0002374874,-0.0002694143,9,1
-0.0002737901,-0.0002833519,9,1
-0.0002972895,-0.0002934,9,1
-0.0002989102,-0.0002987481,9,1
-0.000268604,-0.0002948586,9,1
-0.0002000504,-0.0002747625,9,1
-0.0001007043,-0.0002358668,9,1
6.744974e-06,-0.0001804405,9,1
9.393612e-05,-0.0001136696,9,1
0.0001412592,-4.187462e-05,9,1
0.0001436902,2.230325e-05,9,1
0.0001141943,6.816773e-05,9,1
7.659513e-05,9.16672e-05,9,1
5.439218e-05,9.604298e-05,9,1
6.200925e-05,8.907416e-05,9,1
9.652917e-05,7.837785e-05,9,1
0.000150659,6.881599e-05,9,1
0.0002111094,5.925414e-05,9,1
0.000257298,4.547859e-05,9,1
0.0002752873,2.214118e-05,9,1
0.0002699391,-1.351319e-05,9,1
0.0002605393,-5.743289e-05,9,1
0.0002631324,-0.000104756,9,1
0.0002799871,-0.0001486757,9,1
0.0002968419,-0.0001857886,9,1
0.0002960316,-0.000213988,9,1
0.0002739907,-0.0002321393,9,1
0.0002435224,-0.0002370013,9,1
0.0002162954,-0.0002285739,9,1
0.0002018716,-0.0002135018,9,1
0.0002068957,-0.0001900023,9,1
0.0002305572,-0.0001572651,9,1
0.0002577842,-0.0001141558,9,1
0.0002666978,-6.521203e-05,9,1
0.0002373639,-1.335113e-05,9,1
0.0001735102,3.964424e-05,9,1
9.944634e-05,8.988449e-05,9,1
4.499239e-05,0.0001347766,9,1
3.397195e-05,0.000170593,9,1
6.687121e-05,0.0001957132,9,1
0.0001291043,0.0002124059,9,1
0.0001958752,0.0002206712,9,1
0.0002506533,0.0002222919,9,1
0.0002898731,0.0002203471,9,1
0.000319369,0.0002187264,9,1
0.0003469201,0.0002198609,9,1
0.0003668542,0.0002248849,9,1
0.0003644232,0.0002331503,9,1
0.0003308757,0.0002427121,9,1
0.0002749631,0.0002506533,9,1
0.0002080301,0.0002551911,9,1
0.0001341283,0.0002574601,9,1
5.309566e-05,0.000252436,9,1
-3.004385e-05,0.0002415777,9,1
-0.0001032974,0.0002295848,9,1
-0.0001572651,0.0002203471,9,1
-0.0001878955,0.0002149989,9,1
-0.0002047502,0.0002112714,9,1
-0.0002182017,0.0002073819,9,1
-0.0002280877,0.0002057612,9,1
-0.0002295462,0.0002033302,9,1
-0.0002276015,0.0001986303,9,1
-0.0002310048,0.0001895547,9,1
-0.0002455907,0.0001761032,9,1
-0.0002669833,0.0001623277,9,1
-0.0002765452,0.0001534141,9,1
-0.000253856,0.0001526038,9,1
-0.0001895161,0.0001598967,9,1
-0.0001008664,0.0001738343,9,1
-1.950961e-05,0.0001906891,9,1
2.457216e-05,0.0002039785,9,1
1.517237e-05,0.0002068957,9,1
-4.689865e-05,0.0001963614,9,1
-0.0001462447,0.0001735102,9,1
-0.0002558008,0.0001445005,9,1
-0.000353202,0.000115977,9,1
-0.0004335865,9.134307e-05,9,1
-0.0005034366,7.286763e-05,9,1
-0.0005634008,5.828175e-05,9,1
-0.000611048,4.677511e-05,9,1
-0.0006428128,3.591673e-05,9,1
-0.0006552918,2.359977e-05,9,1
-0.0006424887,9.500085e-06,9,1
-0.0005927345,-3.951337e-06,9,1
-0.0004966299,-1.513384e-05,9,1
-0.0003609812,-2.777494e-05,9,1
-0.00021415,-4.722278e-05,9,1
-8.611845e-05,-7.785312e-05,9,1
8.365628e-06,-0.0001165867,9,1
6.719535e-05,-0.0001548341,9,1
9.199134e-05,-0.0001857886,9,1
8.453633e-05,-0.0002081536,9,1
5.666109e-05,-0.000224036,9,1
2.862379e-05,-0.0002402425,9,1
1.760335e-05,-0.0002580697,9,1
1.987227e-05,-0.0002699005,9,1
2.829966e-05,-0.0002684419,9,1
4.547859e-05,-0.0002527216,9,1
7.918817e-05,-0.0002267911,9,1
0.0001376938,-0.0001932436,9,1
0.0002192126,-0.0001538618,9,1
0.0003081865,-0.0001096179,9,1
0.0003730126,-6.48879e-05,9,1
0.0003840331,-2.615429e-05,9,1
0.0003418961,-2.006553e-06,9,1
0.0002678322,5.772582e-06,9,1
0.0001918236,1.883015e-06,9,1
0.0001320215,-3.627206e-06,9,1
9.798775e-05,-3.627206e-06,9,1
8.437427e-05,3.341602e-06,9,1
8.291568e-05,1.452411e-05,9,1
9.31258e-05,2.538249e-05,9,1
0.0001242423,2.975825e-05,9,1
0.0001783722,2.554455e-05,9,1
0.0002547049,1.079661e-05,9,1
0.0003438409,-9.461558e-06,9,1
0.0004289252,-2.907146e-05,9,1
0.0004931031,-4.203669e-05,9,1
0.0005185474,-4.738484e-05,9,1
0.0005031512,-4.738484e-05,9,1
0.000458097,-4.608832e-05,9,1
0.0003987811,-4.268495e-05,9,1
0.0003331446,-3.458168e-05,9,1
0.0002602152,-2.145439e-05,9,1
0.000177886,-4.275467e-06,9,1
8.907416e-05,9.66215e-06,9,1
4.313994e-06,1.565857e-05,9,1
-6.764301e-05,1.095867e-05,9,1
-0.0001232314,2.531276e-06,9,1
-0.0001588858,-3.465141e-06,9,1
-0.000174444,-2.238346e-07,9,1
-0.0001731475,1.193106e-05,9,1
-0.0001626133,3.089271e-05,9,1
-0.0001543479,5.034055e-05,9,1
-0.0001561307,6.622294e-05,9,1
-0.0001752544,7.643307e-05,9,1
-0.000216419,7.918817e-05,9,1
-0.0002705488,7.724339e-05,9,1
-0.0003167374,7.140904e-05,9,1
-0.0003369955,6.427817e-05,9,1
-0.0003240303,5.390598e-05,9,1
-0.0002809209,4.175109e-05,9,1
-0.0002186879,3.202716e-05,9,1
-0.0001549962,2.76514e-05,9,1
-0.0001044318,2.684107e-05,9,1
-7.056019e-05,2.603075e-05,9,1
-4.835724e-05,2.214118e-05,9,1
-3.474375e-05,1.403791e-05,9,1
-2.129233e-05,2.04508e-06,9,1
-4.761664e-06,-9.623623e-06,9,1
1.987227e-05,-1.448558e-05,9,1
5.034055e-05,-1.270286e-05,9,1
8.680524e-05,-6.868513e-06,9,1
0.0001375317,4.244267e-07,9,1
0.0002119197,7.23117e-06,9,1
0.0003104554,1.12828e-05,9,1
0.0004268184,1.403791e-05,9,1
0.0005496639,2.084466e-05,9,1
0.0006587339,3.235129e-05,9,1
0.0007331221,4.531652e-05,9,1
0.0007579181,5.163707e-05,9,1
0.0007310151,4.969229e-05,9,1
0.0006553305,4.077869e-05,9,1
0.0005360505,2.927205e-05,9,1
0.0003791712,1.938607e-05,9,1
0.000200413,1.371378e-05,9,1
2.197911e-05,1.160693e-05,9,1
-0.0001355484,1.209313e-05,9,1
-0.0002600145,1.241726e-05,9,1
-0.0003434782,7.23117e-06,9,1
-0.0003825359,-4.437533e-06,9,1
-0.0003810773,-2.064406e-05,9,1
-0.000350609,-3.63644e-05,9,1
-0.0003102548,-5.22468e-05,9,1
-0.0002789762,-6.569822e-05,9,1
-0.0002671454,-7.072225e-05,9,1
-0.0002791382,-6.310517e-05,9,1
-0.0003094444,-4.414354e-05,9,1
-0.0003428299,-2.015787e-05,9,1
-0.0003710293,3.503668e-06,9,1
-0.0003922598,2.538249e-05,9,1
-0.0004010113,4.223728e-05,9,1
-0.0003809152,5.131294e-05,9,1
-0.0003228959,5.260946e-05,9,1
-0.0002407288,4.790957e-05,9,1
-0.0001674752,4.223728e-05,9,1
-0.0001232314,3.964424e-05,9,1
-0.0001026491,3.964424e-05,9,1
-7.866345e-05,4.077869e-05,9,1
-2.583016e-05,3.996837e-05,9,1
5.909208e-05,3.672706e-05,9,1
0.000163138,2.943412e-05,9,1
0.000259729,2.165498e-05,9,1
0.0003218,1.387585e-05,9,1
0.0003354135,8.851824e-06,9,1
0.000302028,1.095867e-05,9,1
0.00024255,2.197911e-05,9,1
0.0001934442,4.110282e-05,9,1
0.0001950649,6.249545e-05,9,1
0.0002720459,8.097089e-05,9,1
0.0004094774,9.247754e-05,9,1
0.000547233,9.620504e-05,9,1
0.0006237278,9.199134e-05,9,1
0.0006125454,8.729144e-05,9,1
0.0005310264,9.085688e-05,9,1
0.0004177427,0.0001049566,9,1
0.0003081865,0.0001221355,9,1
0.0002190506,0.0001334801,9,1
0.0001508211,0.0001367214,9,1
9.037068e-05,0.0001347766,9,1
3.008238e-05,0.0001315353,9,1
-2.874733e-05,0.000130725,9,1
-8.060823e-05,0.0001331559,9,1
-0.0001185315,0.00013818,9,1
-0.0001438137,0.0001422316,9,1
-0.0001622891,0.0001396385,9,1
-0.0001828714,0.0001289422,9,1
-0.0002144742,0.0001101427,9,1
-0.0002532078,8.826383e-05,9,1
-0.0002846485,6.217132e-05,9,1
-0.0002932379,3.267542e-05,9,1
-0.0002741142,3.989864e-06,9,1
-0.0002433218,-1.788895e-05,9,1
-0.0002241981,-3.036798e-05,9,1
-0.0002279256,-3.020592e-05,9,1
-0.0002470493,-1.934754e-05,9,1
-0.0002682799,-4.761664e-06,9,1
-0.0002815692,1.396819e-06,9,1
-0.000281083,-1.270286e-05,9,1
-0.000263742,-4.641245e-05,9,1
-0.0002345703,-9.357346e-05,9,1
-0.0002045882,-0.0001449482,9,1
-0.0001853024,-0.0001930815,9,1
-0.0001804405,-0.0002308428,9,1
-0.0001870851,-0.0002569353,9,1
-0.0001968091,-0.0002716832,9,1
-0.0001995642,-0.0002747625,9,1
-0.0001921092,-0.0002634179,9,1
-0.0001791439,-0.0002373254,9,1
-0.0001663408,-0.0001961608,9,1
-0.0001533756,-0.0001425172,9,1
-0.0001373311,-8.303922e-05,9,1
-0.0001157764,-2.745081e-05,9,1
-9.454585e-05,1.938607e-05,9,1
-8.093236e-05,5.536457e-05,9,1
-7.850138e-05,8.080883e-05,9,1
-8.676672e-05,9.669123e-05,9,1
-0.0001005423,0.0001072255,9,1
-0.0001146419,0.0001140322,9,1
-0.0001233935,0.0001201907,9,1
-0.0001237176,0.0001232699,9,1
-0.0001126972,0.0001169494,9,1
-9.227693e-05,9.733949e-05,9,1
-5.629844e-05,6.200925e-05,9,1
5.86492e-07,1.825161e-05,9,1
7.659513e-05,-2.161646e-05,9,1
0.0001586002,-5.22468e-05,9,1
0.0002253711,-7.18567e-05,9,1
0.0002618358,-7.817725e-05,9,1
0.000264753,-7.65566e-05,9,1
0.0002417397,-7.444975e-05,9,1
0.0002091646,-8.158062e-05,9,1
0.0001811273,-9.584238e-05,9,1
0.0001645966,-0.0001105903,9,1
0.0001564933,-0.0001162626,9,1
0.0001454729,-0.0001045939,9,1
0.0001211631,-7.60704e-05,9,1
8.599492e-05,-3.522994e-05,9,1
5.131294e-05,8.527692e-06,9,1
2.311357e-05,4.434413e-05,9,1
1.720949e-06,6.525056e-05,9,1
-1.059602e-05,7.57848e-05,9,1
-6.868513e-06,8.680524e-05,9,1
2.522042e-05,0.0001028497,9,1
9.588091e-05,0.0001185701,9,1
0.0001963614,0.0001300767,9,1
0.0002961937,0.0001326697,9,1
0.0003551855,0.0001229458,9,1
0.0003404375,0.0001069013,9,1
0.0002501671,9.442231e-05,9,1
0.0001094944,9.247754e-05,9,1
-4.446767e-05,0.0001004187,9,1
-0.0001770371,0.0001156529,9,1
-0.0002663351,0.0001338042,9,1
-0.0003042584,0.0001479039,9,1
-0.0002943724,0.0001534141,9,1
-0.0002514251,0.0001508211,9,1
-0.000196647,0.0001428799,9,1
-0.0001501342,0.0001323456,9,1
-0.0001224211,0.0001222976,9,1
-0.0001156143,0.0001193804,9,1
-0.0001203142,0.000123432,9,1
-0.000119666,0.0001281319,9,1
-0.0001036215,0.000125863,9,1
-6.731888e-05,0.0001141943,9,1
-8.002969e-06,9.588091e-05,9,1
6.978839e-05,7.756752e-05,9,1
0.0001586002,6.055066e-05,9,1
0.0002483844,4.645098e-05,9,1
0.0003307136,3.883391e-05,9,1
0.0004016982,3.55926e-05,9,1
0.0004553419,3.60788e-05,9,1
0.000487755,4.320967e-05,9,1
0.0005021787,5.763349e-05,9,1
0.0005153061,7.708133e-05,9,1
0.0005519328,9.750156e-05,9,1
0.0006355586,0.0001145184,9,1
0.0007660213,0.0001216493,9,1
0.0009118802,0.0001156529,9,1
0.001020788,0.0001004187,9,1
0.001050122,7.886404e-05,9,1
0.0009820546,5.390598e-05,9,1
0.0008290648,2.554455e-05,9,1
0.000626807,-3.951337e-06,9,1
0.0004062361,-2.971972e-05,9,1
0.0001931201,-4.835724e-05,9,1
7.23117e-06,-5.565017e-05,9,1
-0.0001392759,-5.078821e-05,9,1
-0.0002498044,-3.928157e-05,9,1
-0.0003319715,-2.84232e-05,9,1
-0.0003888564,-2.566809e-05,9,1
-0.0004222419,-3.26369e-05,9,1
-0.0004355313,-4.754691e-05,9,1
-0.0004316416,-6.731888e-05,9,1
-0.0004099249,-8.384954e-05,9,1
-0.0003681121,-9.503204e-05,9,1
-0.0003092824,-0.0001026491,9,1
-0.0002400805,-0.0001115627,9,1
-0.000166989,-0.0001216107,9,1
-0.000102325,-0.0001293899,9,1
-5.257093e-05,-0.0001318209,9,1
-2.388537e-05,-0.000127283,9,1
-2.339918e-05,-0.000114804,9,1
-5.22468e-05,-9.341139e-05,9,1
-0.0001045939,-6.569822e-05,9,1
-0.0001671511,-3.782299e-05,9,1
-0.0002293842,-1.562004e-05,9,1
-0.0002770314,-6.058186e-06,9,1
-0.0003042584,-6.220252e-06,9,1
-0.0003164132,-1.318906e-05,9,1
-0.0003248407,-2.7937e-05,9,1
-0.0003412093,-4.738484e-05,9,1
-0.0003732982,-6.326724e-05,9,1
-0.0004185144,-7.218083e-05,9,1
-0.0004634065,-7.380149e-05,9,1
-0.0004875542,-6.861539e-05,9,1
-0.0004768579,-5.889148e-05,9,1
-0.0004358554,-4.462973e-05,9,1
-0.0003807532,-3.004385e-05,9,1
-0.0003285682,-1.691656e-05,9,1
-0.0002883759,-6.706447e-06,9,1
-0.000251101,3.179537e-06,9,1
-0.000206695,1.419998e-05,9,1
-0.0001489998,2.473423e-05,9,1
-7.785312e-05,2.846173e-05,9,1
2.855407e-06,2.473423e-05,9,1
8.113296e-05,2.052053e-05,9,1
0.0001385041,1.954813e-05,9,1
0.0001594105,2.278944e-05,9,1
0.0001485521,3.202716e-05,9,1
0.000120839,4.693717e-05,9,1
9.118101e-05,6.800567e-05,9,1
7.238143e-05,8.826383e-05,9,1
7.951231e-05,9.944634e-05,9,1
0.0001286181,9.63671e-05,9,1
0.0002248849,8.242948e-05,9,1
0.0003512959,6.719535e-05,9,1
0.0004814344,6.281957e-05,9,1
0.0005864528,6.865393e-05,9,1
0.0006397723,7.983644e-05,9,1
0.0006235657,9.134307e-05,9,1
0.0005428572,0.0001009049,9,1
0.0004141773,0.0001091703,9,1
0.0002619979,0.0001177597,9,1
0.0001065772,0.0001328318,9,1
-3.21507e-05,0.0001527658,9,1
-0.0001428413,0.0001714034,9,1
-0.0002227395,0.0001843686,9,1
-0.0002754107,0.0001914995,9,1
-0.0003160891,0.000192796,9,1
-0.0003572537,0.0001902029,9,1
-0.0004045768,0.0001876099,9,1
-0.000457248,0.0001882582,9,1
-0.0005010056,0.000195389,9,1
-0.0005186707,0.0002062474,9,1
-0.0005045711,0.0002138645,9,1
-0.0004635685,0.0002149989,9,1
-0.0004084663,0.0002090025,9,1
-0.00035304,0.0002000889,9,1
-0.0002990722,0.000192958,9,1
-0.0002378116,0.0001889064,9,1
-0.0001606685,0.0001840444,9,1
-6.796714e-05,0.0001707551,9,1
3.299956e-05,0.0001475797,9,1
0.0001261871,0.0001140322,9,1
0.0001974959,7.20573e-05,9,1
0.0002409294,2.651694e-05,9,1
0.0002613496,-1.562004e-05,9,1
0.0002702632,-5.159854e-05,9,1
0.0002788527,-8.498399e-05,9,1
0.0003004074,-0.0001193418,9,1
0.0003336308,-0.0001566169,9,1
0.0003671783,-0.0001943781,9,1
0.0003856538,-0.0002305186,9,1
0.0003777126,-0.0002616352,9,1
0.0003388169,-0.0002878898,9,1
0.0002816078,-0.0003089583,9,1
0.0002213195,-0.0003199787,9,1
0.0001715654,-0.0003156029,9,1
0.0001355869,-0.0002982619,9,1
0.0001072255,-0.0002695764,9,1
7.57848e-05,-0.0002353806,9,1
3.575467e-05,-0.0002081536,9,1
-1.059602e-05,-0.0001927574,9,1
-5.127441e-05,-0.0001869231,9,1
-7.526008e-05,-0.0001828714,9,1
-7.752899e-05,-0.0001775233,9,1
-6.634648e-05,-0.00016942,9,1
-5.565017e-05,-0.00015451,9,1
-5.419158e-05,-0.0001314967,9,1
-6.537409e-05,-0.0001031353,9,1
-8.222889e-05,-7.137051e-05,9,1
-8.806324e-05,-3.830919e-05,9,1
-6.731888e-05,-9.137427e-06,9,1
-1.189254e-05,1.452411e-05,9,1
7.254349e-05,3.575467e-05,9,1
0.0001726999,5.341979e-05,9,1
0.00027707,6.573675e-05,9,1
0.0003734989,7.043665e-05,9,1
0.0004568005,6.995045e-05,9,1
0.0005193577,7.059871e-05,9,1
0.0005511225,7.335383e-05,9,1
0.0005452881,7.837785e-05,9,1
0.0004976409,8.291568e-05,9,1
0.0004119083,8.307774e-05,9,1
0.0002984626,7.643307e-05,9,1
0.0001733481,6.638502e-05,9,1
5.325772e-05,5.61749e-05,9,1
-4.722278e-05,4.645098e-05,9,1
-0.0001232314,3.753739e-05,9,1
-0.0001752544,2.878586e-05,9,1
-0.0002110708,2.181705e-05,9,1
-0.0002391081,2.01964e-05,9,1
-0.0002582318,2.797553e-05,9,1
-0.0002645523,4.466826e-05,9,1
-0.0002574215,6.281957e-05,9,1
-0.0002428356,7.691926e-05,9,1
-0.0002324634,8.84259e-05,9,1
-0.0002324634,0.0001033359,9,1
-0.0002366771,0.0001250527,9,1
-0.0002287359,0.0001485521,9,1
-0.0001979435,0.0001667035,9,1
-0.0001485136,0.0001720516,9,1
-9.049421e-05,0.0001641104,9,1
-3.749886e-05,0.0001454729,9,1
-7.354709e-06,0.0001185701,9,1
-1.480971e-05,9.020862e-05,9,1
-5.872941e-05,6.849186e-05,9,1
-0.0001211246,5.730935e-05,9,1
-0.0001844921,5.19612e-05,9,1
-0.0002318152,4.304761e-05,9,1
-0.0002515871,2.619281e-05,9,1
-0.0002480217,7.485573e-07,9,1
-0.0002376495,-2.647842e-05,9,1
-0.0002357047,-4.738484e-05,9,1
-0.0002489941,-5.662256e-05,9,1
-0.000271197,-5.59743e-05,9,1
-0.000295993,-5.078821e-05,9,1
-0.0003173856,-4.252288e-05,9,1
-0.0003340784,-3.393342e-05,9,1
-0.0003463953,-2.874733e-05,9,1
-0.00035304,-2.777494e-05,9,1
-0.0003519055,-2.971972e-05,9,1
-0.0003402368,-3.63644e-05,9,1
-0.0003152788,-4.835724e-05,9,1
-0.0002809209,-6.326724e-05,9,1
-0.0002468872,-7.444975e-05,9,1
-0.0002256567,-7.914964e-05,9,1
-0.0002162569,-7.461182e-05,9,1
-0.0001981056,-6.359137e-05,9,1
-0.0001418689,-4.916756e-05,9,1
-1.513384e-05,-3.377136e-05,9,1
0.000195389,-1.983374e-05,9,1
0.000468145,-9.137427e-06,9,1
0.0007473837,2.369211e-06,9,1
0.0009668204,1.54965e-05,9,1
0.001083994,3.056858e-05,9,1
0.001092259,4.142696e-05,9,1
0.001012523,4.256141e-05,9,1
0.0008806016,3.380988e-05,9,1
0.0007370116,2.035846e-05,9,1
0.0006174073,5.124321e-06,9,1
0.000542209,-6.544382e-06,9,1
0.0005172509,-9.947754e-06,9,1
0.0005345919,-2.654814e-06,9,1
0.0005777013,1.079661e-05,9,1
0.0006232416,2.149292e-05,9,1
0.0006501445,2.878586e-05,9,1
0.0006449584,3.413401e-05,9,1
0.0006031455,3.429608e-05,9,1
0.0005198439,2.586868e-05,9,1
0.0003945674,7.879432e-06,9,1
0.0002417397,-1.270286e-05,9,1
7.951231e-05,-2.971972e-05,9,1
-6.991193e-05,-3.879538e-05,9,1
-0.0001864369,-3.863332e-05,9,1
-0.0002588801,-3.069211e-05,9,1
-0.0002899966,-2.0482e-05,9,1
-0.0002946965,-5.89612e-06,9,1
-0.0002927517,1.54965e-05,9,1
-0.0002951827,4.223728e-05,9,1
-0.0003146305,7.238143e-05,9,1
-0.0003502849,0.0001004187,9,1
-0.000387884,0.0001171115,9,1
-0.0004110594,0.0001239182,9,1
-0.0004177041,0.0001232699,9,1
-0.0004139766,0.0001158149,9,1
-0.0004097628,0.0001033359,9,1
-0.0004068457,9.507057e-05,9,1
-0.0003963114,9.53947e-05,9,1
-0.0003664914,0.0001023635,9,1
-0.0003141443,0.000111115,9,1
-0.0002502906,0.0001198666,9,1
-0.0001880575,0.0001281319,9,1
-0.0001417068,0.0001352628,9,1
-0.0001240417,0.0001391524,9,1
-0.0001344139,0.0001394765,9,1
-0.0001611547,0.0001367214,9,1
-0.0001922712,0.0001354248,9,1
-0.0002201465,0.000138342,9,1
-0.0002442942,0.000145797,9,1
-0.0002694143,0.000155683,9,1
-0.0002992343,0.0001665414,9,1
-0.0003246786,0.0001751309,9,1
-0.0003293785,0.0001788584,9,1
-0.0003042584,0.0001736723,9,1
-0.0002496423,0.000160545,9,1
-0.0001729855,0.0001509831,9,1
-8.709085e-05,0.0001493625,9,1
1.072688e-06,0.0001568175,9,1
7.691926e-05,0.0001691344,9,1
0.0001185701,0.000178048,9,1
0.0001107909,0.0001749688,9,1
6.152305e-05,0.0001595726,9,1
-8.651231e-06,0.000140773,9,1
-7.153257e-05,0.0001260251,9,1
-0.0001060525,0.0001146805,9,1
-0.0001060525,0.000103498,9,1
-7.736692e-05,9.247754e-05,9,1
-4.284701e-05,8.567078e-05,9,1
-3.539201e-05,8.388807e-05,9,1
-6.699475e-05,8.437427e-05,9,1
-0.0001256624,7.999851e-05,9,1
-0.0001877334,6.249545e-05,9,1
-0.0002316531,3.299956e-05,9,1
-0.0002425115,-8.651231e-06,9,1
-0.0002212809,-6.278104e-05,9,1
-0.0001802784,-0.0001295519,9,1
-0.0001313347,-0.000206533,9,1
-7.914964e-05,-0.0002872415,9,1
-1.918548e-05,-0.0003647087,9,1
5.293359e-05,-0.0004329382,9,1
0.0001347766,-0.0004893369,9,1
0.0002153231,-0.0005330946,9,1
0.0002812837,-0.0005630766,9,1
0.0003224483,-0.000574097,9,1
0.000339303,-0.0005621043,9,1
0.0003425444,-0.0005272602,9,1
0.0003407616,-0.0004741028,9,1
0.0003326584,-0.0004104111,9,1
0.0003114278,-0.0003394265,9,1
0.0002790148,-0.000266011,9,1
0.0002412535,-0.0001950263,9,1
0.0002051129,-0.0001276072,9,1
0.0001756171,-6.472583e-05,9,1
0.0001543865,-7.192643e-06,9,1
0.0001349386,3.964424e-05,9,1
0.0001073875,6.978839e-05,9,1
6.200925e-05,7.983644e-05,9,1
-5.479652e-07,7.52986e-05,9,1
-6.958779e-05,6.103686e-05,9,1
-0.0001313347,4.531652e-05,9,1
-0.0001716889,3.591673e-05,9,1
-0.0001807646,3.413401e-05,9,1
-0.0001601823,4.191315e-05,9,1
-0.0001233935,5.487838e-05,9,1
-8.968389e-05,7.011252e-05,9,1
-7.137051e-05,8.583286e-05,9,1
-7.590833e-05,0.0001028497,9,1
-0.0001026491,0.0001195424,9,1
-0.0001405724,0.0001323456,9,1
-0.0001716889,0.0001396385,9,1
-0.0001810887,0.0001422316,9,1
-0.0001624512,0.0001495245,9,1
-0.0001151281,0.0001654069,9,1
-4.608832e-05,0.0001827479,9,1
3.543054e-05,0.0001908512,9,1
0.0001216493,0.0001837203,9,1
0.0002046267,0.0001621656,9,1
0.0002712356,0.0001342904,9,1
0.0003107795,0.0001116012,9,1
0.0003198552,0.00010366,9,1
0.0003145071,0.0001127357,9,1
0.0003218,0.000133318,9,1
0.0003600474,0.0001511452,9,1
0.0004232529,0.0001577899,9,1
0.0004950479,0.0001514693,9,1
0.0005559844,0.0001393144,9,1
0.0005961767,0.0001294284,9,1
0.0006146522,0.0001260251,9,1
0.0006146522,0.0001312112,9,1
0.0005982835,0.0001415833,9,1
0.0005636016,0.0001553589,9,1
0.0005073649,0.0001696206,9,1
0.0004250357,0.0001775618,9,1
0.0003208276,0.0001757791,9,1
0.0002104611,0.0001663793,9,1
0.0001128978,0.0001590864,9,1
5.131294e-05,0.0001574657,9,1
3.510641e-05,0.0001577899,9,1
5.828175e-05,0.0001579519,9,1
0.0001072255,0.0001624898,9,1
0.000162976,0.0001709172,9,1
0.0002057612,0.0001741585,9,1
0.0002154851,0.000160707,9,1
0.0001845306,0.0001312112,9,1
0.0001150046,9.507057e-05,9,1
1.889987e-05,6.346784e-05,9,1
-9.29252e-05,4.126489e-05,9,1
-0.0002055606,2.586868e-05,9,1
-0.0003073376,1.144487e-05,9,1
-0.0003885323,-4.599598e-06,9,1
-0.0004403932,-2.42095e-05,9,1
-0.0004538446,-5.127441e-05,9,1
-0.0004209454,-8.255302e-05,9,1
-0.0003475298,-0.0001037836,9,1
-0.0002577456,-0.0001034594,9,1
-0.0001791439,-7.736692e-05,9,1
-0.0001339277,-2.939559e-05,9,1
-0.000129714,2.846173e-05,9,1
-0.0001611547,7.270556e-05,9,1
-0.0002138259,8.648112e-05,9,1
-0.0002643903,6.78436e-05,9,1
-0.0002895104,3.073064e-05,9,1
-0.0002773555,-7.678839e-06,9,1
-0.0002318152,-3.409549e-05,9,1
-0.0001676373,-4.770897e-05,9,1
-0.0001104282,-5.451572e-05,9,1
-7.898758e-05,-5.483985e-05,9,1
-8.141856e-05,-5.030202e-05,9,1
-0.0001099421,-4.38194e-05,9,1
-0.0001525652,-4.122636e-05,9,1
-0.0001977815,-4.657452e-05,9,1
-0.0002379736,-6.148453e-05,9,1
-0.0002621213,-7.931171e-05,9,1
-0.0002621213,-9.211487e-05,9,1
-0.0002408908,-9.649064e-05,9,1
-0.0002075054,-9.470791e-05,9,1
-0.0001674752,-9.000802e-05,9,1
-0.0001287416,-8.368748e-05,9,1
-9.892161e-05,-7.542214e-05,9,1
-8.174268e-05,-6.845333e-05,9,1
-6.796714e-05,-6.359137e-05,9,1
-4.835724e-05,-5.743289e-05,9,1
-2.210265e-05,-5.030202e-05,9,1
8.041497e-06,-4.365734e-05,9,1
4.256141e-05,-3.911951e-05,9,1
8.356394e-05,-3.571614e-05,9,1
0.0001263492,-3.21507e-05,9,1
0.0001618415,-2.404744e-05,9,1
0.0001761032,-1.027188e-05,9,1
0.000160545,2.369211e-06,9,1
0.0001145184,4.313994e-06,9,1
5.212327e-05,-4.113403e-06,9,1
-6.220252e-06,-1.367526e-05,9,1
-4.203669e-05,-1.967167e-05,9,1
-4.868137e-05,-1.950961e-05,9,1
-3.117831e-05,-1.545797e-05,9,1
4.638125e-06,-1.059602e-05,9,1
5.131294e-05,-6.220252e-06,9,1
0.0001099806,-1.358292e-06,9,1
0.0001738343,7.069105e-06,9,1
0.0002295848,2.035846e-05,9,1
0.0002615117,3.624086e-05,9,1
0.0002585945,5.309566e-05,9,1
0.0002261814,7.059871e-05,9,1
0.0001772377,8.84259e-05,9,1
0.0001255389,0.0001091703,9,1
7.67572e-05,0.0001341283,9,1
3.445814e-05,0.0001618415,9,1
-3.789272e-06,0.0001863134,9,1
-3.895745e-05,0.000200413,9,1
-6.586029e-05,0.0001991165,9,1
-8.125649e-05,0.0001816135,9,1
-8.02841e-05,0.0001524417,9,1
-6.229485e-05,0.0001192183,9,1
-3.328516e-05,9.150514e-05,9,1
-9.299493e-06,7.448828e-05,9,1
-2.492749e-06,6.962632e-05,9,1
-1.173047e-05,7.20573e-05,9,1
-2.745081e-05,7.6271e-05,9,1
-4.155049e-05,7.610894e-05,9,1
-5.143648e-05,6.995045e-05,9,1
-5.013995e-05,5.649903e-05,9,1
-2.599222e-05,3.494434e-05,9,1
3.105477e-05,6.258778e-06,9,1
0.0001255389,-2.615429e-05,9,1
0.0002467637,-5.435365e-05,9,1
0.000368799,-7.250496e-05,9,1
0.0004563143,-7.931171e-05,9,1
0.0004751139,-7.623246e-05,9,1
0.0004151496,-6.521203e-05,9,1
0.0003021901,-5.111234e-05,9,1
0.0001720516,-3.733679e-05,9,1
5.325772e-05,-2.696461e-05,9,1
-4.025397e-05,-1.934754e-05,9,1
-0.0001058904,-1.189254e-05,9,1
-0.0001449482,-5.734056e-06,9,1
-0.0001626133,-3.465141e-06,9,1
-0.0001716889,-5.734056e-06,9,1
-0.0001865989,-1.059602e-05,9,1
-0.0002126914,-1.869928e-05,9,1
-0.0002460769,-2.664048e-05,9,1
-0.0002805968,-3.101625e-05,9,1
-0.0003050687,-3.004385e-05,9,1
-0.0003138202,-2.42095e-05,9,1
-0.0003070135,-1.464765e-05,9,1
-0.0002849726,-4.275467e-06,9,1
-0.0002501286,1.072688e-06,9,1
-0.000201509,-8.720959e-07,9,1
-0.0001373311,-8.002969e-06,9,1
-5.516398e-05,-1.367526e-05,9,1
4.969229e-05,-1.643037e-05,9,1
0.0001702689,-1.578211e-05,9,1
0.0002856594,-1.270286e-05,9,1
0.0003722023,-7.840905e-06,9,1
0.0004157979,-6.058186e-06,9,1
0.0004076947,-1.20546e-05,9,1
0.0003498373,-2.501983e-05,9,1
0.0002602152,-3.895745e-05,9,1
0.0001628139,-4.462973e-05,9,1
7.951231e-05,-3.960571e-05,9,1
1.679302e-05,-2.712668e-05,9,1
-3.21507e-05,-1.351319e-05,9,1
-7.526008e-05,-4.275467e-06,9,1
-0.0001149661,-1.034161e-06,9,1
-0.0001488377,-2.81688e-06,9,1
-0.0001707166,-6.382317e-06,9,1
-0.0001755785,-9.299493e-06,9,1
-0.0001647201,-9.137427e-06,9,1
-0.0001454344,-4.113403e-06,9,1
-0.0001211246,1.720949e-06,9,1
-9.632857e-05,1.883015e-06,9,1
-7.363943e-05,-4.275467e-06,9,1
-5.22468e-05,-1.367526e-05,9,1
-2.826114e-05,-1.821308e-05,9,1
-3.789272e-06,-1.367526e-05,9,1
1.695509e-05,-4.275467e-06,9,1
3.105477e-05,4.638125e-06,9,1
3.721326e-05,7.879432e-06,9,1
3.753739e-05,7.555301e-06,9,1
3.786152e-05,6.096713e-06,9,1
3.867184e-05,5.286387e-06,9,1
3.024445e-05,5.448452e-06,9,1
4.313994e-06,6.258778e-06,9,1
-3.441962e-05,7.555301e-06,9,1
-7.866345e-05,1.144487e-05,9,1
-0.0001219349,2.003433e-05,9,1
-0.0001528894,3.008238e-05,9,1
-0.0001601823,3.737532e-05,9,1
-0.0001407345,4.02925e-05,9,1
-0.0001024871,4.256141e-05,9,1
-6.051213e-05,4.564065e-05,9,1
-3.539201e-05,4.969229e-05,9,1
-4.462973e-05,5.034055e-05,9,1
-8.465986e-05,4.191315e-05,9,1
-0.0001308485,2.619281e-05,9,1
-0.0001540238,6.90704e-06,9,1
-0.0001430034,-1.092015e-05,9,1
-0.0001028112,-2.258885e-05,9,1
-4.90055e-05,-2.437157e-05,9,1
1.396819e-06,-1.367526e-05,9,1
4.320967e-05,7.393236e-06,9,1
7.351589e-05,3.170304e-05,9,1
8.664318e-05,5.228533e-05,9,1
7.853991e-05,6.346784e-05,9,1
5.406805e-05,6.427817e-05,9,1
2.165498e-05,5.876794e-05,9,1
-5.734056e-06,5.228533e-05,9,1
-2.242678e-05,4.855783e-05,9,1
-3.101625e-05,5.017848e-05,9,1
-3.393342e-05,5.390598e-05,9,1
-3.441962e-05,5.795762e-05,9,1
-3.798505e-05,5.94162e-05,9,1
-5.419158e-05,5.649903e-05,9,1
-8.482193e-05,4.985435e-05,9,1
-0.0001195039,4.013043e-05,9,1
-0.0001413827,3.105477e-05,9,1
-0.0001389517,2.603075e-05,9,1
-0.0001086455,2.489629e-05,9,1
-5.143648e-05,2.586868e-05,9,1
2.295151e-05,2.505836e-05,9,1
0.0001056048,2.149292e-05,9,1
0.0001848548,1.54965e-05,9,1
0.000244981,4.151929e-06,9,1
0.0002775562,-1.383732e-05,9,1
0.0002890628,-3.668853e-05,9,1
0.0002932765,-6.116039e-05,9,1
0.0003049452,-8.222889e-05,9,1
0.0003363859,-9.794922e-05,9,1
0.0003955397,-0.000104918,9,1
0.0004785172,-0.0001041077,9,1
0.0005692738,-9.811128e-05,9,1
0.000651441,-9.162867e-05,9,1
0.0007088122,-8.336335e-05,9,1
0.0007318255,-7.218083e-05,9,1
0.0007151327,-6.051213e-05,9,1
0.0006569512,-4.997789e-05,9,1
0.0005629533,-3.911951e-05,9,1
0.0004461041,-3.085418e-05,9,1
0.0003239069,-2.46957e-05,9,1
0.0002133783,-2.113026e-05,9,1
0.0001260251,-1.772689e-05,9,1
6.217132e-05,-1.237873e-05,9,1
9.175954e-06,-2.168618e-06,9,1
-5.062615e-05,1.322759e-05,9,1
-0.0001225832,3.218923e-05,9,1
-0.0001861127,4.888196e-05,9,1
-0.0002117191,5.844381e-05,9,1
-0.000191785,6.168512e-05,9,1
-0.0001468929,6.508849e-05,9,1
-0.0001032974,7.173317e-05,9,1
-6.974985e-05,7.999851e-05,9,1
-4.090223e-05,9.069481e-05,9,1
-5.734056e-06,0.0001043083,9,1
4.272347e-05,0.0001213252,9,1
0.0001075496,0.0001398006,9,1
0.0001816135,0.0001560072,9,1
0.0002525981,0.0001662173,9,1
0.0003064038,0.0001715654,9,1
0.0003328204,0.0001736723,9,1
0.0003221241,0.0001726999,9,1
0.000272208,0.0001650828,9,1
0.0001963614,0.0001498487,9,1
0.0001096565,0.0001279698,9,1
2.76514e-05,9.928428e-05,9,1
-4.074016e-05,6.006447e-05,9,1
-9.535618e-05,9.986281e-06,9,1
-0.000137007,-4.608832e-05,9,1
-0.0001708786,-0.0001021629,9,1
-0.0001995642,-0.0001478653,9,1
-0.0002219292,-0.0001763888,9,1
-0.0002397564,-0.0001900023,9,1
-0.0002609869,-0.0001909747,9,1
-0.0002921034,-0.0001788198,9,1
-0.0003345645,-0.0001517549,9,1
-0.0003791325,-0.0001159385,9,1
-0.0004120317,-7.623246e-05,9,1
-0.0004284004,-3.668853e-05,9,1
-0.0004301831,-1.034161e-06,9,1
-0.0004177041,3.267542e-05,9,1
-0.0003946908,6.006447e-05,9,1
-0.000365519,7.935024e-05,9,1
-0.0003358611,9.134307e-05,9,1
-0.0003092824,0.0001002567,9,1
-0.0002919414,0.0001090082,9,1
-0.0002872415,0.0001150046,9,1
-0.0002929138,0.0001145184,9,1
-0.0003027998,0.000108522,9,1
-0.0003154408,0.0001005808,9,1
-0.0003277578,9.31258e-05,9,1
-0.0003407231,8.875003e-05,9,1
-0.0003553089,9.020862e-05,9,1
-0.0003698948,9.523264e-05,9,1
-0.0003820497,0.0001023635,9,1
-0.0003872358,0.0001086841,9,1
-0.0003791325,0.0001112771,9,1
-0.0003525538,0.000111115,9,1
-0.0003062031,0.00010366,9,1
-0.0002417012,8.907416e-05,9,1
-0.0001697442,7.092284e-05,9,1
-0.0001041077,5.730935e-05,9,1
-5.467778e-05,5.1475e-05,9,1
-2.712668e-05,5.082674e-05,9,1
-2.501983e-05,4.936815e-05,9,1
-4.252288e-05,4.077869e-05,9,1
-6.521203e-05,2.522042e-05,9,1
-7.817725e-05,1.014835e-05,9,1
-7.428769e-05,2.207145e-06,9,1
-5.370539e-05,1.720949e-06,9,1
-1.821308e-05,4.962256e-06,9,1
2.149292e-05,1.257933e-05,9,1
6.071273e-05,2.489629e-05,9,1
9.458438e-05,4.385793e-05,9,1
0.0001137081,6.654708e-05,9,1
0.0001038221,8.74535e-05,9,1
5.828175e-05,0.0001020394,9,1
-9.299493e-06,0.0001088461,9,1
-7.526008e-05,0.0001094944,9,1
-0.0001141558,0.0001043083,9,1
-0.0001169109,9.182927e-05,9,1
-9.713889e-05,7.416415e-05,9,1
-8.514606e-05,4.871989e-05,9,1
-9.681477e-05,1.727922e-05,9,1
-0.0001250141,-1.610624e-05,9,1
-0.0001384655,-4.754691e-05,9,1
-0.0001054042,-7.137051e-05,9,1
-4.923729e-06,-8.417367e-05,9,1
0.0001623277,-8.757704e-05,9,1
0.0003733368,-8.741498e-05,9,1
0.0005935837,-9.179074e-05,9,1
0.0007835244,-0.0001039456,9,1
0.0009169042,-0.0001206384,9,1
0.0009883752,-0.0001357104,9,1
0.0009992336,-0.0001433275,9,1
0.0009551517,-0.0001392759,9,1
0.000859371,-0.0001232314,9,1
0.0007130259,-9.438378e-05,9,1
0.0005295678,-5.953974e-05,9,1
0.0003402755,-2.680255e-05,9,1
0.0001817755,3.179537e-06,9,1
8.113296e-05,2.829966e-05,9,1
4.839576e-05,4.888196e-05,9,1
8.161915e-05,6.78436e-05,9,1
0.0001626518,8.74535e-05,9,1
0.0002577842,0.0001052807,9,1
0.0003282826,0.0001156529,9,1
0.0003503235,0.0001143563,9,1
0.0003277964,9.928428e-05,9,1
0.0002798251,7.724339e-05,9,1
0.0002313675,5.666109e-05,9,1
0.0002057612,4.207521e-05,9,1
0.0002154851,3.202716e-05,9,1
0.0002506533,2.522042e-05,9,1
0.0002832284,1.9224e-05,9,1
0.000287118,1.452411e-05,9,1
0.0002527602,1.209313e-05,9,1
0.0001898788,1.306552e-05,9,1
0.0001213252,1.517237e-05,9,1
6.379197e-05,1.468618e-05,9,1
2.084466e-05,9.500085e-06,9,1
-1.286493e-05,1.396819e-06,9,1
-4.738484e-05,-4.923729e-06,9,1
-9.454585e-05,-1.027188e-05,9,1
-0.0001583996,-1.545797e-05,9,1
-0.0002332737,-1.821308e-05,9,1
-0.0003066893,-1.286493e-05,9,1
-0.0003634122,-3.858999e-07,9,1
-0.0003922598,1.306552e-05,9,1
-0.0003848048,2.311357e-05,9,1
-0.0003402368,3.105477e-05,9,1
-0.0002629317,4.02925e-05,9,1
-0.0001684476,5.034055e-05,9,1
-8.952183e-05,6.346784e-05,9,1
-6.958779e-05,7.853991e-05,9,1
-0.0001253383,9.182927e-05,9,1
-0.0002365151,0.0001002567,9,1
-0.0003583881,0.0001039842,9,1
-0.0004446069,0.0001051186,9,1
-0.00046211,0.0001054428,9,1
-0.000410087,0.0001057669,9,1
-0.0003151167,0.0001069013,9,1
-0.000216581,0.0001052807,9,1
-0.0001384655,0.0001000946,9,1
-8.773911e-05,9.458438e-05,9,1
-6.0188e-05,9.101894e-05,9,1
-4.787104e-05,8.923623e-05,9,1
-3.928157e-05,8.631905e-05,9,1
-2.275091e-05,7.918817e-05,9,1
6.258778e-06,6.525056e-05,9,1
4.256141e-05,4.758544e-05,9,1
8.226741e-05,2.797553e-05,9,1
0.0001190562,1.063454e-05,9,1
0.0001462832,-3.951337e-06,9,1
0.0001618415,-1.351319e-05,9,1
0.0001663793,-1.724069e-05,9,1
0.0001639484,-1.902341e-05,9,1
0.0001579519,-2.388537e-05,9,1
0.0001485521,-3.377136e-05,9,1
0.0001360731,-4.965376e-05,9,1
0.0001245665,-7.072225e-05,9,1
0.0001192183,-9.713889e-05,9,1
0.0001164632,-0.0001240417,9,1
0.0001151667,-0.0001501342,9,1
0.0001141943,-0.0001746061,9,1
0.0001072255,-0.0001972953,9,1
8.972242e-05,-0.0002175534,9,1
6.087479e-05,-0.0002290601,9,1
2.522042e-05,-0.0002277635,9,1
-7.354709e-06,-0.0002130156,9,1
-3.312309e-05,-0.0001853024,9,1
-5.095028e-05,-0.0001425172,9,1
-6.780507e-05,-9.503204e-05,9,1
-8.709085e-05,-5.143648e-05,9,1
-0.0001063766,-1.059602e-05,9,1
-0.0001219349,3.008238e-05,9,1
-0.0001293899,7.140904e-05,9,1
-0.000132145,0.0001096565,9,1
-0.0001408965,0.000140773,9,1
-0.0001634236,0.0001624898,9,1
-0.000199078,0.0001744826,9,1
-0.0002386219,0.0001765894,9,1
-0.0002718453,0.0001720516,9,1
-0.0002927517,0.0001628139,9,1
-0.0002987481,0.0001542244,9,1
-0.0002870794,0.0001475797,9,1
-0.0002600145,0.0001419075,9,1
-0.0002241981,0.0001355869,9,1
-0.0001883817,0.0001286181,9,1
-0.0001527273,0.0001227837,9,1
-0.0001101041,0.0001132219,9,1
-5.046408e-05,9.523264e-05,9,1
2.424803e-05,6.492643e-05,9,1
9.879808e-05,2.619281e-05,9,1
0.0001548727,-1.075808e-05,9,1
0.0001765894,-3.555408e-05,9,1
0.0001649207,-3.911951e-05,9,1
0.0001336421,-2.501983e-05,9,1
9.717743e-05,-1.844488e-06,9,1
6.83298e-05,1.857574e-05,9,1
5.649903e-05,3.089271e-05,9,1
6.281957e-05,3.494434e-05,9,1
7.756752e-05,3.494434e-05,9,1
8.599492e-05,3.13789e-05,9,1
8.340187e-05,2.424803e-05,9,1
7.610894e-05,1.387585e-05,9,1
7.546067e-05,3.179537e-06,9,1
8.648112e-05,-7.030578e-06,9,1
0.0001044704,-1.788895e-05,9,1
0.0001177597,-3.198864e-05,9,1
0.0001213252,-4.657452e-05,9,1
0.000111115,-5.581224e-05,9,1
8.826383e-05,-5.613637e-05,9,1
5.94162e-05,-4.754691e-05,9,1
3.332369e-05,-3.604027e-05,9,1
1.112074e-05,-2.939559e-05,9,1
-1.075808e-05,-3.441962e-05,9,1
-3.944364e-05,-5.2733e-05,9,1
-7.250496e-05,-7.995997e-05,9,1
-0.0001052422,-0.000107349,9,1
-0.0001336036,-0.0001279313,9,1
-0.0001558065,-0.0001357104,9,1
-0.0001690959,-0.000127121,9,1
-0.0001715269,-0.0001067007,9,1
-0.0001590478,-8.206682e-05,9,1
-0.0001284175,-5.419158e-05,9,1
-8.725291e-05,-2.291298e-05,9,1
-4.754691e-05,1.290346e-05,9,1
-1.950961e-05,4.839576e-05,9,1
-4.437533e-06,7.448828e-05,9,1
1.883015e-06,8.323981e-05,9,1
1.079661e-05,7.546067e-05,9,1
3.154097e-05,5.876794e-05,9,1
6.265751e-05,4.256141e-05,9,1
9.490851e-05,3.218923e-05,9,1
0.0001182459,2.943412e-05,9,1
0.000121001,3.640293e-05,9,1
0.0001067393,5.066468e-05,9,1
8.891209e-05,6.184718e-05,9,1
8.097089e-05,6.508849e-05,9,1
8.761557e-05,6.087479e-05,9,1
9.733949e-05,5.439218e-05,9,1
9.231547e-05,5.001642e-05,9,1
6.055066e-05,5.066468e-05,9,1
5.448452e-06,5.341979e-05,9,1
-6.06742e-05,5.471631e-05,9,1
-0.0001165867,5.163707e-05,9,1
-0.0001538618,4.839576e-05,9,1
-0.0001705545,4.369587e-05,9,1
-0.0001616409,3.834771e-05,9,1
-0.000127121,3.413401e-05,9,1
-7.33153e-05,3.429608e-05,9,1
-1.529591e-05,3.98063e-05,9,1
2.376183e-05,5.066468e-05,9,1
2.992031e-05,6.265751e-05,9,1
6.096713e-06,6.849186e-05,9,1
-3.344723e-05,6.589881e-05,9,1
-6.829127e-05,5.714729e-05,9,1
-8.303922e-05,4.661304e-05,9,1
-7.315322e-05,4.175109e-05,9,1
-4.787104e-05,4.580272e-05,9,1
-2.534396e-05,5.747142e-05,9,1
-1.173047e-05,7.157111e-05,9,1
4.47606e-06,8.388807e-05,9,1
3.98063e-05,9.182927e-05,9,1
9.847395e-05,9.458438e-05,9,1
0.0001699448,9.458438e-05,9,1
0.0002438466,9.490851e-05,9,1
0.0003136967,9.571884e-05,9,1
0.000378847,9.620504e-05,9,1
0.000440756,9.798775e-05,9,1
0.0004961824,0.0001025256,9,1
0.0005405883,0.0001116012,9,1
0.0005661946,0.0001273216,9,1
0.000567167,0.0001436902,9,1
0.0005410745,0.0001558451,9,1
0.0004948858,0.0001621656,9,1
0.000435732,0.0001610312,9,1
0.0003611819,0.0001496866,9,1
0.0002713977,0.0001344524,9,1
0.0001757791,0.0001214872,9,1
8.729144e-05,0.0001107909,9,1
1.419998e-05,9.571884e-05,9,1
-4.300908e-05,7.691926e-05,9,1
-8.660465e-05,5.860588e-05,9,1
-0.0001188556,4.547859e-05,9,1
-0.0001442999,3.073064e-05,9,1
-0.0001640719,6.744974e-06,9,1
-0.0001781716,-2.599222e-05,9,1
-0.000186761,-6.245691e-05,9,1
-0.0001857886,-9.973194e-05,9,1
-0.0001715269,-0.000137169,9,1
-0.0001426792,-0.0001724993,9,1
-9.875954e-05,-0.0002023193,9,1
-4.219875e-05,-0.0002254946,9,1
1.776542e-05,-0.0002425115,9,1
7.416415e-05,-0.000256287,9,1
0.000123432,-0.0002674695,9,1
0.0001670276,-0.0002726556,9,1
0.0002145127,-0.0002643903,9,1
0.0002757735,-0.0002399184,9,1
0.0003530786,-0.0002011848,9,1
0.0004386491,-0.0001574272,9,1
0.0005156302,-0.0001146419,9,1
0.0005730013,-7.752899e-05,9,1
0.0006071971,-4.90055e-05,9,1
0.0006138419,-3.069211e-05,9,1
0.0005843459,-1.99958e-05,9,1
0.0005159543,-1.545797e-05,9,1
0.0004169324,-1.497178e-05,9,1
0.0003007315,-1.740276e-05,9,1
0.0001824238,-2.031993e-05,9,1
7.059871e-05,-2.129233e-05,9,1
-2.923353e-05,-1.643037e-05,9,1
-0.0001159385,-6.706447e-06,9,1
-0.0001922712,4.962256e-06,9,1
-0.0002567732,1.468618e-05,9,1
-0.0003121996,2.327564e-05,9,1
-0.0003583881,3.056858e-05,9,1
-0.000390315,3.60788e-05,9,1
-0.0004018217,3.672706e-05,9,1
-0.0003904771,3.397195e-05,9,1
-0.0003572537,2.894792e-05,9,1
-0.0003134961,2.408596e-05,9,1
-0.0002718453,1.889987e-05,9,1
-0.0002433218,1.144487e-05,9,1
-0.000236353,2.531276e-06,9,1
-0.0002483458,-3.951337e-06,9,1
-0.0002729798,-3.465141e-06,9,1
-0.0003057169,6.096713e-06,9,1
-0.0003421817,2.214118e-05,9,1
-0.0003763774,3.915804e-05,9,1
-0.000405063,5.649903e-05,9,1
-0.0004230522,7.027458e-05,9,1
-0.0004238625,7.853991e-05,9,1
-0.0004014975,8.226741e-05,9,1
-0.0003632501,8.340187e-05,9,1
-0.0003253268,8.129502e-05,9,1
-0.0003021515,7.52986e-05,9,1
-0.0002990722,6.735741e-05,9,1
-0.0003115513,5.94162e-05,9,1
-0.0003246786,5.56887e-05,9,1
-0.0003237062,5.828175e-05,9,1
-0.0002976137,6.589881e-05,9,1
-0.0002491561,7.708133e-05,9,1
-0.0001934057,8.777764e-05,9,1
-0.0001477033,9.701536e-05,9,1
-0.0001154523,0.000103498,9,1
-8.838737e-05,0.000108522,9,1
-6.0188e-05,0.0001116012,9,1
-2.599222e-05,0.000115977,9,1
1.112074e-05,0.000123432,9,1
4.337174e-05,0.0001313732,9,1
6.41161e-05,0.0001346145,9,1
6.751948e-05,0.0001300767,9,1
5.293359e-05,0.000118408,9,1
3.089271e-05,9.977047e-05,9,1
1.64689e-05,7.90261e-05,9,1
2.278944e-05,6.217132e-05,9,1
5.730935e-05,5.374392e-05,9,1
0.0001187321,5.260946e-05,9,1
0.000195227,5.439218e-05,9,1
0.0002709115,5.455425e-05,9,1
0.0003290929,5.277153e-05,9,1
0.0003623164,5.19612e-05,9,1
0.0003736609,5.504044e-05,9,1
0.0003649094,5.811968e-05,9,1
0.000334117,5.763349e-05,9,1
0.0002793389,5.309566e-05,9,1
0.0002109473,4.288554e-05,9,1
0.0001404489,2.716521e-05,9,1
7.708133e-05,9.338019e-06,9,1
2.489629e-05,-7.678839e-06,9,1
-1.351319e-05,-2.291298e-05,9,1
-3.879538e-05,-3.539201e-05,9,1
-5.451572e-05,-4.187462e-05,9,1
-7.104638e-05,-4.090223e-05,9,1
-9.713889e-05,-3.134038e-05,9,1
-0.0001373311,-1.788895e-05,9,1
-0.0001854645,-7.516774e-06,9,1
-0.0002279256,-4.113403e-06,9,1
-0.0002436459,-7.354709e-06,9,1
-0.0002172293,-1.432352e-05,9,1
-0.0001451102,-2.064406e-05,9,1
-3.911951e-05,-2.388537e-05,9,1
7.6271e-05,-2.09682e-05,9,1
0.0001714034,-1.237873e-05,9,1
0.0002209954,-2.006553e-06,9,1
0.0002130541,3.989864e-06,9,1
0.0001573037,1.072688e-06,9,1
7.853991e-05,-1.059602e-05,9,1
2.693341e-06,-2.599222e-05,9,1
-4.90055e-05,-3.911951e-05,9,1
-6.877746e-05,-4.544006e-05,9,1
-6.375344e-05,-4.592625e-05,9,1
-4.754691e-05,-4.608832e-05,9,1
-2.826114e-05,-4.80331e-05,9,1
-6.544382e-06,-5.095028e-05,9,1
1.825161e-05,-5.565017e-05,9,1
4.272347e-05,-5.905355e-05,9,1
6.006447e-05,-6.0188e-05,9,1
6.444023e-05,-5.743289e-05,9,1
5.56887e-05,-4.90055e-05,9,1
4.418206e-05,-3.620233e-05,9,1
4.320967e-05,-2.015787e-05,9,1
5.957827e-05,-4.437533e-06,9,1
8.972242e-05,4.962256e-06,9,1
0.0001244044,4.80019e-06,9,1
0.0001519555,-1.844488e-06,9,1
0.0001696206,-9.137427e-06,9,1
0.0001808031,-1.221667e-05,9,1
0.0001851789,-8.002969e-06,9,1
0.0001874478,5.772582e-06,9,1
0.0001986303,2.408596e-05,9,1
0.0002242366,4.045456e-05,9,1
0.0002608634,5.277153e-05,9,1
0.0003007315,6.314371e-05,9,1
0.0003276344,7.011252e-05,9,1
0.0003299033,7.497447e-05,9,1
0.0003010556,7.999851e-05,9,1
0.0002446569,8.323981e-05,9,1
0.0001744826,8.372601e-05,9,1
0.0001043083,8.259155e-05,9,1
4.888196e-05,8.323981e-05,9,1
1.64689e-05,8.437427e-05,9,1
4.962256e-06,8.04847e-05,9,1
-1.034161e-06,6.83298e-05,9,1
-1.886135e-05,4.985435e-05,9,1
-5.305713e-05,2.975825e-05,9,1
-9.649064e-05,1.160693e-05,9,1
-0.0001389517,-1.196227e-06,9,1
-0.0001676373,-6.706447e-06,9,1
-0.0001716889,-5.247859e-06,9,1
-0.0001509446,-1.196227e-06,9,1
-0.000104918,-1.196227e-06,9,1
-2.826114e-05,-8.651231e-06,9,1
7.043665e-05,-2.242678e-05,9,1
0.0001686482,-3.701266e-05,9,1
0.0002380122,-4.138842e-05,9,1
0.0002576221,-2.955766e-05,9,1
0.0002187264,-5.89612e-06,9,1
0.0001315353,2.359977e-05,9,1
1.695509e-05,5.19612e-05,9,1
-0.0001015147,7.238143e-05,9,1
-0.0002019951,8.178122e-05,9,1
-0.0002746004,8.518459e-05,9,1
-0.000318358,8.550872e-05,9,1
-0.0003394265,8.242948e-05,9,1
-0.0003449367,7.756752e-05,9,1
-0.0003489884,6.914012e-05,9,1
-0.0003616295,5.747142e-05,9,1
-0.0003763774,4.580272e-05,9,1
-0.0003781601,3.380988e-05,9,1
-0.0003582261,2.262738e-05,9,1
-0.0003215994,1.533444e-05,9,1
-0.0002797865,1.338965e-05,9,1
-0.0002452666,1.711715e-05,9,1
-0.0002248464,2.522042e-05,9,1
-0.0002206326,3.202716e-05,9,1
-0.0002318152,3.624086e-05,9,1
-0.0002549905,3.867184e-05,9,1
-0.0002807589,3.834771e-05,9,1
-0.0002940482,3.251336e-05,9,1
-0.000285945,2.100672e-05,9,1
-0.0002546664,6.90704e-06,9,1
-0.0002036158,-4.599598e-06,9,1
-0.0001357104,-8.489166e-06,9,1
-5.581224e-05,-6.868513e-06,9,1
3.121684e-05,-3.951337e-06,9,1
0.0001221355,-2.238346e-07,9,1
0.000220185,2.369211e-06,9,1
0.0003342791,3.017472e-06,9,1
0.0004741415,3.341602e-06,9,1
0.0006415551,5.448452e-06,9,1
0.0008227442,9.824215e-06,9,1
0.0009869165,1.193106e-05,9,1
0.00109469,1.112074e-05,9,1
0.001118352,6.582909e-06,9,1
0.001052229,1.002961e-07,9,1
0.0009157698,-7.840905e-06,9,1
0.0007383081,-1.659243e-05,9,1
0.0005519328,-2.404744e-05,9,1
0.0003850055,-2.745081e-05,9,1
0.0002537325,-3.166451e-05,9,1
0.0001597346,-4.106429e-05,9,1
9.247754e-05,-5.808115e-05,9,1
3.834771e-05,-7.671866e-05,9,1
-1.010982e-05,-9.227693e-05,9,1
-5.402952e-05,-9.746302e-05,9,1
-9.503204e-05,-8.514606e-05,9,1
-0.0001337657,-5.872941e-05,9,1
-0.000166827,-2.680255e-05,9,1
-0.0001938919,-2.81688e-06,9,1
-0.0002182017,9.338019e-06,9,1
-0.0002433218,1.290346e-05,9,1
-0.0002676316,1.436204e-05,9,1
-0.0002846485,1.679302e-05,9,1
-0.0002899966,1.808955e-05,9,1
-0.0002865932,2.003433e-05,9,1
-0.0002846485,2.116879e-05,9,1
-0.000293562,2.39239e-05,9,1
-0.0003227338,3.332369e-05,9,1
-0.0003715154,5.179914e-05,9,1
-0.0004258073,7.400208e-05,9,1
-0.0004760476,9.604298e-05,9,1
-0.0005185087,0.0001141943,9,1
-0.0005476804,0.0001279698,9,1
-0.0005554595,0.000138342,9,1
-0.0005382806,0.0001449867,9,1
-0.0004925782,0.0001485521,9,1
-0.0004128421,0.0001479039,9,1
-0.0002980999,0.0001438522,9,1
-0.0001603444,0.0001394765,9,1
-2.145439e-05,0.0001352628,9,1
9.831188e-05,0.0001300767,9,1
0.00018291,0.0001252147,9,1
0.0002242366,0.0001248906,9,1
0.0002235884,0.0001294284,9,1
0.0001999268,0.0001342904,9,1
0.0001744826,0.0001351007,9,1
0.0001689724,0.0001312112,9,1
0.000192958,0.0001218114,9,1
0.0002406053,0.0001047945,9,1
0.0002903593,8.631905e-05,9,1
0.0003200173,6.978839e-05,9,1
0.0003240689,5.795762e-05,9,1
0.0003161277,5.115087e-05,9,1
0.0003162898,4.418206e-05,9,1
0.0003388169,3.202716e-05,9,1
0.0003807918,1.501031e-05,9,1
0.000423415,-5.479652e-07,9,1
0.0004550177,-1.399939e-05,9,1
0.0004785172,-2.7937e-05,9,1
0.0004994237,-4.333321e-05,9,1
0.0005167646,-5.548811e-05,9,1
0.0005211404,-5.759496e-05,9,1
0.0005041235,-4.916756e-05,9,1
0.0004652279,-3.441962e-05,9,1
0.000413529,-1.756482e-05,9,1
0.000353889,-4.437533e-06,9,1
0.0002829043,9.106227e-07,9,1
0.0001974959,-1.358292e-06,9,1
9.977047e-05,-1.108221e-05,9,1
-3.465141e-06,-2.858527e-05,9,1
-0.000102325,-5.159854e-05,9,1
-0.0001900023,-7.266703e-05,9,1
-0.0002630937,-8.692878e-05,9,1
-0.0003214373,-9.114248e-05,9,1
-0.0003674638,-8.757704e-05,9,1
-0.0003945287,-8.093236e-05,9,1
-0.000395177,-7.65566e-05,9,1
-0.0003718396,-7.898758e-05,9,1
-0.000335537,-8.709085e-05,9,1
-0.0002977757,-9.454585e-05,9,1
-0.0002647144,-9.551824e-05,9,1
-0.0002420253,-8.40116e-05,9,1
-0.0002332737,-6.569822e-05,9,1
-0.0002379736,-4.80331e-05,9,1
-0.0002476975,-3.506788e-05,9,1
-0.0002496423,-2.7937e-05,9,1
-0.0002394322,-2.080613e-05,9,1
-0.0002207947,-9.461558e-06,9,1
-0.000196647,6.258778e-06,9,1
-0.0001734716,2.586868e-05,9,1
-0.0001480274,4.369587e-05,9,1
-0.0001185315,5.390598e-05,9,1
-8.871149e-05,5.341979e-05,9,1
-6.229485e-05,4.207521e-05,9,1
-3.749886e-05,2.408596e-05,9,1
-7.516774e-06,5.610517e-06,9,1
3.526847e-05,-6.220252e-06,9,1
0.0001020394,-7.840905e-06,9,1
0.0001906891,-3.627206e-06,9,1
0.0002811216,1.883015e-06,9,1
0.0003467581,7.555301e-06,9,1
0.0003733368,1.338965e-05,9,1
0.0003561579,1.630683e-05,9,1
0.0002927903,1.290346e-05,9,1
0.0001918236,2.693341e-06,9,1
6.930219e-05,-7.192643e-06,9,1
-5.289507e-05,-1.594417e-05,9,1
-0.0001567789,-2.777494e-05,9,1
-0.0002329496,-4.284701e-05,9,1
-0.0002763831,-6.06742e-05,9,1
-0.0002883759,-8.060823e-05,9,1
-0.0002780038,-0.0001005423,9,1
-0.000261149,-0.0001199901,9,1
-0.0002506147,-0.0001358725,9,1
-0.0002514251,-0.0001475412,9,1
-0.0002608248,-0.0001485136,9,1
-0.0002713591,-0.0001340898,9,1
-0.0002757348,-0.0001037836,9,1
-0.0002664971,-6.051213e-05,9,1
-0.0002395943,-1.043395e-05,9,1
-0.0001971332,3.688912e-05,9,1
-0.0001483515,7.059871e-05,9,1
-9.373552e-05,9.361199e-05,9,1
-2.550602e-05,0.0001122495,9,1
6.103686e-05,0.0001304008,9,1
0.0001608691,0.0001466074,9,1
0.0002521119,0.0001545486,9,1
0.0003059176,0.0001519555,9,1
0.0003135347,0.0001391524,9,1
0.0002884145,0.000121001,9,1
0.0002487085,0.0001023635,9,1
0.0002090025,9.069481e-05,9,1
0.000175455,8.79397e-05,9,1
0.0001462832,9.247754e-05,9,1
0.000113384,0.0001000946,9,1
7.30297e-05,0.0001070634,9,1
2.716521e-05,0.0001103047,9,1
-1.594417e-05,0.0001114392,9,1
-4.317115e-05,0.0001148425,9,1
-4.932962e-05,0.0001261871,9,1
-3.377136e-05,0.0001422316,9,1
-5.409925e-06,0.0001527658,9,1
2.165498e-05,0.0001449867,9,1
4.077869e-05,0.0001188942,9,1
5.066468e-05,8.631905e-05,9,1
5.163707e-05,5.439218e-05,9,1
3.883391e-05,2.651694e-05,9,1
1.403791e-05,2.693341e-06,9,1
-2.064406e-05,-1.869928e-05,9,1
-5.808115e-05,-3.895745e-05,9,1
-8.660465e-05,-5.548811e-05,9,1
-9.859748e-05,-6.44017e-05,9,1
-9.179074e-05,-6.667062e-05,9,1
-7.088431e-05,-6.472583e-05,9,1
-4.462973e-05,-5.986387e-05,9,1
-1.983374e-05,-5.159854e-05,9,1
1.234753e-06,-4.138842e-05,9,1
1.857574e-05,-3.393342e-05,9,1
3.413401e-05,-3.360929e-05,9,1
4.969229e-05,-4.155049e-05,9,1
6.703327e-05,-5.402952e-05,9,1
8.42122e-05,-6.44017e-05,9,1
9.814982e-05,-6.81292e-05,9,1
0.0001077117,-6.504996e-05,9,1
0.0001128978,-5.581224e-05,9,1
0.0001171115,-4.203669e-05,9,1
0.0001213252,-2.291298e-05,9,1
0.0001273216,-2.330684e-06,9,1
0.0001328318,1.22552e-05,9,1
0.0001321835,1.484824e-05,9,1
0.0001231079,1.014835e-05,9,1
0.0001086841,5.124321e-06,9,1
9.231547e-05,6.258778e-06,9,1
7.918817e-05,1.679302e-05,9,1
6.849186e-05,3.462021e-05,9,1
5.633696e-05,5.309566e-05,9,1
4.564065e-05,6.914012e-05,9,1
3.591673e-05,8.064677e-05,9,1
2.554455e-05,8.567078e-05,9,1
1.1769e-05,8.599492e-05,9,1
-6.544382e-06,8.550872e-05,9,1
-2.09682e-05,8.388807e-05,9,1
-2.145439e-05,8.145709e-05,9,1
-6.382317e-06,7.643307e-05,9,1
1.517237e-05,6.914012e-05,9,1
2.603075e-05,5.94162e-05,9,1
1.857574e-05,4.920609e-05,9,1
-1.034161e-06,4.35338e-05,9,1
-1.756482e-05,4.515445e-05,9,1
-2.275091e-05,4.936815e-05,9,1
-1.62683e-05,5.066468e-05,9,1
-5.89612e-06,4.855783e-05,9,1
4.638125e-06,4.531652e-05,9,1
1.776542e-05,4.45062e-05,9,1
3.283749e-05,4.661304e-05,9,1
4.385793e-05,5.358185e-05,9,1
4.758544e-05,6.314371e-05,9,1
4.77475e-05,6.946425e-05,9,1
5.56887e-05,7.043665e-05,9,1
8.356394e-05,6.427817e-05,9,1
0.0001315353,5.56887e-05,9,1
0.0001843686,4.709924e-05,9,1
0.0002148369,3.964424e-05,9,1
0.0001970097,3.332369e-05,9,1
0.0001304008,2.651694e-05,9,1
3.55926e-05,1.792748e-05,9,1
-6.342931e-05,1.063454e-05,9,1
-0.0001438137,9.824215e-06,9,1
-0.0001904885,1.517237e-05,9,1
-0.0002000504,2.441009e-05,9,1
-0.0001820611,3.364782e-05,9,1
-0.0001587237,4.369587e-05,9,1
-0.0001485136,5.682316e-05,9,1
-0.0001629374,7.351589e-05,9,1
-0.0001995642,9.037068e-05,9,1
-0.000246401,0.0001007429,9,1
-0.0002937241,0.0001007429,9,1
-0.0003324577,9.16672e-05,9,1
-0.0003557951,7.57848e-05,9,1
-0.0003522297,5.925414e-05,9,1
-0.0003113892,4.418206e-05,9,1
-0.0002251705,3.235129e-05,9,1
-9.357346e-05,2.424803e-05,9,1
6.638502e-05,1.808955e-05,9,1
0.0002258573,1.371378e-05,9,1
0.0003506476,1.144487e-05,9,1
0.0004140152,1.241726e-05,9,1
0.0004099636,1.241726e-05,9,1
0.000351458,1.112074e-05,9,1
0.0002658874,6.744974e-06,9,1
0.0001887444,1.720949e-06,9,1
0.0001474177,2.623614e-07,9,1
0.000145797,2.369211e-06,9,1
0.0001726999,3.827799e-06,9,1
0.0002070577,-1.196227e-06,9,1
0.0002430362,-1.399939e-05,9,1
0.0002858215,-3.004385e-05,9,1
0.0003373583,-4.284701e-05,9,1
0.0003843572,-4.80331e-05,9,1
0.0004114222,-4.738484e-05,9,1
0.0004081808,-4.544006e-05,9,1
0.0003759298,-3.928157e-05,9,1
0.0003171001,-3.101625e-05,9,1
0.0002318537,-2.339918e-05,9,1
0.000128294,-1.610624e-05,9,1
2.133085e-05,-1.173047e-05,9,1
-7.23429e-05,-1.448558e-05,9,1
-0.0001352242,-2.647842e-05,9,1
-0.0001627754,-4.495386e-05,9,1
-0.000156941,-6.407757e-05,9,1
-0.0001329553,-7.866345e-05,9,1
-0.000104918,-8.887356e-05,9,1
-8.07703e-05,-9.341139e-05,9,1
-5.856735e-05,-9.081835e-05,9,1
-3.766092e-05,-8.012204e-05,9,1
-1.918548e-05,-6.197072e-05,9,1
-1.140634e-05,-4.171256e-05,9,1
-2.194059e-05,-2.031993e-05,9,1
-4.754691e-05,-2.81688e-06,9,1
-7.752899e-05,1.031041e-05,9,1
-0.0001016767,1.484824e-05,9,1
-0.0001135075,5.772582e-06,9,1
-0.0001084835,-1.25408e-05,9,1
-8.692878e-05,-3.182657e-05,9,1
-4.90055e-05,-4.252288e-05,9,1
-5.085794e-06,-4.80331e-05,9,1
2.732727e-05,-5.111234e-05,9,1
3.526847e-05,-5.240886e-05,9,1
1.808955e-05,-4.997789e-05,9,1
-1.821308e-05,-4.268495e-05,9,1
-6.164659e-05,-3.085418e-05,9,1
-0.0001000561,-1.237873e-05,9,1
-0.0001289037,8.041497e-06,9,1
-0.0001489998,2.586868e-05,9,1
-0.0001621271,3.802358e-05,9,1
-0.000174282,4.466826e-05,9,1
-0.0001861127,4.77475e-05,9,1
-0.0001898403,5.293359e-05,9,1
-0.0001822232,6.152305e-05,9,1
-0.0001682856,7.124698e-05,9,1
-0.0001588858,7.691926e-05,9,1
-0.0001618029,8.064677e-05,9,1
-0.0001739578,8.291568e-05,9,1
-0.0001828714,8.583286e-05,9,1
-0.0001784957,9.037068e-05,9,1
-0.000169258,9.68533e-05,9,1
-0.0001603444,0.0001031738,9,1
-0.0001549962,0.000106091,9,1
-0.0001504584,0.0001052807,9,1
-0.0001417068,0.0001007429,9,1
-0.0001209625,9.377406e-05,9,1
-8.093236e-05,8.259155e-05,9,1
-2.177852e-05,6.638502e-05,9,1
5.358185e-05,4.839576e-05,9,1
0.0001406109,3.462021e-05,9,1
0.0002334744,2.829966e-05,9,1
0.0003245551,2.81376e-05,9,1
0.000401212,3.089271e-05,9,1
0.0004553419,3.526847e-05,9,1
0.000485324,3.575467e-05,9,1
0.0004971547,3.478228e-05,9,1
0.0004948858,3.380988e-05,9,1
0.000477869,3.494434e-05,9,1
0.0004446456,4.223728e-05,9,1
0.0003931088,5.52025e-05,9,1
0.0003276344,6.703327e-05,9,1
0.0002649151,6.687121e-05,9,1
0.0002255332,5.406805e-05,9,1
0.0002185644,3.283749e-05,9,1
0.0002393087,1.063454e-05,9,1
0.0002694529,-7.678839e-06,9,1
0.0002923041,-2.031993e-05,9,1
0.0002966799,-2.745081e-05,9,1
0.0002769079,-2.971972e-05,9,1
0.0002297469,-3.279896e-05,9,1
0.0001550348,-3.960571e-05,9,1
5.94162e-05,-4.722278e-05,9,1
-4.365734e-05,-5.402952e-05,9,1
-0.0001391138,-5.986387e-05,9,1
-0.0002144742,-6.44017e-05,9,1
-0.0002643903,-6.715681e-05,9,1
-0.000288538,-6.731888e-05,9,1
-0.0002854588,-6.456377e-05,9,1
-0.0002624455,-6.035007e-05,9,1
-0.0002334358,-5.629844e-05,9,1
-0.0002102605,-5.370539e-05,9,1
-0.0002024813,-5.419158e-05,9,1
-0.0002138259,-6.0188e-05,9,1
-0.0002420253,-7.33153e-05,9,1
-0.0002796244,-9.017008e-05,9,1
-0.0003201407,-0.0001058904,9,1
-0.0003507711,-0.0001149661,9,1
-0.0003596847,-0.0001126972,9,1
-0.0003442885,-0.0001011905,9,1
-0.0003138202,-8.320128e-05,9,1
-0.0002778417,-6.342931e-05,9,1
-0.0002418632,-4.495386e-05,9,1
-0.0002071812,-2.826114e-05,9,1
-0.0001715269,-1.529591e-05,9,1
-0.0001311726,-5.247859e-06,9,1
-8.303922e-05,4.313994e-06,9,1
-3.21507e-05,1.468618e-05,9,1
1.355172e-05,2.76514e-05,9,1
4.385793e-05,3.786152e-05,9,1
4.77475e-05,3.705119e-05,9,1
2.262738e-05,1.9224e-05,9,1
-2.031993e-05,-1.075808e-05,9,1
-6.407757e-05,-3.863332e-05,9,1
-9.713889e-05,-4.90055e-05,9,1
-0.0001177212,-3.668853e-05,9,1
-0.0001238797,-7.516774e-06,9,1
-0.0001212866,3.154097e-05,9,1
-0.0001193418,6.914012e-05,9,1
-0.000122259,0.0001020394,9,1
-0.0001208004,0.0001316974,9,1
-0.0001041077,0.0001616794,9,1
-6.537409e-05,0.0001913374,9,1
-1.075808e-05,0.0002211574,9,1
4.175109e-05,0.0002472499,9,1
7.6271e-05,0.0002658874,9,1
8.631905e-05,0.0002791768,9,1
7.594687e-05,0.0002892249,9,1
5.358185e-05,0.000299597,9,1
2.846173e-05,0.0003085106,9,1
8.203562e-06,0.000309483,9,1
-4.113403e-06,0.000299435,9,1
-1.578211e-05,0.0002775562,9,1
-3.296103e-05,0.0002459534,9,1
-5.59743e-05,0.0002107852,9,1
-7.931171e-05,0.0001756171,9,1
-9.584238e-05,0.0001423936,9,1
-0.0001016767,0.0001101427,9,1
-9.681477e-05,7.57848e-05,9,1
-8.563225e-05,3.883391e-05,9,1
-6.926366e-05,4.244267e-07,9,1
-4.722278e-05,-3.474375e-05,9,1
-1.67545e-05,-6.148453e-05,9,1
1.792748e-05,-7.882551e-05,9,1
4.888196e-05,-9.211487e-05,9,1
7.708133e-05,-0.0001086455,9,1
0.000105929,-0.0001352242,9,1
0.0001380179,-0.0001708786,9,1
0.0001673517,-0.0002123673,9,1
0.0001824238,-0.0002546664,9,1
0.0001801549,-0.000290969,9,1
0.0001645966,-0.0003128478,9,1
0.0001469315,-0.0003164132,9,1
0.0001375317,-0.0003011791,9,1
0.0001415833,-0.0002695764,9,1
0.0001634622,-0.0002284118,9,1
0.0002073819,-0.0001878955,9,1
0.0002644289,-0.0001536997,9,1
0.0003171001,-0.0001235555,9,1
0.0003462718,-9.405965e-05,9,1
0.0003404375,-6.423963e-05,9,1
0.0003025142,-3.863332e-05,9,1
0.0002448189,-2.015787e-05,9,1
0.00018291,-6.058186e-06,9,1
0.0001261871,8.527692e-06,9,1
7.789165e-05,2.862379e-05,9,1
3.786152e-05,5.455425e-05,9,1
-8.720959e-07,8.275361e-05,9,1
-4.544006e-05,0.0001056048,9,1
-9.276313e-05,0.0001219734,9,1
-0.0001384655,0.0001339663,9,1
-0.0001736337,0.0001412592,9,1
-0.0001932436,0.000140773,9,1
-0.0001964849,0.0001300767,9,1
-0.0001859507,0.0001124116,9,1
-0.0001665028,9.134307e-05,9,1
-0.0001475412,7.043665e-05,9,1
-0.0001308485,5.293359e-05,9,1
-0.0001084835,4.077869e-05,9,1
-6.602235e-05,3.413401e-05,9,1
1.144487e-05,3.13789e-05,9,1
0.000123432,2.76514e-05,9,1
0.000249843,1.727922e-05,9,1
0.000359075,-6.176923e-08,9,1
0.0004298976,-1.853722e-05,9,1
0.0004590694,-2.631635e-05,9,1
0.0004519385,-1.67545e-05,9,1
0.0004175806,7.555301e-06,9,1
0.0003730126,4.077869e-05,9,1
0.0003329825,7.465034e-05,9,1
0.0003041349,0.0001033359,9,1
0.0002906835,0.0001193804,9,1
0.0002944109,0.0001192183,9,1
0.0003065659,0.0001086841,9,1
0.0003089969,9.847395e-05,9,1
0.0002876042,9.426025e-05,9,1
0.0002380122,9.247754e-05,9,1
0.0001647587,9.296373e-05,9,1
7.367795e-05,9.701536e-05,9,1
-2.874733e-05,0.0001062531,9,1
-0.0001318209,0.0001182459,9,1
-0.0002201465,0.0001305629,9,1
-0.0002770314,0.00013818,9,1
-0.0002951827,0.0001388282,9,1
-0.0002796244,0.0001351007,9,1
-0.0002352185,0.0001286181,9,1
-0.0001712027,0.0001211631,9,1
-9.29252e-05,0.0001148425,9,1
-4.437533e-06,0.0001104668,9,1
8.226741e-05,0.0001052807,9,1
0.0001501728,0.0001017153,9,1
0.0001840444,0.0001031738,9,1
