EMG1,EMG2,class,user
1.776542e-05,-0.0002690902,9,1
1.760335e-05,-0.0002543422,9,1
2.133085e-05,-0.0002392702,9,1
1.954813e-05,-0.0002259808,9,1
7.717366e-06,-0.0002126914,9,1
-1.62683e-05,-0.0001979435,9,1
-5.208474e-05,-0.0001791439,9,1
-9.519411e-05,-0.0001559686,9,1
-0.0001358725,-0.0001310105,9,1
-0.0001671511,-0.0001060525,9,1
-0.0001887058,-7.979791e-05,9,1
-0.0002021572,-5.192267e-05,9,1
-0.0002050744,-1.886135e-05,9,1
-0.000201509,2.34377e-05,9,1
-0.0001998883,7.238143e-05,9,1
-0.0002053985,0.0001185701,9,1
-0.0002118811,0.0001519555,9,1
-0.0002049123,0.0001636242,9,1
-0.0001671511,0.0001568175,9,1
-9.114248e-05,0.0001398006,9,1
1.744129e-05,0.0001224596,9,1
0.0001422316,0.0001112771,9,1
0.0002574601,0.0001099806,9,1
0.0003370341,0.0001185701,9,1
0.0003649094,0.0001316974,9,1
0.0003435168,0.0001396385,9,1
0.0002910076,0.0001398006,9,1
0.0002415777,0.0001316974,9,1
0.0002243987,0.0001163011,9,1
0.0002491947,9.507057e-05,9,1
0.000304297,6.897806e-05,9,1
0.0003645853,4.223728e-05,9,1
0.0004034809,1.97102e-05,9,1
0.0004054258,2.693341e-06,9,1
0.0003733368,-1.059602e-05,9,1
0.0003230965,-2.0482e-05,9,1
0.0002720459,-2.46957e-05,9,1
0.0002389846,-1.805102e-05,9,1
0.0002308813,4.244267e-07,9,1
0.0002386605,2.992031e-05,9,1
0.0002466017,6.087479e-05,9,1
0.0002389846,8.502253e-05,9,1
0.0002137024,9.669123e-05,9,1
0.0001767515,9.717743e-05,9,1
0.0001349386,9.004655e-05,9,1
9.669123e-05,8.161915e-05,9,1
6.200925e-05,7.740546e-05,9,1
2.959619e-05,7.870197e-05,9,1
-1.034161e-06,8.129502e-05,9,1
-2.631635e-05,8.161915e-05,9,1
-4.462973e-05,8.388807e-05,9,1
-4.965376e-05,9.101894e-05,9,1
-4.236082e-05,0.0001031738,9,1
-3.522994e-05,0.0001175977,9,1
-4.398147e-05,0.000128294,9,1
-7.039812e-05,0.0001338042,9,1
-0.0001024871,0.0001363972,9,1
-0.0001266348,0.0001368834,9,1
-0.0001355484,0.0001370455,9,1
-0.0001293899,0.0001360731,9,1
-0.0001112386,0.0001326697,9,1
-8.919769e-05,0.0001274836,9,1
-7.33153e-05,0.0001237561,9,1
-7.218083e-05,0.0001211631,9,1
-8.125649e-05,0.0001226217,9,1
-8.919769e-05,0.0001297526,9,1
-8.352541e-05,0.0001417454,9,1
-6.359137e-05,0.0001550348,9,1
-3.798505e-05,0.0001668655,9,1
-1.821308e-05,0.0001752929,9,1
-6.868513e-06,0.0001837203,9,1
2.207145e-06,0.0001913374,9,1
1.54965e-05,0.0001970097,9,1
3.332369e-05,0.0002008992,9,1
5.228533e-05,0.0002033302,9,1
6.638502e-05,0.0002043026,9,1
6.719535e-05,0.000202682,9,1
5.893001e-05,0.0001945787,9,1
5.017848e-05,0.0001817755,9,1
4.888196e-05,0.0001657311,9,1
6.184718e-05,0.0001503349,9,1
8.583286e-05,0.0001352628,9,1
0.0001180839,0.0001221355,9,1
0.000153252,0.0001117633,9,1
0.0001863134,0.0001072255,9,1
0.000215161,0.0001072255,9,1
0.0002307193,0.0001083599,9,1
0.0002219677,0.0001078737,9,1
0.0001840444,0.0001028497,9,1
0.0001221355,9.199134e-05,9,1
4.855783e-05,7.708133e-05,9,1
-2.437157e-05,6.184718e-05,9,1
-9.114248e-05,4.564065e-05,9,1
-0.0001486757,2.651694e-05,9,1
-0.0001985918,4.962256e-06,9,1
-0.0002394322,-1.545797e-05,9,1
-0.0002699005,-3.441962e-05,9,1
-0.0002820554,-5.078821e-05,9,1
-0.0002690902,-6.472583e-05,9,1
-0.0002326255,-7.347736e-05,9,1
-0.0001786577,-7.509801e-05,9,1
-0.0001208004,-7.153257e-05,9,1
-7.315322e-05,-6.942573e-05,9,1
-4.414354e-05,-7.315322e-05,9,1
-3.766092e-05,-8.482193e-05,9,1
-5.824322e-05,-0.0001024871,9,1
-0.0001107524,-0.000127283,9,1
-0.0001968091,-0.0001522411,9,1
-0.0003073376,-0.0001697442,9,1
-0.0004232143,-0.0001750923,9,1
-0.0005256396,-0.0001712027,9,1
-0.0006000275,-0.0001640719,9,1
-0.0006337371,-0.0001588858,9,1
-0.0006249856,-0.0001564548,9,1
-0.0005802555,-0.0001536997,9,1
-0.0005134846,-0.0001489998,9,1
-0.0004429862,-0.0001407345,9,1
-0.0003823738,-0.000132145,9,1
-0.0003363473,-0.0001269589,9,1
-0.0003057169,-0.0001284175,9,1
-0.0002922655,-0.0001350622,9,1
-0.0002901587,-0.0001426792,9,1
-0.0002758969,-0.0001459206,9,1
-0.0002196603,-0.0001404103,9,1
-9.730096e-05,-0.0001258245,9,1
8.858796e-05,-0.000104918,9,1
0.0003051073,-8.271508e-05,9,1
0.0005135234,-6.731888e-05,9,1
0.0006877437,-5.970181e-05,9,1
0.0008154513,-5.678463e-05,9,1
0.0008950254,-5.629844e-05,9,1
0.0009297074,-5.872941e-05,9,1
0.0009355418,-6.310517e-05,9,1
0.0009376486,-7.056019e-05,9,1
0.0009642274,-8.093236e-05,9,1
0.001029702,-9.179074e-05,9,1
0.001120459,-9.794922e-05,9,1
0.001206839,-9.422172e-05,9,1
0.001263238,-7.866345e-05,9,1
0.001275231,-5.710876e-05,9,1
0.001248166,-3.458168e-05,9,1
0.00119193,-1.464765e-05,9,1
0.001117541,2.693341e-06,9,1
0.001024678,1.906194e-05,9,1
0.0009099355,3.413401e-05,9,1
0.0007686144,4.758544e-05,9,1
0.0005973112,5.828175e-05,9,1
0.0004083429,6.719535e-05,9,1
0.000220185,7.513654e-05,9,1
5.374392e-05,8.323981e-05,9,1
-7.428769e-05,9.101894e-05,9,1
-0.0001648822,9.604298e-05,9,1
-0.0002326255,9.831188e-05,9,1
-0.0002980999,9.750156e-05,9,1
-0.0003689224,9.458438e-05,9,1
-0.0004369898,9.442231e-05,9,1
-0.0004828543,9.814982e-05,9,1
-0.0004979264,0.0001025256,9,1
-0.0004791268,0.0001049566,9,1
-0.0004353692,0.0001038221,9,1
-0.0003839945,9.879808e-05,9,1
-0.000335537,9.085688e-05,9,1
-0.0002882139,8.032264e-05,9,1
-0.0002321393,6.638502e-05,9,1
-0.0001656925,5.293359e-05,9,1
-0.0001052422,4.369587e-05,9,1
-7.639453e-05,4.013043e-05,9,1
-9.632857e-05,4.402e-05,9,1
-0.0001613168,5.115087e-05,9,1
-0.0002527216,5.293359e-05,9,1
-0.0003497987,4.466826e-05,9,1
-0.0004389346,2.76514e-05,9,1
-0.0005113778,5.772582e-06,9,1
-0.00056648,-1.399939e-05,9,1
-0.0006068342,-2.745081e-05,9,1
-0.0006324406,-3.053005e-05,9,1
-0.0006369784,-2.323711e-05,9,1
-0.0006204477,-7.678839e-06,9,1
-0.0005875485,8.689758e-06,9,1
-0.0005486528,1.727922e-05,9,1
-0.0005133225,1.22552e-05,9,1
-0.0004877163,-3.14101e-06,9,1
-0.00047232,-2.291298e-05,9,1
-0.0004637306,-3.944364e-05,9,1
-0.0004575721,-4.560212e-05,9,1
-0.0004543308,-4.106429e-05,9,1
-0.0004518998,-3.377136e-05,9,1
-0.0004478482,-2.923353e-05,9,1
-0.0004358554,-2.696461e-05,9,1
-0.0004159214,-2.566809e-05,9,1
-0.0003925839,-2.599222e-05,9,1
-0.0003674638,-2.971972e-05,9,1
-0.0003421817,-3.247483e-05,9,1
-0.0003091203,-3.117831e-05,9,1
-0.0002640662,-2.647842e-05,9,1
-0.0002118811,-2.015787e-05,9,1
-0.0001660166,-1.497178e-05,9,1
-0.0001389517,-9.461558e-06,9,1
-0.0001378173,-5.409925e-06,9,1
-0.000159534,-5.734056e-06,9,1
-0.0001959987,-9.947754e-06,9,1
-0.0002342462,-1.772689e-05,9,1
-0.0002626076,-2.46957e-05,9,1
-0.000276221,-2.647842e-05,9,1
-0.0002744383,-2.356124e-05,9,1
-0.0002585559,-1.918548e-05,9,1
-0.0002326255,-1.594417e-05,9,1
-0.0001989159,-1.464765e-05,9,1
-0.0001536997,-1.108221e-05,9,1
-0.0001005423,-3.627206e-06,9,1
-4.997789e-05,5.610517e-06,9,1
-1.010982e-05,1.031041e-05,9,1
1.808955e-05,8.203562e-06,9,1
4.418206e-05,9.106227e-07,9,1
7.367795e-05,-8.165035e-06,9,1
0.000108522,-1.545797e-05,9,1
0.000145797,-2.0482e-05,9,1
0.0001864754,-1.869928e-05,9,1
0.0002323399,-7.516774e-06,9,1
0.0002843629,6.420843e-06,9,1
0.0003404375,1.889987e-05,9,1
0.0003981328,2.505836e-05,9,1
0.0004525868,2.359977e-05,9,1
0.0004926169,1.97102e-05,9,1
0.0005183853,2.068259e-05,9,1
0.0005470709,3.105477e-05,9,1
0.0005971491,4.790957e-05,9,1
0.0006642442,6.541262e-05,9,1
0.0007180499,7.886404e-05,9,1
0.0007269635,8.664318e-05,9,1
0.0006848265,8.664318e-05,9,1
0.0006080075,8.080883e-05,9,1
0.0005261644,7.270556e-05,9,1
0.000467983,6.638502e-05,9,1
0.0004456179,6.476436e-05,9,1
0.0004498317,6.881599e-05,9,1
0.0004550177,7.400208e-05,9,1
0.0004423766,7.837785e-05,9,1
0.0004021844,7.870197e-05,9,1
0.000336548,7.416415e-05,9,1
0.0002595669,6.946425e-05,9,1
0.000190365,6.816773e-05,9,1
0.0001423936,7.076078e-05,9,1
0.0001187321,7.870197e-05,9,1
0.0001106288,9.069481e-05,9,1
0.0001038221,0.0001046324,9,1
9.069481e-05,0.0001154908,9,1
7.20573e-05,0.0001192183,9,1
5.358185e-05,0.0001154908,9,1
4.158902e-05,0.0001065772,9,1
3.55926e-05,9.879808e-05,9,1
3.073064e-05,9.750156e-05,9,1
1.987227e-05,0.0001015532,9,1
-2.330684e-06,0.0001065772,9,1
-3.701266e-05,0.0001025256,9,1
-7.736692e-05,8.79397e-05,9,1
-0.0001157764,6.687121e-05,9,1
-0.0001535376,4.369587e-05,9,1
-0.0001903264,2.376183e-05,9,1
-0.0002219292,1.047248e-05,9,1
-0.0002454286,2.369211e-06,9,1
-0.0002582318,-4.761664e-06,9,1
-0.0002603387,-1.399939e-05,9,1
-0.0002540181,-2.566809e-05,9,1
-0.0002399184,-3.701266e-05,9,1
-0.0002230636,-4.138842e-05,9,1
-0.0002028055,-3.830919e-05,9,1
-0.000176875,-3.166451e-05,9,1
-0.0001438137,-2.404744e-05,9,1
-0.0001036215,-1.788895e-05,9,1
-5.581224e-05,-1.545797e-05,9,1
-3.465141e-06,-2.031993e-05,9,1
4.82337e-05,-3.166451e-05,9,1
9.199134e-05,-4.47918e-05,9,1
0.0001195424,-5.435365e-05,9,1
0.0001312112,-5.69467e-05,9,1
0.0001380179,-5.338126e-05,9,1
0.0001500107,-4.85193e-05,9,1
0.0001694586,-4.641245e-05,9,1
0.000192796,-4.916756e-05,9,1
0.0002049509,-5.354332e-05,9,1
0.0001966855,-5.64605e-05,9,1
0.0001735102,-5.370539e-05,9,1
0.0001493625,-4.85193e-05,9,1
0.0001271595,-4.495386e-05,9,1
0.0001007429,-4.689865e-05,9,1
6.816773e-05,-5.159854e-05,9,1
2.781346e-05,-5.500191e-05,9,1
-1.513384e-05,-5.435365e-05,9,1
-5.402952e-05,-4.916756e-05,9,1
-7.850138e-05,-3.928157e-05,9,1
-7.639453e-05,-2.599222e-05,9,1
-4.495386e-05,-1.20546e-05,9,1
7.23117e-06,4.47606e-06,9,1
6.589881e-05,2.165498e-05,9,1
0.0001116012,3.688912e-05,9,1
0.000133318,4.709924e-05,9,1
0.0001326697,4.871989e-05,9,1
0.0001154908,4.45062e-05,9,1
8.615699e-05,4.013043e-05,9,1
4.499239e-05,4.110282e-05,9,1
-6.220252e-06,4.936815e-05,9,1
-5.872941e-05,6.200925e-05,9,1
-0.000104756,7.416415e-05,9,1
-0.0001374932,8.405014e-05,9,1
-0.0001477033,8.939829e-05,9,1
-0.0001327933,9.490851e-05,9,1
-9.908367e-05,0.0001051186,9,1
-4.706071e-05,0.0001179218,9,1
1.614476e-05,0.0001286181,9,1
7.52986e-05,0.000135749,9,1
0.0001143563,0.0001370455,9,1
0.0001247285,0.0001346145,9,1
0.0001073875,0.0001328318,9,1
7.465034e-05,0.0001313732,9,1
4.013043e-05,0.0001297526,9,1
1.257933e-05,0.0001268354,9,1
-7.516774e-06,0.0001221355,9,1
-2.388537e-05,0.0001125736,9,1
-3.782299e-05,0.0001005808,9,1
-4.560212e-05,9.134307e-05,9,1
-4.236082e-05,8.696731e-05,9,1
-2.680255e-05,8.696731e-05,9,1
-2.81688e-06,8.631905e-05,9,1
2.570662e-05,8.405014e-05,9,1
5.1475e-05,7.837785e-05,9,1
6.735741e-05,6.978839e-05,9,1
6.427817e-05,5.682316e-05,9,1
4.223728e-05,4.288554e-05,9,1
6.258778e-06,3.235129e-05,9,1
-3.652646e-05,2.781346e-05,9,1
-8.368748e-05,2.586868e-05,9,1
-0.0001340898,2.262738e-05,9,1
-0.0001812508,1.679302e-05,9,1
-0.000216581,1.095867e-05,9,1
-0.0002371633,9.66215e-06,9,1
-0.0002473734,1.468618e-05,9,1
-0.0002451045,2.084466e-05,9,1
-0.0002245222,2.214118e-05,9,1
-0.0001901644,1.744129e-05,9,1
-0.0001525652,1.1769e-05,9,1
-0.000122259,8.365628e-06,9,1
-0.0001005423,5.610517e-06,9,1
-8.692878e-05,-3.858999e-07,9,1
-8.579432e-05,-1.124428e-05,9,1
-0.0001003802,-2.242678e-05,9,1
-0.0001259865,-3.101625e-05,9,1
-0.0001514308,-3.63644e-05,9,1
-0.0001585616,-3.944364e-05,9,1
-0.0001374932,-4.122636e-05,9,1
-9.470791e-05,-4.300908e-05,9,1
-4.965376e-05,-4.754691e-05,9,1
-2.0482e-05,-5.435365e-05,9,1
-1.156841e-05,-6.051213e-05,9,1
-1.335113e-05,-6.456377e-05,9,1
-1.788895e-05,-6.634648e-05,9,1
-2.404744e-05,-6.650855e-05,9,1
-3.069211e-05,-6.359137e-05,9,1
-3.21507e-05,-6.06742e-05,9,1
-2.09682e-05,-6.197072e-05,9,1
1.883015e-06,-6.764301e-05,9,1
2.748934e-05,-7.137051e-05,9,1
4.45062e-05,-6.974985e-05,9,1
4.77475e-05,-6.423963e-05,9,1
3.883391e-05,-5.662256e-05,9,1
2.327564e-05,-4.932962e-05,9,1
7.717366e-06,-4.349527e-05,9,1
-6.868513e-06,-3.879538e-05,9,1
-1.967167e-05,-3.296103e-05,9,1
-2.971972e-05,-2.501983e-05,9,1
-3.766092e-05,-1.691656e-05,9,1
-4.252288e-05,-1.237873e-05,9,1
-4.05781e-05,-1.124428e-05,9,1
-2.42095e-05,-1.270286e-05,9,1
4.80019e-06,-1.707863e-05,9,1
4.158902e-05,-1.918548e-05,9,1
8.178122e-05,-1.67545e-05,9,1
0.0001188942,-8.975362e-06,9,1
0.000145797,3.503668e-06,9,1
0.0001587623,2.133085e-05,9,1
0.0001598967,3.850978e-05,9,1
0.0001545486,4.920609e-05,9,1
0.0001443384,5.082674e-05,9,1
0.000135749,4.758544e-05,9,1
0.000135749,4.45062e-05,9,1
0.0001526038,4.564065e-05,9,1
0.0001906891,5.423012e-05,9,1
0.0002410915,6.930219e-05,9,1
0.0002842008,8.372601e-05,9,1
0.000299597,9.409818e-05,9,1
0.0002811216,9.831188e-05,9,1
0.000230071,9.814982e-05,9,1
0.000158114,9.63671e-05,9,1
8.46984e-05,9.717743e-05,9,1
1.808955e-05,0.0001033359,9,1
-3.814712e-05,0.0001150046,9,1
-8.222889e-05,0.0001252147,9,1
-0.0001096179,0.0001271595,9,1
-0.0001175591,0.0001214872,9,1
-9.859748e-05,0.0001124116,9,1
-5.030202e-05,0.0001015532,9,1
2.716521e-05,9.037068e-05,9,1
0.0001193804,8.064677e-05,9,1
0.0002060853,7.076078e-05,9,1
0.0002660495,5.795762e-05,9,1
0.0002833905,4.239934e-05,9,1
0.0002621599,2.943412e-05,9,1
0.0002174299,2.327564e-05,9,1
0.0001637863,2.068259e-05,9,1
0.0001154908,1.59827e-05,9,1
8.356394e-05,1.095867e-05,9,1
6.622294e-05,6.420843e-06,9,1
5.471631e-05,3.017472e-06,9,1
4.434413e-05,-1.844488e-06,9,1
3.18651e-05,-9.623623e-06,9,1
1.987227e-05,-1.788895e-05,9,1
6.90704e-06,-2.404744e-05,9,1
-7.354709e-06,-2.728874e-05,9,1
-2.7937e-05,-3.117831e-05,9,1
-5.743289e-05,-3.749886e-05,9,1
-9.19528e-05,-4.657452e-05,9,1
-0.0001316588,-6.0188e-05,9,1
-0.0001754164,-7.817725e-05,9,1
-0.0002178775,-9.616651e-05,9,1
-0.0002478596,-0.0001065387,9,1
-0.0002621213,-0.0001067007,9,1
-0.0002632558,-9.908367e-05,9,1
-0.0002566112,-9.146661e-05,9,1
-0.0002481838,-9.049421e-05,9,1
-0.0002429977,-9.681477e-05,9,1
-0.000246401,-0.0001076731,9,1
-0.000253694,-0.0001173971,9,1
-0.0002502906,-0.0001224211,9,1
-0.0002277635,-0.0001201522,9,1
-0.0001836818,-0.0001092938,9,1
-0.0001183694,-8.741498e-05,9,1
-3.425755e-05,-5.419158e-05,9,1
5.633696e-05,-1.237873e-05,9,1
0.000135911,3.202716e-05,9,1
0.000190365,6.800567e-05,9,1
0.000217754,8.680524e-05,9,1
0.0002258573,8.712937e-05,9,1
0.000225047,7.886404e-05,9,1
0.0002229401,7.043665e-05,9,1
0.0002190506,6.622294e-05,9,1
0.0002159713,6.281957e-05,9,1
0.0002135403,5.779555e-05,9,1
0.0002083542,5.001642e-05,9,1
0.0001960373,4.272347e-05,9,1
0.0001785342,3.624086e-05,9,1
0.0001649207,2.651694e-05,9,1
0.0001624898,1.338965e-05,9,1
0.0001702689,-2.330684e-06,9,1
0.0001777239,-1.562004e-05,9,1
0.0001748067,-2.356124e-05,9,1
0.0001595726,-2.518189e-05,9,1
0.0001378558,-2.080613e-05,9,1
0.0001145184,-8.651231e-06,9,1
9.004655e-05,8.041497e-06,9,1
6.379197e-05,2.570662e-05,9,1
3.380988e-05,3.964424e-05,9,1
-1.034161e-06,5.179914e-05,9,1
-3.766092e-05,6.46023e-05,9,1
-7.137051e-05,7.740546e-05,9,1
-9.794922e-05,8.761557e-05,9,1
-0.0001167488,9.717743e-05,9,1
-0.0001224211,0.00010366,9,1
-0.000119666,0.0001073875,9,1
-0.0001110765,0.0001038221,9,1
-0.0001031353,9.393612e-05,9,1
-0.0001036215,7.886404e-05,9,1
-0.000112211,6.314371e-05,9,1
-0.0001211246,5.390598e-05,9,1
-0.0001209625,5.552663e-05,9,1
-0.000104918,6.508849e-05,9,1
-7.60704e-05,7.513654e-05,9,1
-3.571614e-05,7.643307e-05,9,1
1.873781e-05,6.946425e-05,9,1
8.858796e-05,6.184718e-05,9,1
0.0001699448,5.844381e-05,9,1
0.0002513016,6.184718e-05,9,1
0.0003174242,7.270556e-05,9,1
0.0003451374,8.729144e-05,9,1
0.0003219621,0.0001000946,9,1
0.0002542187,0.0001062531,9,1
0.000163138,0.0001073875,9,1
7.270556e-05,0.0001054428,9,1
-2.978945e-06,9.977047e-05,9,1
-5.986387e-05,8.648112e-05,9,1
-9.908367e-05,7.011252e-05,9,1
-0.0001248521,5.714729e-05,9,1
-0.0001436516,5.034055e-05,9,1
-0.0001622891,4.985435e-05,9,1
-0.0001783336,5.293359e-05,9,1
-0.0001921092,5.374392e-05,9,1
-0.0002023193,4.920609e-05,9,1
-0.000206695,3.996837e-05,9,1
-0.0002055606,2.975825e-05,9,1
-0.0002018331,2.116879e-05,9,1
-0.0001924333,1.468618e-05,9,1
-0.0001734716,6.420843e-06,9,1
-0.0001417068,-7.030578e-06,9,1
-0.0001007043,-2.42095e-05,9,1
-6.180866e-05,-3.928157e-05,9,1
-3.668853e-05,-4.965376e-05,9,1
-3.004385e-05,-5.305713e-05,9,1
-4.05781e-05,-5.159854e-05,9,1
-6.261898e-05,-4.511593e-05,9,1
-9.211487e-05,-3.587821e-05,9,1
-0.0001279313,-2.664048e-05,9,1
-0.0001639098,-1.886135e-05,9,1
-0.0001878955,-1.772689e-05,9,1
-0.0001904885,-2.161646e-05,9,1
-0.0001736337,-2.809907e-05,9,1
-0.0001439758,-3.911951e-05,9,1
-0.0001110765,-5.629844e-05,9,1
-9.065628e-05,-7.671866e-05,9,1
-9.389759e-05,-9.308726e-05,9,1
-0.0001242038,-9.811128e-05,9,1
-0.0001773612,-9.211487e-05,9,1
-0.0002442942,-8.044617e-05,9,1
-0.0003097686,-6.796714e-05,9,1
-0.0003541745,-5.743289e-05,9,1
-0.0003609812,-4.47918e-05,9,1
-0.0003305129,-2.388537e-05,9,1
-0.0002857829,5.934648e-06,9,1
-0.0002566112,3.93201e-05,9,1
-0.0002632558,7.059871e-05,9,1
-0.0003049066,9.26396e-05,9,1
-0.0003595226,0.0001022015,9,1
-0.000400201,0.0001004187,9,1
-0.0004032803,9.069481e-05,9,1
-0.0003608192,7.448828e-05,9,1
-0.0002767073,5.390598e-05,9,1
-0.0001549962,3.283749e-05,9,1
-7.354709e-06,1.12828e-05,9,1
0.0001477418,-8.813297e-06,9,1
0.0002916559,-2.745081e-05,9,1
0.0004146635,-5.516398e-05,9,1
0.0005157923,-9.746302e-05,9,1
0.0006062248,-0.0001525652,9,1
0.0007000606,-0.0002029675,9,1
0.0008136685,-0.0002331117,9,1
0.0009603378,-0.0002347323,9,1
0.00113861,-0.0002128535,9,1
0.001328713,-0.0001765509,9,1
0.001500989,-0.0001313347,9,1
0.001625131,-7.574627e-05,9,1
0.001674237,-1.416145e-05,9,1
0.001637286,4.920609e-05,9,1
0.001525947,0.0001088461,9,1
0.001362909,0.000158114,9,1
0.001174588,0.0001916615,9,1
0.0009792994,0.0002065715,9,1
0.0007896828,0.0002021958,9,1
0.000609466,0.0001864754,9,1
0.0004427008,0.0001647587,9,1
0.0002890628,0.0001367214,9,1
0.0001485521,0.0001054428,9,1
2.003433e-05,7.286763e-05,9,1
-9.405965e-05,4.094075e-05,9,1
-0.0001929195,7.393236e-06,9,1
-0.0002789762,-2.42095e-05,9,1
-0.0003528779,-4.625038e-05,9,1
-0.0004117076,-5.386745e-05,9,1
-0.0004553032,-4.689865e-05,9,1
-0.0004869059,-3.085418e-05,9,1
-0.0005055434,-9.461558e-06,9,1
-0.0005057055,1.095867e-05,9,1
-0.0004882024,2.781346e-05,9,1
-0.0004690787,3.996837e-05,9,1
-0.0004719959,4.807163e-05,9,1
-0.0005027883,5.341979e-05,9,1
-0.0005504355,5.666109e-05,9,1
-0.0005956517,6.217132e-05,9,1
-0.0006196374,7.092284e-05,9,1
-0.0006147755,7.967438e-05,9,1
-0.0005906277,8.567078e-05,9,1
-0.0005646973,8.826383e-05,9,1
-0.0005499493,8.664318e-05,9,1
-0.0005475183,8.323981e-05,9,1
-0.0005481666,7.853991e-05,9,1
-0.0005377944,7.157111e-05,9,1
-0.000511864,6.03886e-05,9,1
-0.0004873921,4.418206e-05,9,1
-0.0004860956,2.359977e-05,9,1
-0.0005125122,1.002961e-07,9,1
-0.0005551354,-2.177852e-05,9,1
-0.0005940311,-3.895745e-05,9,1
-0.0006102377,-5.127441e-05,9,1
-0.0005946793,-5.759496e-05,9,1
-0.0005523803,-5.451572e-05,9,1
-0.0004964678,-3.458168e-05,9,1
-0.0004387725,8.689758e-06,9,1
-0.0003896668,6.816773e-05,9,1
-0.0003519055,0.0001302388,9,1
-0.0003251648,0.000177886,9,1
-0.0003070135,0.0002008992,9,1
-0.0002980999,0.00019782,9,1
-0.0002971275,0.0001720516,9,1
-0.0002968033,0.000130725,9,1
-0.0002912931,8.016057e-05,9,1
-0.0002752487,2.878586e-05,9,1
-0.0002436459,-2.031993e-05,9,1
-0.0002013469,-6.861539e-05,9,1
-0.0001592099,-0.0001138316,9,1
-0.0001251762,-0.0001504584,9,1
-0.0001011905,-0.0001763888,9,1
-8.012204e-05,-0.0001903264,9,1
-5.840528e-05,-0.0001940539,9,1
-3.506788e-05,-0.0001903264,9,1
-1.367526e-05,-0.000176713,9,1
5.772582e-06,-0.0001538618,9,1
2.76514e-05,-0.0001318209,9,1
5.747142e-05,-0.0001193418,9,1
0.0001081979,-0.0001185315,9,1
0.0001910133,-0.0001235555,9,1
0.0003055935,-0.0001256624,9,1
0.0004279528,-0.0001177212,9,1
0.0005269747,-9.843541e-05,9,1
0.0005879114,-7.153257e-05,9,1
0.0006208107,-3.766092e-05,9,1
0.0006399344,3.503668e-06,9,1
0.0006530617,5.034055e-05,9,1
0.0006575995,0.0001018773,9,1
0.0006486859,0.0001488763,9,1
0.0006224313,0.0001827479,9,1
0.0005760806,0.0002017096,9,1
0.0005093097,0.0002107852,9,1
0.0004277907,0.0002085163,9,1
0.0003425444,0.0001944166,9,1
0.0002603772,0.0001756171,9,1
0.0001830721,0.0001626518,9,1
0.0001154908,0.0001592484,9,1
6.800567e-05,0.0001636242,9,1
5.439218e-05,0.0001749688,9,1
7.999851e-05,0.0001936063,9,1
0.0001378558,0.0002133783,9,1
0.0002086784,0.0002258573,9,1
0.0002686426,0.0002297469,9,1
0.000294573,0.0002253711,9,1
0.0002793389,0.0002146748,9,1
0.0002316917,0.0001986303,9,1
0.0001697827,0.0001822617,9,1
0.0001114392,0.0001694586,9,1
6.638502e-05,0.0001603829,9,1
3.93201e-05,0.00015309,9,1
3.170304e-05,0.0001425557,9,1
3.624086e-05,0.0001286181,9,1
4.418206e-05,0.000111115,9,1
5.115087e-05,9.150514e-05,9,1
5.19612e-05,6.962632e-05,9,1
4.547859e-05,4.531652e-05,9,1
3.13789e-05,2.01964e-05,9,1
1.241726e-05,-3.627206e-06,9,1
-8.813297e-06,-2.388537e-05,9,1
-3.085418e-05,-3.620233e-05,9,1
-5.451572e-05,-4.187462e-05,9,1
-8.206682e-05,-4.317115e-05,9,1
-0.0001136696,-4.236082e-05,9,1
-0.0001527273,-4.090223e-05,9,1
-0.0001948643,-3.960571e-05,9,1
-0.0002297083,-3.911951e-05,9,1
-0.0002519113,-4.268495e-05,9,1
-0.0002632558,-5.289507e-05,9,1
-0.0002624455,-6.81292e-05,9,1
-0.0002498044,-8.514606e-05,9,1
-0.0002321393,-9.843541e-05,9,1
-0.0002144742,-0.0001060525,9,1
-0.0001995642,-0.0001039456,9,1
-0.0001896782,-9.29252e-05,9,1
-0.0001783336,-7.963584e-05,9,1
-0.000151917,-7.169464e-05,9,1
-9.649064e-05,-7.153257e-05,9,1
-9.461558e-06,-7.65566e-05,9,1
9.490851e-05,-8.239095e-05,9,1
0.0001905271,-8.709085e-05,9,1
0.0002584324,-8.871149e-05,9,1
0.0002958695,-8.757704e-05,9,1
0.0003132105,-8.660465e-05,9,1
0.0003229345,-8.482193e-05,9,1
0.0003261758,-7.769106e-05,9,1
0.0003117519,-6.667062e-05,9,1
0.0002707494,-5.662256e-05,9,1
0.0002039785,-5.257093e-05,9,1
0.0001200286,-5.289507e-05,9,1
3.478228e-05,-5.483985e-05,9,1
-3.069211e-05,-5.678463e-05,9,1
-6.375344e-05,-5.953974e-05,9,1
-6.035007e-05,-6.245691e-05,9,1
-3.069211e-05,-6.456377e-05,9,1
2.327564e-05,-6.586029e-05,9,1
0.0001070634,-6.667062e-05,9,1
0.0002243987,-6.504996e-05,9,1
0.0003671783,-5.59743e-05,9,1
0.0005091476,-3.944364e-05,9,1
0.0006180556,-2.194059e-05,9,1
0.0006634339,-9.785688e-06,9,1
0.0006339379,-3.465141e-06,9,1
0.0005402642,4.244267e-07,9,1
0.0004098015,5.286387e-06,9,1
0.000272208,1.031041e-05,9,1
0.0001542244,1.614476e-05,9,1
7.059871e-05,2.149292e-05,9,1
2.295151e-05,2.570662e-05,9,1
7.485573e-07,2.878586e-05,9,1
-5.89612e-06,2.894792e-05,9,1
-4.761664e-06,2.522042e-05,9,1
-8.720959e-07,1.776542e-05,9,1
5.934648e-06,9.500085e-06,9,1
2.214118e-05,5.610517e-06,9,1
5.098881e-05,7.717366e-06,9,1
8.437427e-05,1.64689e-05,9,1
0.000115977,3.251336e-05,9,1
0.0001386662,5.487838e-05,9,1
0.0001467694,8.016057e-05,9,1
0.0001393144,0.0001031738,9,1
0.0001169494,0.0001192183,9,1
7.821578e-05,0.0001276457,9,1
2.149292e-05,0.0001321835,9,1
-5.338126e-05,0.0001342904,9,1
-0.0001442999,0.0001363972,9,1
-0.0002404046,0.0001362352,9,1
-0.0003246786,0.0001326697,9,1
-0.0003861013,0.0001232699,9,1
-0.0004206212,0.0001093323,9,1
-0.00042759,9.393612e-05,9,1
-0.000412518,8.275361e-05,9,1
-0.0003872358,7.90261e-05,9,1
-0.00036795,8.016057e-05,9,1
-0.0003626019,7.983644e-05,9,1
-0.0003698948,7.124698e-05,9,1
-0.0003870737,5.309566e-05,9,1
-0.0004108973,3.218923e-05,9,1
-0.0004408794,1.484824e-05,9,1
-0.0004719959,3.665733e-06,9,1
-0.0004932265,-3.627206e-06,9,1
-0.0004977643,-1.043395e-05,9,1
-0.0004919299,-1.772689e-05,9,1
-0.0004763717,-2.339918e-05,9,1
-0.0004408794,-2.858527e-05,9,1
-0.0003700569,-3.166451e-05,9,1
-0.0002601766,-2.971972e-05,9,1
-0.0001250141,-2.258885e-05,9,1
7.879432e-06,-1.367526e-05,9,1
0.000113546,-7.354709e-06,9,1
0.0001767515,-5.247859e-06,9,1
0.0002033302,-8.489166e-06,9,1
0.0002078681,-1.480971e-05,9,1
0.0002047888,-2.534396e-05,9,1
0.0002043026,-3.587821e-05,9,1
0.0002054371,-4.414354e-05,9,1
0.000195389,-4.787104e-05,9,1
0.0001569795,-4.608832e-05,9,1
8.631905e-05,-4.074016e-05,9,1
-1.682422e-06,-3.279896e-05,9,1
-8.790117e-05,-2.453363e-05,9,1
-0.0001583996,-1.788895e-05,9,1
-0.0002052365,-1.480971e-05,9,1
-0.0002337599,-1.367526e-05,9,1
-0.0002585559,-1.545797e-05,9,1
-0.0002891863,-2.129233e-05,9,1
-0.0003115513,-2.599222e-05,9,1
-0.0002992343,-2.388537e-05,9,1
-0.0002418632,-1.221667e-05,9,1
-0.0001480274,5.286387e-06,9,1
-4.171256e-05,1.889987e-05,9,1
5.228533e-05,1.906194e-05,9,1
0.0001221355,4.80019e-06,9,1
0.0001683241,-1.707863e-05,9,1
0.0001958752,-3.733679e-05,9,1
0.000207706,-4.80331e-05,9,1
0.0002051129,-4.932962e-05,9,1
0.0001910133,-4.495386e-05,9,1
0.0001668655,-3.587821e-05,9,1
0.0001326697,-2.453363e-05,9,1
9.053275e-05,-1.432352e-05,9,1
5.034055e-05,-5.409925e-06,9,1
2.311357e-05,4.313994e-06,9,1
2.943412e-05,1.744129e-05,9,1
8.340187e-05,3.267542e-05,9,1
0.0001869616,4.72613e-05,9,1
0.000329255,5.730935e-05,9,1
0.0004950479,6.265751e-05,9,1
0.0006512789,6.557468e-05,9,1
0.0007632662,6.78436e-05,9,1
0.00081221,7.189524e-05,9,1
0.0007985964,7.805372e-05,9,1
0.0007271256,8.648112e-05,9,1
0.0006076833,9.231547e-05,9,1
0.0004517764,9.409818e-05,9,1
0.0002786906,9.458438e-05,9,1
0.0001073875,9.750156e-05,9,1
-4.398147e-05,0.0001025256,9,1
-0.0001524032,0.000105929,9,1
-0.0002019951,0.000106091,9,1
-0.0002003745,0.0001039842,9,1
-0.0001690959,0.0001018773,9,1
-0.000122259,0.0001015532,9,1
-5.791909e-05,9.977047e-05,9,1
2.732727e-05,9.004655e-05,9,1
0.0001231079,6.881599e-05,9,1
0.0002012234,3.60788e-05,9,1
0.0002290986,-1.682422e-06,9,1
0.0001882582,-3.522994e-05,9,1
8.46984e-05,-5.889148e-05,9,1
-5.69467e-05,-6.91016e-05,9,1
-0.0001968091,-6.472583e-05,9,1
-0.0002990722,-4.576419e-05,9,1
-0.0003423437,-1.173047e-05,9,1
-0.000330675,3.299956e-05,9,1
-0.0002830278,7.886404e-05,9,1
-0.0002267911,0.000121001,9,1
-0.0001848162,0.0001574657,9,1
-0.0001679614,0.000185341,9,1
-0.0001716889,0.0001996027,9,1
-0.0001830335,0.0001979821,9,1
-0.0001896782,0.0001835583,9,1
-0.0001835197,0.0001594105,9,1
-0.0001640719,0.0001305629,9,1
-0.0001314967,0.0001052807,9,1
-8.741498e-05,8.453633e-05,9,1
-3.21507e-05,6.83298e-05,9,1
2.846173e-05,5.455425e-05,9,1
8.113296e-05,3.721326e-05,9,1
0.0001117633,1.290346e-05,9,1
0.0001141943,-1.497178e-05,9,1
9.231547e-05,-3.863332e-05,9,1
5.52025e-05,-5.581224e-05,9,1
1.533444e-05,-6.521203e-05,9,1
-2.404744e-05,-6.974985e-05,9,1
-6.423963e-05,-7.007399e-05,9,1
-0.0001088076,-7.072225e-05,9,1
-0.0001579134,-7.088431e-05,9,1
-0.0002052365,-7.250496e-05,9,1
-0.0002417012,-7.315322e-05,9,1
-0.0002582318,-7.137051e-05,9,1
-0.000251101,-6.764301e-05,9,1
-0.0002225774,-6.213279e-05,9,1
-0.0001854645,-5.451572e-05,9,1
-0.0001530514,-4.333321e-05,9,1
-0.0001342519,-3.296103e-05,9,1
-0.0001279313,-2.680255e-05,9,1
-0.0001274451,-2.501983e-05,9,1
-0.0001250141,-2.485776e-05,9,1
-0.0001157764,-2.664048e-05,9,1
-9.66527e-05,-3.101625e-05,9,1
-6.877746e-05,-3.587821e-05,9,1
-3.68506e-05,-4.155049e-05,9,1
-5.409925e-06,-4.608832e-05,9,1
2.327564e-05,-5.192267e-05,9,1
4.807163e-05,-5.629844e-05,9,1
6.119892e-05,-5.613637e-05,9,1
5.698522e-05,-4.997789e-05,9,1
4.02925e-05,-4.009191e-05,9,1
2.408596e-05,-3.377136e-05,9,1
2.149292e-05,-3.425755e-05,9,1
3.640293e-05,-4.05781e-05,9,1
5.974033e-05,-4.43056e-05,9,1
8.307774e-05,-4.365734e-05,9,1
0.0001007429,-3.798505e-05,9,1
0.0001127357,-2.501983e-05,9,1
0.0001172735,-7.192643e-06,9,1
0.0001093323,1.079661e-05,9,1
9.004655e-05,2.959619e-05,9,1
6.508849e-05,4.985435e-05,9,1
4.207521e-05,7.011252e-05,9,1
2.667901e-05,8.680524e-05,9,1
2.700314e-05,9.977047e-05,9,1
4.758544e-05,0.0001070634,9,1
8.583286e-05,0.0001093323,9,1
0.0001329939,0.0001083599,9,1
0.0001806411,0.0001072255,9,1
0.0002172679,0.0001067393,9,1
0.0002347709,0.0001094944,9,1
0.0002378501,0.0001156529,9,1
0.0002313675,0.0001265113,9,1
0.0002242366,0.0001422316,9,1
0.0002209954,0.0001623277,9,1
0.0002240746,0.0001840444,9,1
0.0002290986,0.0002021958,9,1
0.0002307193,0.0002120818,9,1
0.0002266676,0.0002141886,9,1
0.0002203471,0.0002072198,9,1
0.0002124059,0.0001906891,9,1
0.0002057612,0.0001658931,9,1
0.0001992786,0.0001370455,9,1
0.0001902029,0.0001083599,9,1
0.0001759412,7.853991e-05,9,1
0.00015309,4.742337e-05,9,1
0.0001174356,1.663096e-05,9,1
7.351589e-05,-1.20546e-05,9,1
3.316162e-05,-3.701266e-05,9,1
5.772582e-06,-5.808115e-05,9,1
-1.075808e-05,-7.574627e-05,9,1
-1.950961e-05,-8.368748e-05,9,1
-2.501983e-05,-7.623246e-05,9,1
-3.085418e-05,-4.932962e-05,9,1
-4.203669e-05,-1.043395e-05,9,1
-5.953974e-05,2.862379e-05,9,1
-7.947377e-05,5.730935e-05,9,1
-9.29252e-05,7.157111e-05,9,1
-9.551824e-05,6.83298e-05,9,1
-9.211487e-05,4.72613e-05,9,1
-9.276313e-05,1.047248e-05,9,1
-0.0001052422,-3.360929e-05,9,1
-0.000127121,-7.639453e-05,9,1
-0.000152079,-0.0001151281,9,1
-0.0001702304,-0.000151917,9,1
-0.0001818991,-0.0001859507,9,1
-0.0001937298,-0.0002138259,9,1
-0.0002128535,-0.0002353806,9,1
-0.0002410529,-0.0002494803,9,1
-0.0002697385,-0.0002548284,9,1
-0.0002872415,-0.0002481838,9,1
-0.0002888622,-0.000233922,9,1
-0.0002778417,-0.0002206326,9,1
-0.0002681178,-0.0002135018,9,1
-0.000271197,-0.0002117191,9,1
-0.0002921034,-0.0002073433,9,1
-0.000325813,-0.0001956746,9,1
-0.0003588744,-0.0001746061,9,1
-0.0003765395,-0.0001430034,9,1
-0.0003647087,-0.0001021629,9,1
-0.0003212752,-6.294311e-05,9,1
-0.0002548284,-3.798505e-05,9,1
-0.0001771992,-3.63644e-05,9,1
-9.260107e-05,-5.59743e-05,9,1
4.244267e-07,-8.935975e-05,9,1
0.0001002567,-0.0001214487,9,1
0.0001984683,-0.0001387897,9,1
0.0002775562,-0.0001318209,9,1
0.0003252034,-0.0001003802,9,1
0.000339303,-5.192267e-05,9,1
0.0003324963,7.23117e-06,9,1
0.000319369,6.768154e-05,9,1
0.0003132105,0.000118408,9,1
0.0003174242,0.0001548727,9,1
0.0003324963,0.0001795066,9,1
0.0003532407,0.0001937684,9,1
0.000373985,0.0001999268,9,1
0.0003846814,0.0002012234,9,1
0.0003722023,0.0002018716,9,1
0.000324393,0.0002043026,9,1
0.0002454672,0.0002085163,9,1
0.0001649207,0.0002104611,9,1
0.0001297526,0.0002021958,9,1
0.0001749688,0.0001811273,9,1
0.0003025142,0.0001526038,9,1
0.0004764104,0.0001294284,9,1
0.0006504686,0.0001201907,9,1
0.0007840106,0.0001237561,9,1
0.0008567779,0.000130887,9,1
0.0008754155,0.0001331559,9,1
0.0008528884,0.000125863,9,1
0.0007982723,0.0001125736,9,1
0.0007159431,9.701536e-05,9,1
0.0006198382,7.870197e-05,9,1
0.0005284334,6.055066e-05,9,1
0.0004490213,4.936815e-05,9,1
0.0003770643,4.72613e-05,9,1
0.0003017039,5.1475e-05,9,1
0.0002164575,5.795762e-05,9,1
0.0001247285,6.427817e-05,9,1
3.883391e-05,6.800567e-05,9,1
-3.474375e-05,6.914012e-05,9,1
-8.482193e-05,6.865393e-05,9,1
-9.600444e-05,6.865393e-05,9,1
-6.44017e-05,6.78436e-05,9,1
-8.720959e-07,6.816773e-05,9,1
6.751948e-05,7.092284e-05,9,1
0.0001039842,7.659513e-05,9,1
8.242948e-05,8.178122e-05,9,1
2.623614e-07,8.567078e-05,9,1
-0.000127121,8.858796e-05,9,1
-0.000273628,9.037068e-05,9,1
-0.0004178661,8.972242e-05,9,1
-0.0005426564,8.46984e-05,9,1
-0.0006345474,7.400208e-05,9,1
-0.0006868945,5.649903e-05,9,1
-0.0007016424,3.526847e-05,9,1
-0.0006794395,1.54965e-05,9,1
-0.0006230408,1.072688e-06,9,1
-0.000541684,-6.544382e-06,9,1
-0.0004520619,-5.734056e-06,9,1
-0.0003812394,4.244267e-07,9,1
-0.0003549848,8.527692e-06,9,1
-0.0003762153,1.792748e-05,9,1
-0.0004245108,2.943412e-05,9,1
-0.0004742648,4.385793e-05,9,1
-0.0005031124,5.698522e-05,9,1
-0.0005034366,6.670914e-05,9,1
-0.000484637,6.897806e-05,9,1
-0.0004588687,6.395404e-05,9,1
-0.0004298589,5.131294e-05,9,1
-0.0003920977,3.332369e-05,9,1
-0.0003378059,1.776542e-05,9,1
-0.0002780038,9.175954e-06,9,1
-0.0002285739,6.582909e-06,9,1
-0.0002062088,3.827799e-06,9,1
-0.0002143121,-5.89612e-06,9,1
-0.0002460769,-2.534396e-05,9,1
-0.0002874036,-4.997789e-05,9,1
-0.0003170615,-7.396356e-05,9,1
-0.0003274337,-9.29252e-05,9,1
-0.000320789,-0.0001045939,9,1
-0.0003074997,-0.0001104282,9,1
-0.0002968033,-0.0001130213,9,1
-0.0002830278,-0.0001118868,9,1
-0.0002514251,-0.0001016767,9,1
-0.0001930815,-8.352541e-05,9,1
-0.0001151281,-6.342931e-05,9,1
-2.89094e-05,-5.32192e-05,9,1
5.61749e-05,-5.759496e-05,9,1
0.0001297526,-7.218083e-05,9,1
0.0001838824,-8.935975e-05,9,1
0.0002148369,-0.0001013526,9,1
0.0002196988,-0.0001084835,9,1
0.0001996027,-0.0001152902,9,1
0.0001560072,-0.000122259,9,1
9.912221e-05,-0.000127283,9,1
4.385793e-05,-0.0001251762,9,1
1.234753e-06,-0.0001135075,9,1
-2.761287e-05,-9.260107e-05,9,1
-4.819517e-05,-6.780507e-05,9,1
-6.521203e-05,-4.041603e-05,9,1
-7.752899e-05,-1.367526e-05,9,1
-8.222889e-05,1.12828e-05,9,1
-7.55842e-05,3.543054e-05,9,1
-5.986387e-05,5.552663e-05,9,1
-4.38194e-05,7.140904e-05,9,1
-3.63644e-05,8.259155e-05,9,1
-3.782299e-05,9.069481e-05,9,1
-3.587821e-05,9.652917e-05,9,1
-1.027188e-05,0.0001005808,9,1
4.807163e-05,9.960841e-05,9,1
0.0001310491,9.101894e-05,9,1
0.0002172679,7.465034e-05,9,1
0.0002851732,6.055066e-05,9,1
0.0003196932,5.585077e-05,9,1
0.0003183966,6.055066e-05,9,1
0.0002824181,6.930219e-05,9,1
0.0002224539,7.691926e-05,9,1
0.000160707,8.437427e-05,9,1
0.0001227837,9.037068e-05,9,1
0.0001174356,9.344993e-05,9,1
0.0001354248,9.328786e-05,9,1
0.000155683,9.101894e-05,9,1
0.0001579519,8.599492e-05,9,1
0.000138342,7.886404e-05,9,1
0.0001077117,7.432621e-05,9,1
8.226741e-05,7.6271e-05,9,1
7.221937e-05,8.550872e-05,9,1
7.481241e-05,9.750156e-05,9,1
7.951231e-05,0.0001054428,9,1
7.708133e-05,0.0001077117,9,1
6.427817e-05,0.0001023635,9,1
4.272347e-05,8.502253e-05,9,1
1.954813e-05,5.828175e-05,9,1
7.485573e-07,2.81376e-05,9,1
-9.137427e-06,2.855407e-06,9,1
-1.075808e-05,-1.270286e-05,9,1
5.86492e-07,-2.064406e-05,9,1
2.781346e-05,-2.518189e-05,9,1
6.930219e-05,-2.84232e-05,9,1
0.0001188942,-3.231277e-05,9,1
0.0001626518,-3.668853e-05,9,1
0.0001843686,-4.171256e-05,9,1
0.0001806411,-4.884343e-05,9,1
0.0001608691,-5.59743e-05,9,1
0.0001388282,-6.326724e-05,9,1
0.0001276457,-6.537409e-05,9,1
0.0001295905,-6.0188e-05,9,1
0.0001391524,-5.030202e-05,9,1
0.0001451488,-4.236082e-05,9,1
0.0001438522,-3.766092e-05,9,1
0.0001404489,-3.458168e-05,9,1
0.0001378558,-3.393342e-05,9,1
0.0001410971,-3.863332e-05,9,1
0.0001568175,-4.868137e-05,9,1
0.0001872858,-5.856735e-05,9,1
0.0002290986,-6.051213e-05,9,1
0.0002759355,-5.435365e-05,9,1
0.0003200173,-4.349527e-05,9,1
0.0003561579,-2.988179e-05,9,1
0.0003780367,-1.513384e-05,9,1
0.0003845193,-2.006553e-06,9,1
0.0003697714,5.448452e-06,9,1
0.0003315239,7.393236e-06,9,1
0.0002743149,4.151929e-06,9,1
0.0002090025,-1.358292e-06,9,1
0.0001415833,-4.761664e-06,9,1
8.275361e-05,4.244267e-07,9,1
4.175109e-05,1.112074e-05,9,1
1.727922e-05,2.214118e-05,9,1
5.124321e-06,3.202716e-05,9,1
1.234753e-06,3.915804e-05,9,1
4.80019e-06,4.385793e-05,9,1
1.371378e-05,4.709924e-05,9,1
2.700314e-05,5.325772e-05,9,1
3.818565e-05,6.184718e-05,9,1
3.850978e-05,7.173317e-05,9,1
2.230325e-05,8.032264e-05,9,1
-9.623623e-06,8.79397e-05,9,1
-5.402952e-05,9.68533e-05,9,1
-0.000104918,0.0001062531,9,1
-0.0001514308,0.0001132219,9,1
-0.0001835197,0.0001154908,9,1
-0.0001972953,0.000108522,9,1
-0.0001977815,9.134307e-05,9,1
-0.0001927574,6.573675e-05,9,1
-0.0001737958,3.98063e-05,9,1
-0.0001185315,2.035846e-05,9,1
-1.756482e-05,1.209313e-05,9,1
0.000106091,1.954813e-05,9,1
0.000217592,4.337174e-05,9,1
0.0002869559,7.756752e-05,9,1
0.000299597,0.0001112771,9,1
0.0002631324,0.0001360731,9,1
0.0001999268,0.0001469315,9,1
0.0001347766,0.0001391524,9,1
9.458438e-05,0.000115977,9,1
9.490851e-05,9.004655e-05,9,1
0.0001373696,7.043665e-05,9,1
0.0002104611,5.504044e-05,9,1
0.00029198,4.628891e-05,9,1
0.0003582647,4.807163e-05,9,1
0.0003944053,5.957827e-05,9,1
0.0003934329,7.335383e-05,9,1
0.0003559958,8.307774e-05,9,1
0.0002851732,8.405014e-05,9,1
0.0001898788,7.57848e-05,9,1
8.486046e-05,5.730935e-05,9,1
-1.075808e-05,3.202716e-05,9,1
-8.563225e-05,5.934648e-06,9,1
-0.0001417068,-1.140634e-05,9,1
-0.0001864369,-1.756482e-05,9,1
-0.0002251705,-1.399939e-05,9,1
-0.0002590421,-6.706447e-06,9,1
-0.000290969,-7.100305e-07,9,1
-0.0003149546,-1.358292e-06,9,1
-0.0003267854,-1.010982e-05,9,1
-0.0003237062,-2.015787e-05,9,1
-0.0003096065,-2.89094e-05,9,1
-0.0002997205,-3.879538e-05,9,1
-0.0003110651,-4.932962e-05,9,1
-0.0003462333,-5.532604e-05,9,1
-0.0003922598,-5.013995e-05,9,1
-0.0004243487,-3.944364e-05,9,1
-0.0004207833,-3.26369e-05,9,1
-0.000377836,-3.555408e-05,9,1
-0.0003096065,-4.754691e-05,9,1
-0.0002394322,-6.326724e-05,9,1
-0.0001893541,-7.65566e-05,9,1
-0.0001673132,-8.352541e-05,9,1
-0.000166827,-8.206682e-05,9,1
-0.0001726613,-7.526008e-05,9,1
-0.0001690959,-7.072225e-05,9,1
-0.000147055,-7.153257e-05,9,1
-0.0001139937,-7.850138e-05,9,1
-8.465986e-05,-8.790117e-05,9,1
-7.833932e-05,-9.130454e-05,9,1
-0.0001054042,-8.644259e-05,9,1
-0.0001634236,-7.769106e-05,9,1
-0.0002368392,-6.683268e-05,9,1
-0.000303448,-5.467778e-05,9,1
-0.0003468815,-4.365734e-05,9,1
-0.0003570916,-3.360929e-05,9,1
-0.0003303509,-2.680255e-05,9,1
-0.000266173,-2.583016e-05,9,1
-0.0001728234,-2.745081e-05,9,1
-6.472583e-05,-2.664048e-05,9,1
4.596478e-05,-1.805102e-05,9,1
0.0001464453,-6.220252e-06,9,1
0.0002312055,3.179537e-06,9,1
0.0002984626,6.582909e-06,9,1
0.0003524304,6.258778e-06,9,1
0.0003991052,6.258778e-06,9,1
0.0004414042,9.013889e-06,9,1
0.0004799758,1.582063e-05,9,1
0.00052503,2.538249e-05,9,1
0.000586939,3.93201e-05,9,1
0.000668782,5.828175e-05,9,1
0.0007661834,7.789165e-05,9,1
0.0008648812,9.361199e-05,9,1
0.0009431589,0.0001031738,9,1
0.0009734652,0.0001072255,9,1
0.0009379727,0.0001075496,9,1
0.0008352232,0.0001070634,9,1
0.0006843403,0.0001065772,9,1
0.0005159543,0.000103498,9,1
0.000351458,9.652917e-05,9,1
0.0001992786,8.891209e-05,9,1
5.698522e-05,8.858796e-05,9,1
-8.433573e-05,9.944634e-05,9,1
-0.0002258187,0.000118408,9,1
-0.0003572537,0.0001376938,9,1
-0.0004609755,0.0001508211,9,1
-0.0005269361,0.0001592484,9,1
-0.0005505976,0.0001637863,9,1
-0.0005387668,0.0001626518,9,1
-0.0005005194,0.0001466074,9,1
-0.0004483344,0.0001145184,9,1
-0.0003873979,7.351589e-05,9,1
-0.0003245165,3.769945e-05,9,1
-0.0002642282,1.711715e-05,9,1
-0.0002125294,1.355172e-05,9,1
-0.0001750923,2.197911e-05,9,1
-0.0001528894,3.445814e-05,9,1
-0.0001425172,4.72613e-05,9,1
-0.0001408965,5.666109e-05,9,1
-0.0001451102,6.330578e-05,9,1
-0.0001485136,6.897806e-05,9,1
-0.0001457585,7.789165e-05,9,1
-0.0001425172,9.344993e-05,9,1
-0.0001423551,0.000115977,9,1
-0.0001462447,0.0001365593,9,1
-0.0001561307,0.0001467694,9,1
-0.0001755785,0.0001448246,9,1
-0.0002005366,0.0001326697,9,1
-0.0002219292,0.0001167873,9,1
-0.0002303566,9.652917e-05,9,1
-0.0002143121,7.076078e-05,9,1
-0.0001703924,3.883391e-05,9,1
-0.0001068628,1.558884e-06,9,1
-4.300908e-05,-3.68506e-05,9,1
-1.520357e-06,-7.412562e-05,9,1
9.106227e-07,-0.0001050801,9,1
-3.863332e-05,-0.0001259865,9,1
-0.000107349,-0.0001366828,9,1
-0.0001859507,-0.0001402483,9,1
-0.0002598524,-0.0001447861,9,1
-0.0003228959,-0.000151917,9,1
-0.0003697327,-0.0001600202,9,1
-0.0003956632,-0.0001665028,9,1
-0.0003904771,-0.0001702304,9,1
-0.0003421817,-0.0001666649,9,1
-0.0002519113,-0.0001525652,9,1
-0.0001374932,-0.0001259865,9,1
-3.085418e-05,-9.114248e-05,9,1
4.094075e-05,-5.338126e-05,9,1
6.055066e-05,-1.837515e-05,9,1
2.570662e-05,7.717366e-06,9,1
-4.43056e-05,1.841368e-05,9,1
-0.0001177212,1.290346e-05,9,1
-0.0001700683,-5.57199e-06,9,1
-0.0001887058,-3.036798e-05,9,1
-0.0001789819,-5.548811e-05,9,1
-0.0001535376,-7.752899e-05,9,1
-0.0001255003,-9.276313e-05,9,1
-9.973194e-05,-9.940781e-05,9,1
-7.671866e-05,-9.843541e-05,9,1
-5.32192e-05,-8.82253e-05,9,1
-3.247483e-05,-7.153257e-05,9,1
-1.983374e-05,-5.402952e-05,9,1
-1.837515e-05,-3.960571e-05,9,1
-2.09682e-05,-2.858527e-05,9,1
-1.594417e-05,-1.480971e-05,9,1
1.144487e-05,9.66215e-06,9,1
7.562274e-05,4.985435e-05,9,1
0.0001718896,0.000101067,9,1
0.0002804733,0.0001509831,9,1
0.000376416,0.0001889064,9,1
0.0004444835,0.0002107852,9,1
0.0004772207,0.0002172679,9,1
0.0004650658,0.0002128921,9,1
0.0004073705,0.0002007372,9,1
0.0003117519,0.0001850168,9,1
0.0001942546,0.0001667035,9,1
7.059871e-05,0.000145797,9,1
-4.446767e-05,0.0001205148,9,1
-0.000137169,9.21534e-05,9,1
-0.0002032917,6.249545e-05,9,1
-0.0002426735,3.316162e-05,9,1
-0.0002528836,6.90704e-06,9,1
-0.0002357047,-1.432352e-05,9,1
-0.0001961608,-2.7937e-05,9,1
-0.0001413827,-3.539201e-05,9,1
-6.926366e-05,-3.944364e-05,9,1
2.781346e-05,-4.041603e-05,9,1
0.0001573037,-3.830919e-05,9,1
0.0003183966,-3.360929e-05,9,1
0.0004898618,-1.659243e-05,9,1
0.0006375034,1.614476e-05,9,1
0.0007255049,6.152305e-05,9,1
0.0007460872,0.0001041462,9,1
0.000723074,0.0001299146,9,1
0.0006840162,0.0001305629,9,1
0.0006481997,0.0001104668,9,1
0.0006214589,7.999851e-05,9,1
0.0005981215,4.839576e-05,9,1
0.000574622,2.505836e-05,9,1
0.0005516087,1.209313e-05,9,1
0.000534754,7.717366e-06,9,1
0.0005242196,7.23117e-06,9,1
0.0005133613,6.744974e-06,9,1
0.0004939134,3.989864e-06,9,1
0.0004595556,-2.978945e-06,9,1
0.0004038051,-1.416145e-05,9,1
0.0003282826,-2.7937e-05,9,1
0.0002393087,-4.138842e-05,9,1
0.0001440143,-5.532604e-05,9,1
4.385793e-05,-7.412562e-05,9,1
-5.467778e-05,-0.0001011905,9,1
-0.0001481895,-0.0001353863,9,1
-0.0002344082,-0.0001741199,9,1
-0.0003089583,-0.0002097743,9,1
-0.0003648708,-0.0002379736,9,1
-0.000397608,-0.0002546664,9,1
-0.0003990665,-0.0002564491,9,1
-0.0003685983,-0.0002444563,9,1
-0.0003211132,-0.0002276015,9,1
-0.0002841623,-0.0002120432,9,1
-0.0002791382,-0.0001964849,9,1
-0.0003053928,-0.0001778474,9,1
-0.0003489884,-0.0001571031,9,1
-0.0003930701,-0.0001353863,9,1
-0.0004235384,-0.0001151281,9,1
-0.0004345588,-9.649064e-05,9,1
-0.0004253211,-8.07703e-05,9,1
-0.0004018217,-6.829127e-05,9,1
-0.000370381,-5.32192e-05,9,1
-0.0003373197,-2.955766e-05,9,1
-0.0003037722,6.258778e-06,9,1
-0.0002705488,4.888196e-05,9,1
-0.0002345703,9.31258e-05,9,1
-0.0001887058,0.0001316974,9,1
-0.0001289037,0.000160707,9,1
-4.722278e-05,0.0001798307,9,1
5.714729e-05,0.000190365,9,1
0.0001796687,0.0001949028,9,1
0.0003046211,0.0001945787,9,1
0.0004112601,0.0001905271,9,1
0.000478031,0.0001835583,9,1
0.0004960203,0.0001773998,9,1
0.0004718725,0.0001759412,9,1
0.0004196875,0.0001809652,9,1
0.0003548613,0.0001902029,9,1
0.0002939248,0.0001970097,9,1
0.0002433604,0.0001983062,9,1
0.0002049509,0.0001942546,9,1
0.0001782101,0.0001864754,9,1
0.0001663793,0.0001757791,9,1
0.0001688103,0.0001689724,9,1
0.0001743205,0.0001741585,9,1
0.0001691344,0.0001887444,9,1
0.0001446626,0.0002033302,9,1
0.0001046324,0.0002091646,9,1
5.455425e-05,0.0002021958,9,1
2.531276e-06,0.0001882582,9,1
-5.095028e-05,0.0001714034,9,1
-0.0001037836,0.0001542244,9,1
-0.000142031,0.00013818,9,1
-0.0001496481,0.0001250527,9,1
-0.0001212866,0.0001187321,9,1
-7.266703e-05,0.0001169494,9,1
-2.485776e-05,0.0001169494,9,1
4.151929e-06,0.0001132219,9,1
5.286387e-06,0.0001026876,9,1
-1.918548e-05,8.712937e-05,9,1
-6.278104e-05,7.189524e-05,9,1
-0.0001143178,6.427817e-05,9,1
-0.0001548341,6.330578e-05,9,1
-0.0001707166,6.136099e-05,9,1
-0.0001598582,5.439218e-05,9,1
-0.0001303623,4.385793e-05,9,1
-9.503204e-05,3.413401e-05,9,1
-6.504996e-05,2.894792e-05,9,1
-5.500191e-05,2.667901e-05,9,1
-7.380149e-05,2.100672e-05,9,1
-0.0001114006,1.193106e-05,9,1
-0.00015451,1.883015e-06,9,1
-0.000191623,-1.196227e-06,9,1
-0.0002206326,4.47606e-06,9,1
-0.0002433218,1.630683e-05,9,1
-0.0002570974,2.975825e-05,9,1
-0.0002627696,4.304761e-05,9,1
-0.0002658489,5.52025e-05,9,1
-0.0002713591,6.152305e-05,9,1
-0.0002804347,6.03886e-05,9,1
-0.0002904828,5.406805e-05,9,1
-0.0002953447,4.45062e-05,9,1
-0.000278652,2.992031e-05,9,1
-0.0002217671,1.12828e-05,9,1
-0.0001180453,-7.678839e-06,9,1
1.760335e-05,-2.258885e-05,9,1
0.0001598967,-3.279896e-05,9,1
0.0002804733,-4.106429e-05,9,1
0.0003517821,-4.738484e-05,9,1
0.0003628026,-5.159854e-05,9,1
0.0003213138,-5.354332e-05,9,1
0.0002545429,-5.532604e-05,9,1
0.000192796,-5.840528e-05,9,1
0.0001509831,-6.261898e-05,9,1
0.0001250527,-7.153257e-05,9,1
0.0001054428,-8.384954e-05,9,1
7.67572e-05,-9.66527e-05,9,1
3.121684e-05,-0.0001037836,9,1
-2.194059e-05,-0.0001037836,9,1
-6.099833e-05,-0.0001007043,9,1
-6.91016e-05,-9.892161e-05,9,1
-4.608832e-05,-0.0001010285,9,1
-6.706447e-06,-0.0001062146,9,1
3.089271e-05,-0.0001151281,9,1
5.131294e-05,-0.0001266348,9,1
4.871989e-05,-0.0001365208,9,1
2.878586e-05,-0.0001350622,9,1
-2.168618e-06,-0.0001156143,9,1
-3.620233e-05,-6.942573e-05,9,1
-6.342931e-05,7.23117e-06,9,1
-7.720486e-05,0.0001039842,9,1
-7.526008e-05,0.0002023578,9,1
-6.278104e-05,0.0002804733,9,1
-5.419158e-05,0.0003230965,9,1
-5.775702e-05,0.0003261758,9,1
-7.542214e-05,0.0002989488,9,1
-9.908367e-05,0.0002527602,9,1
-0.0001159385,0.0001963614,9,1
-0.0001144799,0.0001355869,9,1
-9.697683e-05,7.562274e-05,9,1
-7.55842e-05,2.149292e-05,9,1
-6.148453e-05,-2.647842e-05,9,1
-6.06742e-05,-6.650855e-05,9,1
-7.266703e-05,-0.0001005423,9,1
-9.114248e-05,-0.000127121,9,1
-0.0001101041,-0.0001457585,9,1
-0.0001276072,-0.0001606685,9,1
-0.0001407345,-0.0001736337,9,1
-0.0001447861,-0.0001883817,9,1
-0.0001355484,-0.0002053985,9,1
-0.0001144799,-0.0002261429,9,1
-8.660465e-05,-0.0002504527,9,1
-5.59743e-05,-0.0002755728,9,1
-2.809907e-05,-0.0003002067,9,1
-3.14101e-06,-0.0003224097,9,1
2.295151e-05,-0.00033813,9,1
4.693717e-05,-0.0003462333,9,1
6.168512e-05,-0.0003512573,9,1
6.83298e-05,-0.000355471,9,1
7.497447e-05,-0.0003601709,9,1
8.42122e-05,-0.0003634122,9,1
9.037068e-05,-0.0003626019,9,1
8.518459e-05,-0.0003525538,9,1
6.427817e-05,-0.0003290543,9,1
3.688912e-05,-0.0002893484,9,1
1.906194e-05,-0.0002342462,9,1
2.116879e-05,-0.0001712027,9,1
4.596478e-05,-0.0001065387,9,1
8.42122e-05,-4.592625e-05,9,1
0.0001271595,1.095867e-05,9,1
0.0001649207,6.103686e-05,9,1
0.0001871237,0.0001022015,9,1
0.0001835583,0.0001326697,9,1
0.0001547106,0.00015309,9,1
0.0001081979,0.0001657311,9,1
5.633696e-05,0.0001673517,9,1
7.555301e-06,0.0001628139,9,1
-3.036798e-05,0.0001594105,9,1
-5.419158e-05,0.0001613553,9,1
-5.581224e-05,0.0001688103,9,1
-2.907146e-05,0.0001746447,9,1
2.586868e-05,0.0001743205,9,1
9.604298e-05,0.0001676758,9,1
0.0001645966,0.000158114,9,1
0.0002091646,0.0001495245,9,1
0.0002184023,0.0001417454,9,1
0.0002015475,0.0001388282,9,1
0.0001825859,0.0001412592,9,1
0.0001785342,0.0001495245,9,1
0.0001966855,0.0001564933,9,1
0.0002292607,0.0001571416,9,1
0.0002624841,0.0001503349,9,1
0.0002760976,0.0001365593,9,1
0.0002535705,0.0001203528,9,1
0.0001936063,0.0001039842,9,1
0.0001078737,9.26396e-05,9,1
2.149292e-05,8.79397e-05,9,1
-4.171256e-05,8.74535e-05,9,1
-6.926366e-05,8.74535e-05,9,1
-6.035007e-05,8.891209e-05,9,1
-2.404744e-05,9.31258e-05,9,1
2.748934e-05,9.53947e-05,9,1
8.178122e-05,9.280167e-05,9,1
0.0001331559,8.242948e-05,9,1
0.0001809652,6.83298e-05,9,1
0.0002221298,5.341979e-05,9,1
0.0002534084,4.175109e-05,9,1
0.0002728562,3.753739e-05,9,1
0.0002751252,4.126489e-05,9,1
0.0002613496,5.19612e-05,9,1
0.0002393087,6.541262e-05,9,1
0.0002214815,7.837785e-05,9,1
0.0002130541,8.972242e-05,9,1
0.0002060853,9.377406e-05,9,1
0.0001874478,9.069481e-05,9,1
0.0001459591,8.502253e-05,9,1
8.113296e-05,8.550872e-05,9,1
-3.858999e-07,9.426025e-05,9,1
-8.611845e-05,0.0001056048,9,1
-0.0001629374,0.0001116012,9,1
-0.0002211189,0.0001078737,9,1
-0.0002600145,0.0001002567,9,1
-0.0002846485,9.53947e-05,9,1
-0.0002998826,9.814982e-05,9,1
-0.0003104168,0.0001080358,9,1
-0.0003199787,0.0001182459,9,1
-0.0003237062,0.0001248906,9,1
-0.0003149546,0.0001250527,9,1
-0.0002869174,0.0001216493,9,1
-0.0002373254,0.0001193804,9,1
-0.0001759026,0.0001197045,9,1
-0.0001115627,0.0001216493,9,1
-4.414354e-05,0.0001226217,9,1
3.008238e-05,0.0001219734,9,1
0.0001073875,0.0001197045,9,1
0.0001765894,0.0001187321,9,1
0.0002279642,0.0001216493,9,1
0.0002563256,0.0001278078,9,1
0.000262322,0.0001339663,9,1
0.0002446569,0.0001389903,9,1
0.0002109473,0.0001425557,9,1
0.0001748067,0.0001423936,9,1
0.0001427178,0.0001365593,9,1
0.0001158149,0.0001278078,9,1
9.53947e-05,0.0001182459,9,1
8.453633e-05,0.0001112771,9,1
8.518459e-05,0.00010366,9,1
9.328786e-05,9.507057e-05,9,1
9.409818e-05,8.534666e-05,9,1
7.367795e-05,7.513654e-05,9,1
3.543054e-05,6.492643e-05,9,1
-5.409925e-06,5.423012e-05,9,1
-3.182657e-05,4.709924e-05,9,1
-3.166451e-05,4.693717e-05,9,1
-8.813297e-06,5.179914e-05,9,1
1.825161e-05,5.552663e-05,9,1
3.218923e-05,5.423012e-05,9,1
2.34377e-05,4.77475e-05,9,1
-5.89612e-06,3.834771e-05,9,1
-4.949169e-05,2.700314e-05,9,1
-0.0001007043,1.54965e-05,9,1
-0.0001564548,4.151929e-06,9,1
-0.0002125294,-6.706447e-06,9,1
-0.0002640662,-1.967167e-05,9,1
-0.0003068514,-3.474375e-05,9,1
-0.0003389403,-5.435365e-05,9,1
-0.0003614674,-7.65566e-05,9,1
-0.0003773498,-9.697683e-05,9,1
-0.0003896668,-0.0001099421,9,1
-0.0004018217,-0.0001120489,9,1
-0.0004149489,-0.0001071869,9,1
-0.0004237005,-0.0001003802,9,1
-0.0004220798,-9.551824e-05,9,1
-0.0004089525,-9.260107e-05,9,1
-0.0003885323,-8.887356e-05,9,1
-0.0003564434,-8.07703e-05,9,1
-0.0003000446,-7.039812e-05,9,1
-0.0002081536,-5.759496e-05,9,1
-8.465986e-05,-4.398147e-05,9,1
4.904402e-05,-3.231277e-05,9,1
0.0001613553,-2.955766e-05,9,1
0.0002282883,-3.814712e-05,9,1
0.0002475741,-5.257093e-05,9,1
0.0002344468,-6.278104e-05,9,1
0.0002120818,-6.602235e-05,9,1
0.0001999268,-6.586029e-05,9,1
0.0002031682,-6.81292e-05,9,1
0.0002193747,-7.574627e-05,9,1
0.0002438466,-8.871149e-05,9,1
0.0002725321,-0.0001013526,9,1
0.0003013798,-0.0001109144,9,1
0.0003237448,-0.000114804,9,1
0.0003321722,-0.0001139937,9,1
0.0003252034,-0.0001099421,9,1
0.0003004074,-0.0001021629,9,1
0.0002676702,-9.033215e-05,9,1
0.0002435224,-7.60704e-05,9,1
0.0002362295,-6.294311e-05,9,1
0.0002417397,-5.32192e-05,9,1
0.0002459534,-4.462973e-05,9,1
0.0002435224,-3.587821e-05,9,1
0.0002354192,-2.907146e-05,9,1
0.0002245608,-2.7937e-05,9,1
0.0002112714,-3.312309e-05,9,1
0.0001902029,-4.106429e-05,9,1
0.0001488763,-4.608832e-05,9,1
7.935024e-05,-4.300908e-05,9,1
-2.664048e-05,-3.328516e-05,9,1
-0.0001624512,-1.967167e-05,9,1
-0.0003049066,-4.761664e-06,9,1
-0.0004219178,8.203562e-06,9,1
-0.0004911196,1.695509e-05,9,1
-0.0005081365,1.987227e-05,9,1
-0.0004818819,2.116879e-05,9,1
-0.0004329382,2.278944e-05,9,1
-0.0003796187,2.295151e-05,9,1
-0.000328244,2.246531e-05,9,1
-0.0002742763,2.489629e-05,9,1
-0.0002143121,2.716521e-05,9,1
-0.0001509446,2.311357e-05,9,1
-8.547019e-05,1.22552e-05,9,1
-1.740276e-05,-2.330684e-06,9,1
5.811968e-05,-1.529591e-05,9,1
0.0001451488,-2.518189e-05,9,1
0.0002436845,-3.231277e-05,9,1
0.0003414099,-3.344723e-05,9,1
0.0004226047,-2.599222e-05,9,1
0.0004752759,-1.075808e-05,9,1
0.0004921307,8.203562e-06,9,1
0.0004743035,2.651694e-05,9,1
0.000420984,4.013043e-05,9,1
0.0003380065,4.920609e-05,9,1
0.0002407673,4.709924e-05,9,1
0.000148228,2.992031e-05,9,1
8.161915e-05,1.002961e-07,9,1
5.423012e-05,-3.053005e-05,9,1
6.249545e-05,-4.754691e-05,9,1
8.777764e-05,-4.462973e-05,9,1
0.0001119254,-2.777494e-05,9,1
0.0001229458,-8.327101e-06,9,1
0.0001214872,1.079661e-05,9,1
0.0001153287,3.316162e-05,9,1
0.0001150046,6.298164e-05,9,1
0.0001245665,9.669123e-05,9,1
0.0001344524,0.000128456,9,1
0.0001292664,0.0001527658,9,1
9.993253e-05,0.0001652449,9,1
4.369587e-05,0.0001618415,9,1
-2.923353e-05,0.0001412592,9,1
-0.0001015147,0.0001069013,9,1
-0.0001566169,6.962632e-05,9,1
-0.0001903264,3.462021e-05,9,1
-0.0002070192,2.369211e-06,9,1
-0.0002107467,-3.231277e-05,9,1
-0.0002050744,-7.282909e-05,9,1
-0.000191623,-0.0001149661,9,1
-0.000176713,-0.0001491618,9,1
-0.000166827,-0.0001703924,9,1
-0.000161965,-0.0001820611,9,1
-0.0001603444,-0.0001865989,9,1
-0.0001567789,-0.0001844921,9,1
-0.0001405724,-0.0001737958,9,1
-9.956988e-05,-0.0001541859,9,1
-2.745081e-05,-0.0001238797,9,1
6.978839e-05,-8.628052e-05,9,1
0.0001751309,-4.85193e-05,9,1
0.000267346,-1.756482e-05,9,1
0.0003320101,4.962256e-06,9,1
0.0003626405,1.808955e-05,9,1
0.0003602095,2.635488e-05,9,1
0.0003218,3.478228e-05,9,1
0.0002495189,4.564065e-05,9,1
0.0001553589,6.233338e-05,9,1
5.552663e-05,8.453633e-05,9,1
-2.939559e-05,0.0001132219,9,1
-8.125649e-05,0.0001453108,9,1
-9.454585e-05,0.000175455,9,1
-7.752899e-05,0.0002008992,9,1
-4.511593e-05,0.000217592,9,1
-1.108221e-05,0.0002214815,9,1
1.290346e-05,0.0002135403,9,1
1.582063e-05,0.0001973338,9,1
-5.89612e-06,0.0001756171,9,1
-4.722278e-05,0.0001521176,9,1
-9.66527e-05,0.0001295905,9,1
-0.0001423551,0.0001065772,9,1
-0.0001799543,8.194328e-05,9,1
-0.0002136638,5.763349e-05,9,1
-0.000251263,3.818565e-05,9,1
-0.0002922655,2.651694e-05,9,1
-0.0003321336,2.376183e-05,9,1
-0.0003596847,2.376183e-05,9,1
-0.000370381,1.987227e-05,9,1
-0.0003609812,1.241726e-05,9,1
-0.0003277578,4.151929e-06,9,1
-0.000268604,-4.113403e-06,9,1
-0.0001887058,-1.221667e-05,9,1
-9.956988e-05,-1.724069e-05,9,1
-1.805102e-05,-1.805102e-05,9,1
3.591673e-05,-1.562004e-05,9,1
5.536457e-05,-1.3027e-05,9,1
4.72613e-05,-1.286493e-05,9,1
2.959619e-05,-1.513384e-05,9,1
2.003433e-05,-1.562004e-05,9,1
2.992031e-05,-1.075808e-05,9,1
6.168512e-05,1.396819e-06,9,1
0.0001073875,1.873781e-05,9,1
0.00015309,3.656499e-05,9,1
0.0001918236,5.325772e-05,9,1
0.0002289366,6.719535e-05,9,1
0.0002733424,7.983644e-05,9,1
0.0003208276,8.939829e-05,9,1
0.0003605336,9.669123e-05,9,1
0.000383871,0.0001022015,9,1
0.0003875985,0.0001043083,9,1
0.0003736609,9.928428e-05,9,1
0.0003477304,8.74535e-05,9,1
0.0003130485,7.6271e-05,9,1
0.0002694529,6.881599e-05,9,1
0.0002135403,6.346784e-05,9,1
0.0001462832,6.022653e-05,9,1
7.027458e-05,5.698522e-05,9,1
-1.034161e-06,5.390598e-05,9,1
-5.532604e-05,5.179914e-05,9,1
-8.498399e-05,5.212327e-05,9,1
-9.438378e-05,5.423012e-05,9,1
-0.0001002181,5.52025e-05,9,1
-0.0001141558,5.163707e-05,9,1
-0.000134576,4.402e-05,9,1
-0.0001579134,3.462021e-05,9,1
-0.0001770371,3.024445e-05,9,1
-0.0001908126,3.316162e-05,9,1
-0.0001987538,4.288554e-05,9,1
-0.0001979435,5.552663e-05,9,1
-0.0001882196,6.168512e-05,9,1
-0.0001721751,5.423012e-05,9,1
-0.0001559686,3.429608e-05,9,1
-0.0001407345,1.274139e-05,9,1
-0.00012469,-3.14101e-06,9,1
-0.0001088076,-1.156841e-05,9,1
-9.730096e-05,-1.578211e-05,9,1
-9.535618e-05,-1.902341e-05,9,1
-0.0001052422,-2.242678e-05,9,1
-0.0001292278,-2.874733e-05,9,1
-0.0001666649,-3.571614e-05,9,1
-0.0002138259,-4.074016e-05,9,1
-0.0002658489,-4.268495e-05,9,1
-0.0003104168,-3.928157e-05,9,1
-0.0003348887,-3.053005e-05,9,1
-0.0003309991,-1.545797e-05,9,1
-0.0002971275,4.80019e-06,9,1
-0.0002347323,2.81376e-05,9,1
-0.0001486757,4.953022e-05,9,1
-5.208474e-05,6.119892e-05,9,1
4.158902e-05,6.217132e-05,9,1
0.0001161391,5.649903e-05,9,1
0.0001620036,4.920609e-05,9,1
0.0001759412,4.580272e-05,9,1
0.0001683241,5.066468e-05,9,1
0.0001600588,6.006447e-05,9,1
0.0001654069,6.978839e-05,9,1
0.0001833962,7.67572e-05,9,1
0.000205275,7.772959e-05,9,1
0.0002253711,7.108491e-05,9,1
0.0002412535,5.682316e-05,9,1
0.0002527602,3.883391e-05,9,1
0.0002600531,2.457216e-05,9,1
0.0002564877,1.501031e-05,9,1
0.0002339606,6.096713e-06,9,1
0.0001981441,-4.761664e-06,9,1
0.0001594105,-1.756482e-05,9,1
0.0001253768,-3.117831e-05,9,1
9.750156e-05,-4.446767e-05,9,1
7.789165e-05,-5.257093e-05,9,1
6.751948e-05,-4.916756e-05,9,1
6.249545e-05,-3.393342e-05,9,1
5.61749e-05,-1.075808e-05,9,1
4.969229e-05,1.063454e-05,9,1
4.499239e-05,2.39239e-05,9,1
4.207521e-05,3.008238e-05,9,1
3.656499e-05,3.543054e-05,9,1
2.748934e-05,4.35338e-05,9,1
9.013889e-06,5.179914e-05,9,1
-1.529591e-05,5.406805e-05,9,1
-3.717473e-05,5.163707e-05,9,1
-5.370539e-05,4.936815e-05,9,1
-6.456377e-05,5.244739e-05,9,1
-7.347736e-05,5.795762e-05,9,1
-7.833932e-05,6.281957e-05,9,1
-7.169464e-05,6.330578e-05,9,1
-4.155049e-05,5.309566e-05,9,1
1.338965e-05,3.121684e-05,9,1
8.178122e-05,3.341602e-06,9,1
0.0001467694,-2.129233e-05,9,1
0.0001970097,-3.847125e-05,9,1
0.0002287745,-4.965376e-05,9,1
0.0002414156,-5.69467e-05,9,1
0.0002373639,-5.69467e-05,9,1
0.0002232643,-4.787104e-05,9,1
0.0002145127,-3.425755e-05,9,1
0.0002203471,-2.356124e-05,9,1
0.0002347709,-2.275091e-05,9,1
0.0002503292,-3.085418e-05,9,1
0.0002535705,-4.608832e-05,9,1
0.0002334744,-6.164659e-05,9,1
0.0001871237,-7.250496e-05,9,1
0.000120839,-8.255302e-05,9,1
5.082674e-05,-9.211487e-05,9,1
-2.006553e-06,-9.908367e-05,9,1
-1.756482e-05,-0.0001002181,9,1
6.90704e-06,-9.405965e-05,9,1
5.439218e-05,-8.320128e-05,9,1
9.928428e-05,-7.153257e-05,9,1
0.0001206769,-6.083626e-05,9,1
0.0001056048,-5.030202e-05,9,1
5.682316e-05,-4.025397e-05,9,1
-9.137427e-06,-3.085418e-05,9,1
-7.428769e-05,-2.145439e-05,9,1
-0.0001264727,-9.461558e-06,9,1
-0.0001605064,4.47606e-06,9,1
-0.0001741199,1.744129e-05,9,1
-0.0001755785,2.424803e-05,9,1
-0.000181737,2.01964e-05,9,1
-0.0002062088,7.879432e-06,9,1
-0.0002467252,-8.813297e-06,9,1
-0.0002914552,-2.339918e-05,9,1
-0.0003188442,-2.89094e-05,9,1
-0.0003159271,-2.46957e-05,9,1
-0.0002846485,-1.432352e-05,9,1
-0.0002417012,7.485573e-07,9,1
-0.0002058847,2.197911e-05,9,1
-0.0001864369,4.807163e-05,9,1
-0.0001835197,7.513654e-05,9,1
-0.0001856265,9.68533e-05,9,1
-0.000174282,0.0001098185,9,1
-0.0001381414,0.0001137081,9,1
-7.477388e-05,0.0001096565,9,1
1.112074e-05,0.0001022015,9,1
0.0001138702,9.53947e-05,9,1
0.0002303951,9.199134e-05,9,1
0.0003501615,9.426025e-05,9,1
0.0004548557,9.701536e-05,9,1
0.0005279472,9.393612e-05,9,1
0.0005683015,8.712937e-05,9,1
0.0005804563,8.113296e-05,9,1
0.0005728393,7.756752e-05,9,1
0.0005486915,7.6271e-05,9,1
0.0005063924,7.57848e-05,9,1
0.0004368664,7.57848e-05,9,1
0.0003352514,7.189524e-05,9,1
0.0002112714,5.844381e-05,9,1
9.296373e-05,3.299956e-05,9,1
3.179537e-06,1.002961e-07,9,1
-4.884343e-05,-3.182657e-05,9,1
-6.553616e-05,-5.532604e-05,9,1
-5.921561e-05,-6.974985e-05,9,1
-4.38194e-05,-7.947377e-05,9,1
-2.826114e-05,-8.530812e-05,9,1
-2.307504e-05,-8.611845e-05,9,1
-2.7937e-05,-7.785312e-05,9,1
-3.474375e-05,-5.840528e-05,9,1
-4.300908e-05,-3.004385e-05,9,1
-5.402952e-05,1.072688e-06,9,1
-7.023606e-05,2.829966e-05,9,1
-9.2439e-05,4.645098e-05,9,1
-0.0001211246,5.844381e-05,9,1
-0.0001553203,6.589881e-05,9,1
-0.000189192,7.092284e-05,9,1
-0.0002156086,7.400208e-05,9,1
-0.0002267911,7.432621e-05,9,1
-0.0002220912,7.270556e-05,9,1
-0.0002034537,7.043665e-05,9,1
-0.0001759026,6.930219e-05,9,1
-0.0001407345,6.78436e-05,9,1
-0.0001016767,6.41161e-05,9,1
-6.261898e-05,5.56887e-05,9,1
-2.696461e-05,4.483033e-05,9,1
-2.238346e-07,3.478228e-05,9,1
1.063454e-05,3.202716e-05,9,1
-1.844488e-06,3.915804e-05,9,1
-4.187462e-05,5.115087e-05,9,1
-0.0001117248,6.233338e-05,9,1
-0.0002058847,6.800567e-05,9,1
-0.0003086341,6.508849e-05,9,1
-0.0004008493,5.341979e-05,9,1
-0.0004682684,3.753739e-05,9,1
-0.0005066779,2.327564e-05,9,1
-0.0005172121,1.355172e-05,9,1
-0.0005031124,6.420843e-06,9,1
-0.0004715097,-2.006553e-06,9,1
-0.0004284004,-1.3027e-05,9,1
-0.0003708672,-2.550602e-05,9,1
-0.0002911311,-3.344723e-05,9,1
-0.0001872472,-3.620233e-05,9,1
-7.65566e-05,-3.604027e-05,9,1
2.068259e-05,-3.522994e-05,9,1
9.669123e-05,-3.798505e-05,9,1
0.0001542244,-4.608832e-05,9,1
0.0001992786,-5.808115e-05,9,1
0.0002383363,-6.845333e-05,9,1
0.000274801,-7.282909e-05,9,1
0.0003075383,-7.104638e-05,9,1
0.0003294171,-6.423963e-05,9,1
0.0003347652,-5.629844e-05,9,1
0.0003266619,-5.013995e-05,9,1
0.0003164518,-4.592625e-05,9,1
0.0003089969,-4.317115e-05,9,1
0.0003018659,-4.43056e-05,9,1
0.0002876042,-4.997789e-05,9,1
0.0002649151,-5.937768e-05,9,1
0.0002402811,-6.650855e-05,9,1
0.0002187264,-6.845333e-05,9,1
0.0001974959,-6.456377e-05,9,1
0.0001662173,-5.824322e-05,9,1
0.0001158149,-4.80331e-05,9,1
3.964424e-05,-3.231277e-05,9,1
-5.824322e-05,-1.480971e-05,9,1
-0.000159372,2.855407e-06,9,1
-0.0002350565,1.841368e-05,9,1
-0.0002639041,3.251336e-05,9,1
-0.0002378116,4.564065e-05,9,1
-0.0001579134,5.779555e-05,9,1
-3.68506e-05,6.849186e-05,9,1
0.0001047945,7.999851e-05,9,1
0.0002401191,9.247754e-05,9,1
0.0003475684,0.0001041462,9,1
0.0004138531,0.0001141943,9,1
0.0004386491,0.0001240803,9,1
0.0004237391,0.0001312112,9,1
0.000373985,0.0001368834,9,1
0.0002986247,0.0001428799,9,1
0.0002098128,0.0001493625,9,1
0.0001188942,0.0001569795,9,1
3.640293e-05,0.0001647587,9,1
-3.182657e-05,0.0001722137,9,1
-7.931171e-05,0.0001757791,9,1
-0.0001005423,0.0001770756,9,1
-9.568031e-05,0.0001803169,9,1
-7.023606e-05,0.0001867996,9,1
-3.101625e-05,0.000192796,9,1
1.209313e-05,0.0001973338,9,1
5.277153e-05,0.0002005751,9,1
7.935024e-05,0.0001992786,9,1
8.275361e-05,0.0001908512,9,1
5.99024e-05,0.0001746447,9,1
1.808955e-05,0.0001524417,9,1
-3.085418e-05,0.0001248906,9,1
-7.752899e-05,9.280167e-05,9,1
-0.0001191798,6.03886e-05,9,1
-0.0001618029,3.267542e-05,9,1
-0.0002023193,8.203562e-06,9,1
-0.0002347323,-1.902341e-05,9,1
-0.0002519113,-5.046408e-05,9,1
-0.0002553146,-8.255302e-05,9,1
-0.0002496423,-0.0001088076,9,1
-0.0002408908,-0.0001279313,9,1
-0.0002321393,-0.0001358725,9,1
-0.0002261429,-0.0001314967,9,1
-0.000224036,-0.0001154523,9,1
-0.0002209568,-8.838737e-05,9,1
-0.0002122053,-5.840528e-05,9,1
-0.0002021572,-3.587821e-05,9,1
-0.0002002124,-2.826114e-05,9,1
-0.0002071812,-3.879538e-05,9,1
-0.0002170672,-6.342931e-05,9,1
-0.0002212809,-9.535618e-05,9,1
-0.0002122053,-0.0001230693,9,1
-0.000189192,-0.0001407345,9,1
-0.0001616409,-0.000151917,9,1
-0.0001349001,-0.0001637477,9,1
-0.0001036215,-0.0001776853,9,1
-6.261898e-05,-0.0001927574,9,1
-1.318906e-05,-0.000206695,9,1
3.18651e-05,-0.0002175534,9,1
5.714729e-05,-0.0002225774,9,1
5.56887e-05,-0.0002147983,9,1
4.369587e-05,-0.0001883817,9,1
4.288554e-05,-0.0001447861,9,1
6.492643e-05,-9.130454e-05,9,1
0.0001002567,-3.604027e-05,9,1
0.0001326697,1.355172e-05,9,1
0.0001459591,4.969229e-05,9,1
0.0001341283,6.962632e-05,9,1
9.863601e-05,7.708133e-05,9,1
4.645098e-05,7.67572e-05,9,1
-7.516774e-06,7.30297e-05,9,1
-4.819517e-05,7.20573e-05,9,1
-6.504996e-05,7.059871e-05,9,1
-5.872941e-05,6.703327e-05,9,1
-3.26369e-05,5.795762e-05,9,1
1.533444e-05,4.45062e-05,9,1
8.42122e-05,2.586868e-05,9,1
0.0001667035,1.234753e-06,9,1
0.000250005,-2.664048e-05,9,1
0.0003214759,-5.176061e-05,9,1
0.0003717161,-6.796714e-05,9,1
0.0003957018,-7.218083e-05,9,1
0.0003922984,-6.407757e-05,9,1
0.0003632887,-4.608832e-05,9,1
0.0003209897,-1.967167e-05,9,1
0.0002807975,1.533444e-05,9,1
0.000254867,5.99024e-05,9,1
0.000244981,0.0001094944,9,1
0.0002478982,0.0001611932,9,1
0.0002629703,0.0002119197,9,1
0.0002840388,0.0002590807,9,1
0.0002992729,0.0002971661,9,1
0.0002960316,0.0003209897,9,1
0.0002705873,0.0003290929,9,1
0.0002318537,0.0003219621,9,1
0.0001908512,0.0002997591,9,1
0.0001566554,0.0002683184,9,1
0.0001261871,0.0002323399,9,1
0.0001009049,0.000200251,9,1
8.04847e-05,0.0001739964,9,1
6.200925e-05,0.0001516314,9,1
4.110282e-05,0.000128294,9,1
1.517237e-05,9.798775e-05,9,1
-1.335113e-05,6.168512e-05,9,1
-3.992984e-05,2.473423e-05,9,1
-6.06742e-05,-6.868513e-06,9,1
-7.60704e-05,-3.312309e-05,9,1
-8.692878e-05,-5.240886e-05,9,1
-9.66527e-05,-6.213279e-05,9,1
-0.0001071869,-6.537409e-05,9,1
-0.0001183694,-6.731888e-05,9,1
-0.0001313347,-7.347736e-05,9,1
-0.0001499722,-8.628052e-05,9,1
-0.0001770371,-0.0001032974,9,1
-0.0002050744,-0.0001170729,9,1
-0.0002227395,-0.0001225832,9,1
-0.0002276015,-0.0001178833,9,1
-0.0002235498,-9.940781e-05,9,1
-0.0002149604,-6.764301e-05,9,1
-0.0002002124,-2.907146e-05,9,1
-0.0001799543,9.500085e-06,9,1
-0.0001561307,4.142696e-05,9,1
-0.0001259865,6.719535e-05,9,1
-9.29252e-05,8.712937e-05,9,1
-7.169464e-05,0.0001023635,9,1
-7.60704e-05,0.000110953,9,1
-0.0001052422,0.0001132219,9,1
-0.0001408965,0.0001065772,9,1
-0.0001655305,8.972242e-05,9,1
-0.0001661787,6.525056e-05,9,1
-0.0001421931,3.899597e-05,9,1
-0.0001067007,1.403791e-05,9,1
-7.688073e-05,-8.002969e-06,9,1
-6.537409e-05,-2.826114e-05,9,1
-6.683268e-05,-4.835724e-05,9,1
-6.796714e-05,-6.667062e-05,9,1
-5.921561e-05,-8.287715e-05,9,1
-3.798505e-05,-9.649064e-05,9,1
-1.318906e-05,-0.0001063766,9,1
9.338019e-06,-0.0001139937,9,1
2.424803e-05,-0.0001235555,9,1
3.413401e-05,-0.0001350622,9,1
5.115087e-05,-0.0001464067,9,1
8.518459e-05,-0.0001532135,9,1
0.0001386662,-0.0001590478,9,1
0.0002046267,-0.0001647201,9,1
0.0002710735,-0.0001689338,9,1
0.0003277964,-0.000166989,9,1
0.000368961,-0.0001583996,9,1
0.0003910019,-0.0001425172,9,1
0.000398619,-0.0001183694,9,1
0.0004004017,-9.130454e-05,9,1
0.0004059119,-6.39155e-05,9,1
0.0004177427,-4.074016e-05,9,1
0.0004274666,-2.113026e-05,9,1
0.0004192013,-3.14101e-06,9,1
0.0003819262,1.630683e-05,9,1
0.0003078624,3.672706e-05,9,1
0.0002030061,5.487838e-05,9,1
8.712937e-05,6.525056e-05,9,1
-2.161646e-05,6.687121e-05,9,1
-0.0001128592,5.974033e-05,9,1
-0.0001825473,4.82337e-05,9,1
-0.0002248464,3.786152e-05,9,1
-0.0002360289,3.397195e-05,9,1
-0.000213988,3.964424e-05,9,1
-0.0001582375,5.244739e-05,9,1
-6.974985e-05,6.800567e-05,9,1
4.515445e-05,8.259155e-05,9,1
0.0001707551,9.68533e-05,9,1
0.0002811216,0.0001116012,9,1
0.0003551855,0.0001240803,9,1
0.0003871123,0.0001295905,9,1
0.0003828986,0.0001278078,9,1
0.000353889,0.0001214872,9,1
0.0003081865,0.0001143563,9,1
0.0002446569,0.0001094944,9,1
0.0001673517,0.0001086841,9,1
7.740546e-05,0.000113546,9,1
-1.545797e-05,0.0001232699,9,1
-0.0001026491,0.000135911,9,1
-0.0001721751,0.0001466074,9,1
-0.0002167431,0.0001503349,9,1
-0.0002350565,0.0001461212,9,1
-0.000233922,0.0001367214,9,1
-0.0002245222,0.0001268354,9,1
-0.0002180396,0.0001195424,9,1
-0.0002225774,0.0001175977,9,1
-0.0002382978,0.0001257009,9,1
-0.0002541802,0.0001461212,9,1
-0.0002567732,0.0001751309,9,1
-0.0002425115,0.000205275,9,1
-0.000223874,0.0002315296,9,1
-0.0002177155,0.0002529222,9,1
-0.0002306807,0.0002678322,9,1
-0.000253694,0.0002736666,9,1
-0.0002697385,0.0002618358,9,1
-0.0002681178,0.000225047,9,1
-0.000246401,0.0001670276,9,1
-0.0002070192,9.847395e-05,9,1
-0.0001575893,3.170304e-05,9,1
-0.0001029732,-2.177852e-05,9,1
-4.219875e-05,-5.451572e-05,9,1
3.121684e-05,-6.407757e-05,9,1
0.0001214872,-5.208474e-05,9,1
0.000225047,-2.680255e-05,9,1
0.0003328204,-7.100305e-07,9,1
0.000435732,1.727922e-05,9,1
0.0005227611,2.34377e-05,9,1
0.0005815908,1.744129e-05,9,1
0.000596825,3.665733e-06,9,1
0.0005535535,-1.464765e-05,9,1
0.0004499937,-3.668853e-05,9,1
0.0003008936,-6.035007e-05,9,1
0.0001334801,-8.303922e-05,9,1
-2.177852e-05,-0.0001044318,9,1
-0.0001425172,-0.000122259,9,1
-0.0002212809,-0.0001353863,9,1
-0.0002697385,-0.0001462447,9,1
-0.0003065273,-0.0001611547,9,1
-0.0003467195,-0.0001831956,9,1
-0.0003942046,-0.0002120432,9,1
-0.0004405553,-0.0002402425,9,1
-0.0004690787,-0.0002595283,9,1
-0.0004681064,-0.0002653627,9,1
-0.0004363416,-0.0002574215,9,1
-0.0003822118,-0.0002352185,9,1
-0.0003172236,-0.0002058847,9,1
-0.0002522354,-0.0001755785,9,1
-0.0001971332,-0.0001511067,9,1
-0.0001579134,-0.0001361966,9,1
-0.0001305243,-0.0001329553,9,1
-0.0001094559,-0.0001381414,9,1
-9.081835e-05,-0.0001475412,9,1
-7.898758e-05,-0.0001524032,9,1
-7.266703e-05,-0.0001465688,9,1
-6.958779e-05,-0.0001240417,9,1
-6.261898e-05,-8.709085e-05,9,1
-4.236082e-05,-4.219875e-05,9,1
-8.975362e-06,9.106227e-07,9,1
2.554455e-05,3.462021e-05,9,1
4.742337e-05,5.601284e-05,9,1
5.325772e-05,6.703327e-05,9,1
4.320967e-05,6.978839e-05,9,1
2.100672e-05,6.735741e-05,9,1
-1.20546e-05,6.362991e-05,9,1
-5.516398e-05,6.46023e-05,9,1
-0.0001021629,6.930219e-05,9,1
-0.0001397621,7.837785e-05,9,1
-0.0001559686,8.74535e-05,9,1
-0.0001473791,9.150514e-05,9,1
-0.0001233935,8.583286e-05,9,1
-9.649064e-05,7.221937e-05,9,1
-7.526008e-05,5.487838e-05,9,1
-5.872941e-05,3.93201e-05,9,1
-3.944364e-05,3.154097e-05,9,1
-1.221667e-05,3.55926e-05,9,1
2.01964e-05,4.758544e-05,9,1
4.807163e-05,6.055066e-05,9,1
6.395404e-05,7.108491e-05,9,1
6.622294e-05,7.708133e-05,9,1
5.358185e-05,7.918817e-05,9,1
2.732727e-05,8.016057e-05,9,1
-5.734056e-06,8.226741e-05,9,1
-3.68506e-05,8.583286e-05,9,1
-5.662256e-05,9.280167e-05,9,1
-5.970181e-05,0.0001043083,9,1
-5.111234e-05,0.0001164632,9,1
-4.106429e-05,0.0001242423,9,1
-3.539201e-05,0.0001211631,9,1
-2.939559e-05,0.0001049566,9,1
-1.659243e-05,7.756752e-05,9,1
2.531276e-06,4.645098e-05,9,1
2.586868e-05,1.889987e-05,9,1
5.19612e-05,-3.303076e-06,9,1
7.789165e-05,-2.258885e-05,9,1
0.0001002567,-4.641245e-05,9,1
0.0001156529,-7.509801e-05,9,1
0.0001203528,-9.811128e-05,9,1
0.0001124116,-0.0001024871,9,1
9.16672e-05,-8.336335e-05,9,1
6.217132e-05,-4.511593e-05,9,1
2.959619e-05,-2.238346e-07,9,1
2.693341e-06,4.094075e-05,9,1
-1.724069e-05,7.481241e-05,9,1
-3.182657e-05,0.0001002567,9,1
-4.009191e-05,0.0001182459,9,1
-4.203669e-05,0.0001273216,9,1
-2.84232e-05,0.0001313732,9,1
1.22552e-05,0.0001302388,9,1
7.967438e-05,0.000123432,9,1
0.0001647587,0.000113384,9,1
0.0002610255,0.0001039842,9,1
0.0003522683,9.377406e-05,9,1
0.0004230909,7.983644e-05,9,1
0.0004624728,6.476436e-05,9,1
0.0004632831,5.066468e-05,9,1
0.0004274666,3.802358e-05,9,1
0.0003678266,2.376183e-05,9,1
0.0003026763,4.80019e-06,9,1
0.0002472499,-1.545797e-05,9,1
0.0002096508,-3.134038e-05,9,1
0.0001892305,-3.895745e-05,9,1
0.0001806411,-3.733679e-05,9,1
0.0001777239,-3.441962e-05,9,1
0.0001697827,-3.798505e-05,9,1
0.0001517934,-5.176061e-05,9,1
0.0001291043,-7.218083e-05,9,1
0.0001077117,-9.146661e-05,9,1
8.923623e-05,-0.0001067007,9,1
7.416415e-05,-0.0001152902,9,1
6.006447e-05,-0.0001164247,9,1
4.855783e-05,-0.000107349,9,1
3.786152e-05,-8.82253e-05,9,1
2.262738e-05,-6.06742e-05,9,1
3.827799e-06,-3.150244e-05,9,1
-1.318906e-05,-5.734056e-06,9,1
-2.696461e-05,1.565857e-05,9,1
-4.041603e-05,3.299956e-05,9,1
-5.111234e-05,4.953022e-05,9,1
-5.710876e-05,6.492643e-05,9,1
-5.483985e-05,7.67572e-05,9,1
-4.365734e-05,8.259155e-05,9,1
-2.777494e-05,8.631905e-05,9,1
-1.367526e-05,8.891209e-05,9,1
-2.006553e-06,8.923623e-05,9,1
5.610517e-06,8.891209e-05,9,1
5.610517e-06,9.069481e-05,9,1
-6.176923e-08,9.701536e-05,9,1
-6.868513e-06,0.0001073875,9,1
-1.010982e-05,0.0001180839,9,1
-8.813297e-06,0.0001206769,9,1
4.244267e-07,0.0001125736,9,1
2.732727e-05,9.652917e-05,9,1
7.805372e-05,8.064677e-05,9,1
0.0001399627,7.157111e-05,9,1
0.0001940925,7.092284e-05,9,1
0.0002290986,7.52986e-05,9,1
0.0002467637,8.097089e-05,9,1
0.0002592428,8.84259e-05,9,1
0.0002851732,0.0001023635,9,1
0.0003326584,0.0001195424,9,1
0.0003957018,0.000135749,9,1
0.0004590694,0.0001490383,9,1
0.0005123889,0.0001548727,9,1
0.0005462606,0.0001495245,9,1
0.0005483674,0.0001380179,9,1
0.0005104441,0.0001273216,9,1
0.0004342734,0.000121001,9,1
0.00033671,0.0001195424,9,1
0.0002329882,0.0001185701,9,1
0.0001336421,0.0001161391,9,1
4.239934e-05,0.0001119254,9,1
-3.506788e-05,0.0001064152,9,1
-9.519411e-05,0.0001018773,9,1
-0.0001373311,9.393612e-05,9,1
-0.000164396,8.42122e-05,9,1
-0.0001780095,7.384002e-05,9,1
-0.0001844921,6.703327e-05,9,1
-0.0001904885,6.346784e-05,9,1
-0.0002032917,5.844381e-05,9,1
-0.0002232257,5.19612e-05,9,1
-0.000253856,4.369587e-05,9,1
-0.0002958309,3.510641e-05,9,1
-0.000345585,2.846173e-05,9,1
-0.0003998769,2.246531e-05,9,1
-0.0004600031,1.160693e-05,9,1
-0.0005248293,-2.978945e-06,9,1
-0.000586252,-1.724069e-05,9,1
-0.0006381128,-2.939559e-05,9,1
-0.0006739292,-3.814712e-05,9,1
-0.000688191,-4.268495e-05,9,1
-0.0006787913,-4.673658e-05,9,1
-0.0006413542,-5.095028e-05,9,1
-0.0005697213,-5.338126e-05,9,1
-0.0004655133,-5.370539e-05,9,1
-0.000345585,-5.532604e-05,9,1
-0.000231491,-5.791909e-05,9,1
-0.0001324691,-6.407757e-05,9,1
-4.689865e-05,-7.882551e-05,9,1
2.992031e-05,-0.0001008664,9,1
9.555677e-05,-0.0001217728,9,1
0.0001344524,-0.0001339277,9,1
0.0001419075,-0.0001332795,9,1
0.0001318594,-0.0001238797,9,1
0.000123432,-0.0001151281,9,1
0.0001271595,-0.0001139937,9,1
0.0001477418,-0.0001185315,9,1
0.0001822617,-0.0001251762,9,1
0.000217754,-0.0001316588,9,1
0.0002394708,-0.0001336036,9,1
0.0002373639,-0.0001285796,9,1
0.0002148369,-0.0001154523,9,1
0.0001961994,-0.0001003802,9,1
0.0002049509,-9.114248e-05,9,1
0.0002490327,-9.260107e-05,9,1
0.0003148312,-0.0001063766,9,1
0.0003819262,-0.0001259865,9,1
0.0004271425,-0.0001418689,9,1
0.0004248736,-0.0001439758,9,1
0.0003535648,-0.0001293899,9,1
0.0002141886,-0.0001045939,9,1
3.380988e-05,-7.542214e-05,9,1
-0.0001475412,-4.641245e-05,9,1
-0.0002958309,-2.0482e-05,9,1
-0.0003895047,3.503668e-06,9,1
-0.0004238625,2.554455e-05,9,1
-0.0004112214,4.693717e-05,9,1
-0.0003773498,6.768154e-05,9,1
-0.0003402368,8.307774e-05,9,1
-0.0003084721,9.101894e-05,9,1
-0.0002750866,9.507057e-05,9,1
-0.0002282497,9.977047e-05,9,1
-0.0001624512,0.0001056048,9,1
-9.098041e-05,0.0001090082,9,1
-3.587821e-05,0.0001077117,9,1
-1.286493e-05,0.0001004187,9,1
-1.788895e-05,9.053275e-05,9,1
-3.360929e-05,8.178122e-05,9,1
-3.847125e-05,7.384002e-05,9,1
-1.772689e-05,6.78436e-05,9,1
3.089271e-05,6.573675e-05,9,1
9.523264e-05,6.589881e-05,9,1
0.0001587623,6.427817e-05,9,1
0.0002109473,6.03886e-05,9,1
0.0002535705,5.633696e-05,9,1
0.0002924662,5.374392e-05,9,1
0.0003303894,5.001642e-05,9,1
0.0003634508,4.013043e-05,9,1
0.0003830607,2.230325e-05,9,1
0.0003850055,-8.720959e-07,9,1
0.0003736609,-2.388537e-05,9,1
0.0003584268,-4.317115e-05,9,1
0.0003457857,-5.467778e-05,9,1
0.0003438409,-5.613637e-05,9,1
0.0003585888,-4.673658e-05,9,1
0.0003772264,-2.923353e-05,9,1
0.0003817642,-5.247859e-06,9,1
0.0003628026,1.9224e-05,9,1
0.0003200173,4.126489e-05,9,1
0.0002584324,5.601284e-05,9,1
0.0001835583,6.200925e-05,9,1
0.0001022015,5.957827e-05,9,1
2.619281e-05,4.920609e-05,9,1
-3.571614e-05,3.688912e-05,9,1
-7.769106e-05,2.781346e-05,9,1
-0.0001058904,2.538249e-05,9,1
-0.0001340898,2.651694e-05,9,1
-0.0001733096,2.81376e-05,9,1
-0.0002207947,2.862379e-05,9,1
-0.0002639041,2.910999e-05,9,1
-0.0002951827,2.992031e-05,9,1
-0.0003123616,2.748934e-05,9,1
-0.000318358,2.165498e-05,9,1
-0.0003164132,1.517237e-05,9,1
-0.0003065273,1.241726e-05,9,1
-0.0002882139,1.744129e-05,9,1
-0.0002656868,3.089271e-05,9,1
-0.0002434839,5.19612e-05,9,1
-0.0002173914,7.011252e-05,9,1
-0.0001861127,7.691926e-05,9,1
-0.0001546721,7.20573e-05,9,1
-0.0001313347,5.844381e-05,9,1
-0.0001204763,4.110282e-05,9,1
-0.0001204763,2.246531e-05,9,1
-0.0001289037,5.286387e-06,9,1
-0.0001389517,-6.382317e-06,9,1
-0.000147055,-1.173047e-05,9,1
-0.0001509446,-1.059602e-05,9,1
-0.0001561307,-6.382317e-06,9,1
-0.0001632615,-6.058186e-06,9,1
-0.0001681235,-1.075808e-05,9,1
-0.0001656925,-1.707863e-05,9,1
-0.0001574272,-2.275091e-05,9,1
-0.0001506204,-2.923353e-05,9,1
-0.0001517549,-3.814712e-05,9,1
-0.0001561307,-4.673658e-05,9,1
-0.0001559686,-4.673658e-05,9,1
-0.0001418689,-3.571614e-05,9,1
-0.0001110765,-1.432352e-05,9,1
-6.926366e-05,9.175954e-06,9,1
-2.647842e-05,2.457216e-05,9,1
5.286387e-06,2.732727e-05,9,1
1.987227e-05,2.457216e-05,9,1
2.39239e-05,2.667901e-05,9,1
2.829966e-05,3.883391e-05,9,1
3.964424e-05,5.52025e-05,9,1
5.1475e-05,6.638502e-05,9,1
5.504044e-05,6.930219e-05,9,1
4.483033e-05,6.83298e-05,9,1
2.732727e-05,7.238143e-05,9,1
1.387585e-05,8.372601e-05,9,1
2.052053e-05,9.766362e-05,9,1
4.888196e-05,0.0001091703,9,1
9.182927e-05,0.0001145184,9,1
0.0001344524,0.000113384,9,1
0.0001707551,0.0001051186,9,1
0.0002049509,9.442231e-05,9,1
0.0002383363,8.502253e-05,9,1
0.0002594049,7.983644e-05,9,1
0.0002560015,8.097089e-05,9,1
0.0002287745,8.74535e-05,9,1
0.0001858272,9.750156e-05,9,1
0.0001414213,0.0001091703,9,1
0.0001075496,0.0001224596,9,1
8.550872e-05,0.0001388282,9,1
6.78436e-05,0.0001613553,9,1
4.742337e-05,0.0001895547,9,1
2.278944e-05,0.0002148369,9,1
-3.627206e-06,0.0002321778,9,1
-2.42095e-05,0.0002359054,9,1
-3.393342e-05,0.0002247229,9,1
-3.069211e-05,0.0001976579,9,1
-1.643037e-05,0.0001590864,9,1
3.341602e-06,0.0001172735,9,1
2.586868e-05,8.080883e-05,9,1
4.936815e-05,5.552663e-05,9,1
6.816773e-05,3.769945e-05,9,1
8.712937e-05,2.522042e-05,9,1
0.0001112771,1.565857e-05,9,1
0.0001420695,4.638125e-06,9,1
0.0001710792,-1.62683e-05,9,1
0.0001866375,-4.706071e-05,9,1
0.0001795066,-8.02841e-05,9,1
0.0001479039,-0.0001079973,9,1
0.0001004187,-0.000127121,9,1
4.337174e-05,-0.0001397621,9,1
-1.691656e-05,-0.0001580754,9,1
-7.412562e-05,-0.000191785,9,1
-0.0001175591,-0.0002381357,9,1
-0.0001412206,-0.0002844864,9,1
-0.0001439758,-0.0003130099,9,1
-0.000127283,-0.0003167374,9,1
-9.746302e-05,-0.000301017,9,1
-6.148453e-05,-0.0002752487,9,1
-2.437157e-05,-0.0002468872,9,1
9.66215e-06,-0.0002225774,9,1
3.494434e-05,-0.0002029675,9,1
4.515445e-05,-0.0001851404,9,1
3.883391e-05,-0.0001686097,9,1
1.9224e-05,-0.0001533756,9,1
-6.058186e-06,-0.0001381414,9,1
-2.339918e-05,-0.0001232314,9,1
-2.356124e-05,-0.0001024871,9,1
-3.303076e-06,-7.412562e-05,9,1
3.251336e-05,-4.05781e-05,9,1
6.897806e-05,-6.382317e-06,9,1
9.620504e-05,2.278944e-05,9,1
0.0001153287,3.883391e-05,9,1
0.0001355869,3.316162e-05,9,1
0.0001600588,5.124321e-06,9,1
0.0001824238,-3.749886e-05,9,1
0.0001856651,-7.882551e-05,9,1
0.0001582761,-0.0001015147,9,1
0.0001046324,-9.211487e-05,9,1
4.547859e-05,-4.85193e-05,9,1
7.485573e-07,2.149292e-05,9,1
-7.192643e-06,0.0001030118,9,1
3.721326e-05,0.000177886,9,1
0.0001299146,0.0002302331,9,1
0.0002440086,0.0002530843,9,1
0.0003433547,0.0002493568,9,1
0.0003929467,0.000225209,9,1
0.0003775505,0.0001871237,9,1
0.0003033245,0.0001391524,9,1
0.0001960373,8.42122e-05,9,1
9.037068e-05,2.684107e-05,9,1
1.97102e-05,-2.728874e-05,9,1
3.989864e-06,-7.137051e-05,9,1
3.93201e-05,-9.843541e-05,9,1
0.0001017153,-0.000112211,9,1
0.0001602208,-0.0001173971,9,1
0.0001950649,-0.0001136696,9,1
0.0001968476,-9.908367e-05,9,1
0.0001699448,-7.590833e-05,9,1
0.0001315353,-5.062615e-05,9,1
0.0001051186,-2.826114e-05,9,1
0.0001051186,-1.189254e-05,9,1
0.0001260251,-8.720959e-07,9,1
0.0001511452,1.079661e-05,9,1
0.0001658931,3.008238e-05,9,1
0.0001683241,5.876794e-05,9,1
0.0001633001,9.31258e-05,9,1
0.0001584381,0.0001255389,9,1
0.0001576278,0.0001474177,9,1
0.0001595726,0.0001547106,9,1
0.0001558451,0.0001480659,9,1
0.0001355869,0.0001318594,9,1
9.555677e-05,0.0001158149,9,1
3.899597e-05,0.0001077117,9,1
-2.809907e-05,0.0001117633,9,1
-9.470791e-05,0.0001291043,9,1
-0.000152079,0.0001500107,9,1
-0.0001961608,0.0001670276,9,1
-0.0002290601,0.0001752929,9,1
-0.0002520733,0.0001738343,9,1
-0.0002679557,0.0001637863,9,1
-0.0002780038,0.0001508211,9,1
-0.0002793003,0.0001402868,9,1
-0.0002731418,0.0001351007,9,1
-0.0002570974,0.0001338042,9,1
-0.0002271153,0.0001304008,9,1
-0.0001820611,0.0001213252,9,1
-0.0001276072,0.0001047945,9,1
-7.65566e-05,8.712937e-05,9,1
-4.122636e-05,7.448828e-05,9,1
-2.064406e-05,6.962632e-05,9,1
-3.789272e-06,7.30297e-05,9,1
2.149292e-05,8.178122e-05,9,1
6.265751e-05,9.182927e-05,9,1
0.0001161391,9.993253e-05,9,1
0.0001668655,0.0001013911,9,1
0.0001945787,0.0001004187,9,1
0.0001861513,0.0001018773,9,1
0.0001438522,0.0001054428,9,1
8.729144e-05,0.0001070634,9,1
3.624086e-05,0.0001004187,9,1
7.485573e-07,8.518459e-05,9,1
-2.258885e-05,6.654708e-05,9,1
-4.38194e-05,5.341979e-05,9,1
-7.007399e-05,4.888196e-05,9,1
-0.0001005423,4.855783e-05,9,1
-0.0001287416,4.499239e-05,9,1
-0.0001478653,3.478228e-05,9,1
-0.0001656925,2.035846e-05,9,1
-0.0001919471,5.772582e-06,9,1
-0.0002235498,-6.058186e-06,9,1
-0.0002475355,-1.318906e-05,9,1
-0.0002566112,-1.902341e-05,9,1
-0.0002570974,-2.907146e-05,9,1
-0.0002567732,-4.47918e-05,9,1
-0.0002603387,-6.213279e-05,9,1
-0.0002684419,-7.428769e-05,9,1
-0.0002767073,-8.141856e-05,9,1
-0.0002783279,-8.611845e-05,9,1
-0.0002671454,-8.806324e-05,9,1
-0.000236353,-8.530812e-05,9,1
-0.0001810887,-7.65566e-05,9,1
-0.000104756,-6.48879e-05,9,1
-1.691656e-05,-5.59743e-05,9,1
6.508849e-05,-5.062615e-05,9,1
0.0001239182,-4.38194e-05,9,1
0.0001500107,-3.069211e-05,9,1
0.0001417454,-1.173047e-05,9,1
0.0001062531,9.986281e-06,9,1
6.103686e-05,3.218923e-05,9,1
2.408596e-05,4.969229e-05,9,1
-7.100305e-07,5.909208e-05,9,1
-2.080613e-05,5.909208e-05,9,1
-4.187462e-05,5.19612e-05,9,1
-7.153257e-05,4.35338e-05,9,1
-0.0001096179,3.429608e-05,9,1
-0.0001546721,2.700314e-05,9,1
-0.0002011848,2.554455e-05,9,1
-0.0002407288,3.13789e-05,9,1
-0.000266011,4.239934e-05,9,1
-0.0002851347,5.277153e-05,9,1
-0.0003099306,5.682316e-05,9,1
-0.0003478539,5.277153e-05,9,1
-0.0003969597,4.45062e-05,9,1
-0.0004475241,3.510641e-05,9,1
-0.0004875542,2.635488e-05,9,1
-0.0005042469,2.084466e-05,9,1
-0.0004885266,1.857574e-05,9,1
-0.0004272659,1.727922e-05,9,1
-0.0003104168,1.808955e-05,9,1
-0.0001387897,2.165498e-05,9,1
6.346784e-05,2.619281e-05,9,1
0.0002628082,2.862379e-05,9,1
0.0004414042,3.040651e-05,9,1
0.0006012007,3.380988e-05,9,1
0.0007488423,3.996837e-05,9,1
0.0008848152,4.790957e-05,9,1
0.0009925888,5.585077e-05,9,1
0.001045422,6.152305e-05,9,1
0.00102014,6.200925e-05,9,1
0.0009193352,5.633696e-05,9,1
0.000770235,4.531652e-05,9,1
0.0006118971,3.121684e-05,9,1
0.0004843516,1.727922e-05,9,1
0.00041596,6.744974e-06,9,1
0.0004119083,-2.330684e-06,9,1
0.0004490213,-1.20546e-05,9,1
0.0004864584,-2.372331e-05,9,1
0.0004900239,-3.620233e-05,9,1
0.0004444835,-4.641245e-05,9,1
0.0003584268,-5.095028e-05,9,1
0.0002529222,-4.949169e-05,9,1
0.0001534141,-4.85193e-05,9,1
7.513654e-05,-5.159854e-05,9,1
1.776542e-05,-5.791909e-05,9,1
-2.728874e-05,-6.48879e-05,9,1
-6.845333e-05,-7.007399e-05,9,1
-0.0001089697,-7.201877e-05,9,1
-0.0001540238,-7.120844e-05,9,1
-0.0002052365,-6.796714e-05,9,1
-0.0002549905,-6.197072e-05,9,1
-0.0002888622,-5.386745e-05,9,1
-0.0002961551,-4.673658e-05,9,1
-0.0002794623,-4.398147e-05,9,1
-0.0002577456,-4.608832e-05,9,1
-0.0002481838,-5.095028e-05,9,1
-0.0002564491,-5.662256e-05,9,1
-0.0002758969,-6.423963e-05,9,1
-0.0002968033,-6.974985e-05,9,1
-0.000313334,-6.586029e-05,9,1
-0.0003248407,-4.819517e-05,9,1
-0.0003335922,-2.210265e-05,9,1
-0.0003434782,1.072688e-06,9,1
-0.0003541745,2.01964e-05,9,1
-0.000360495,3.526847e-05,9,1
-0.0003507711,4.547859e-05,9,1
-0.0003151167,4.920609e-05,9,1
-0.0002506147,4.369587e-05,9,1
-0.0001679614,3.251336e-05,9,1
-8.790117e-05,2.165498e-05,9,1
-2.696461e-05,1.403791e-05,9,1
8.203562e-06,9.500085e-06,9,1
1.825161e-05,3.017472e-06,9,1
1.193106e-05,-1.092015e-05,9,1
9.106227e-07,-3.604027e-05,9,1
-5.734056e-06,-6.504996e-05,9,1
-8.165035e-06,-8.903562e-05,9,1
-1.286493e-05,-0.0001041077,9,1
-2.064406e-05,-0.0001149661,9,1
-3.21507e-05,-0.0001293899,9,1
-4.527799e-05,-0.0001514308,9,1
-5.59743e-05,-0.0001789819,9,1
-5.613637e-05,-0.0002044261,9,1
-4.171256e-05,-0.0002182017,9,1
-2.0482e-05,-0.0002170672,9,1
-2.978945e-06,-0.0002047502,9,1
8.527692e-06,-0.0001883817,9,1
1.776542e-05,-0.0001737958,9,1
2.910999e-05,-0.0001601823,9,1
4.304761e-05,-0.0001449482,9,1
5.455425e-05,-0.0001242038,9,1
5.747142e-05,-9.260107e-05,9,1
4.693717e-05,-5.2733e-05,9,1
2.441009e-05,-9.947754e-06,9,1
5.86492e-07,2.846173e-05,9,1
-1.189254e-05,6.168512e-05,9,1
-7.354709e-06,9.16672e-05,9,1
1.403791e-05,0.000118408,9,1
4.969229e-05,0.0001409351,9,1
9.16672e-05,0.0001550348,9,1
0.0001331559,0.0001608691,9,1
0.000168,0.0001613553,9,1
0.0001947408,0.000163138,9,1
0.0002137024,0.0001654069,9,1
0.0002216436,0.0001647587,9,1
0.0002188885,0.000160545,9,1
0.0002119197,0.000153252,9,1
0.0002057612,0.0001461212,9,1
0.0001991165,0.0001423936,9,1
0.0001885823,0.0001420695,9,1
0.0001710792,0.0001446626,9,1
0.000140773,0.0001474177,9,1
9.701536e-05,0.0001519555,9,1
4.418206e-05,0.000160545,9,1
-5.085794e-06,0.0001675138,9,1
-4.155049e-05,0.0001671896,9,1
-5.824322e-05,0.0001561692,9,1
-5.791909e-05,0.000138342,9,1
-4.884343e-05,0.0001197045,9,1
-4.138842e-05,0.0001064152,9,1
-4.187462e-05,9.993253e-05,9,1
-5.240886e-05,9.701536e-05,9,1
-6.699475e-05,9.16672e-05,9,1
-7.850138e-05,8.242948e-05,9,1
-8.271508e-05,7.059871e-05,9,1
-8.07703e-05,5.844381e-05,9,1
-7.671866e-05,4.82337e-05,9,1
-7.444975e-05,4.288554e-05,9,1
-7.574627e-05,4.045456e-05,9,1
-8.417367e-05,3.964424e-05,9,1
-9.811128e-05,3.60788e-05,9,1
-0.0001107524,2.667901e-05,9,1
-0.0001141558,1.290346e-05,9,1
-0.000102325,-2.978945e-06,9,1
-7.55842e-05,-1.983374e-05,9,1
-3.749886e-05,-3.425755e-05,9,1
3.503668e-06,-4.05781e-05,9,1
3.867184e-05,-3.668853e-05,9,1
5.860588e-05,-2.42095e-05,9,1
6.022653e-05,-1.20546e-05,9,1
4.758544e-05,-6.868513e-06,9,1
3.121684e-05,-5.89612e-06,9,1
1.744129e-05,-3.303076e-06,9,1
9.338019e-06,2.531276e-06,9,1
4.313994e-06,1.063454e-05,9,1
1.072688e-06,2.068259e-05,9,1
3.179537e-06,3.056858e-05,9,1
1.12828e-05,3.737532e-05,9,1
2.003433e-05,4.175109e-05,9,1
2.34377e-05,4.191315e-05,9,1
1.776542e-05,3.575467e-05,9,1
7.717366e-06,3.040651e-05,9,1
1.883015e-06,3.040651e-05,9,1
5.448452e-06,3.348575e-05,9,1
1.938607e-05,3.721326e-05,9,1
4.304761e-05,3.769945e-05,9,1
7.011252e-05,4.013043e-05,9,1
8.988449e-05,4.904402e-05,9,1
0.0001028497,6.557468e-05,9,1
0.0001148425,8.372601e-05,9,1
0.0001315353,9.717743e-05,9,1
0.0001521176,0.0001012291,9,1
0.0001723757,9.863601e-05,9,1
0.0001945787,9.426025e-05,9,1
0.0002158093,8.777764e-05,9,1
0.0002312055,7.853991e-05,9,1
0.0002352571,6.78436e-05,9,1
0.0002281262,5.844381e-05,9,1
0.0002140265,5.439218e-05,9,1
0.0001983062,5.649903e-05,9,1
0.0001859892,6.217132e-05,9,1
0.0001782101,6.768154e-05,9,1
0.0001696206,7.20573e-05,9,1
0.000148228,7.837785e-05,9,1
0.0001012291,8.696731e-05,9,1
2.457216e-05,9.231547e-05,9,1
-7.153257e-05,9.150514e-05,9,1
-0.0001609926,8.696731e-05,9,1
-0.0002211189,8.016057e-05,9,1
-0.000243808,7.238143e-05,9,1
-0.000224036,6.136099e-05,9,1
-0.0001614788,4.790957e-05,9,1
-6.456377e-05,3.883391e-05,9,1
4.045456e-05,3.624086e-05,9,1
0.000121001,3.640293e-05,9,1
0.0001577899,3.753739e-05,9,1
0.0001451488,3.867184e-05,9,1
8.79397e-05,3.996837e-05,9,1
-2.330684e-06,3.98063e-05,9,1
-0.0001071869,3.624086e-05,9,1
-0.0002024813,2.829966e-05,9,1
-0.000261311,1.355172e-05,9,1
-0.000271035,-1.027188e-05,9,1
-0.0002368392,-4.138842e-05,9,1
-0.0001750923,-7.688073e-05,9,1
-0.0001063766,-0.0001101041,9,1
-4.90055e-05,-0.0001337657,9,1
-1.010982e-05,-0.0001451102,9,1
1.776542e-05,-0.0001467309,9,1
4.693717e-05,-0.0001449482,9,1
9.004655e-05,-0.0001455964,9,1
0.0001569795,-0.0001501342,9,1
0.0002532463,-0.0001551583,9,1
0.0003785229,-0.0001551583,9,1
0.0005230852,-0.0001442999,9,1
0.000661327,-0.0001211246,9,1
0.0007614834,-9.324933e-05,9,1
0.0008032963,-6.407757e-05,9,1
0.0007806072,-3.830919e-05,9,1
0.0007002227,-2.113026e-05,9,1
0.0005731634,-1.351319e-05,9,1
0.0004200116,-1.497178e-05,9,1
0.0002701012,-2.307504e-05,9,1
0.0001474177,-3.441962e-05,9,1
5.293359e-05,-4.527799e-05,9,1
-2.485776e-05,-5.208474e-05,9,1
-0.0001016767,-5.629844e-05,9,1
-0.0001822232,-5.872941e-05,9,1
-0.0002590421,-5.824322e-05,9,1
-0.0003196545,-5.192267e-05,9,1
-0.0003533641,-4.025397e-05,9,1
-0.0003577399,-2.680255e-05,9,1
-0.0003441264,-1.529591e-05,9,1
-0.000320789,-9.785688e-06,9,1
-0.0002948586,-7.030578e-06,9,1
-0.0002692523,2.207145e-06,9,1
-0.0002451045,2.165498e-05,9,1
-0.0002266291,4.580272e-05,9,1
-0.0002173914,6.525056e-05,9,1
-0.0002162569,7.335383e-05,9,1
-0.0002225774,7.432621e-05,9,1
-0.0002371633,7.367795e-05,9,1
-0.0002570974,7.6271e-05,9,1
-0.0002778417,8.064677e-05,9,1
-0.0002946965,8.729144e-05,9,1
-0.0002974516,9.555677e-05,9,1
-0.0002778417,0.0001038221,9,1
-0.0002386219,0.0001140322,9,1
-0.0001856265,0.0001245665,9,1
-0.000119666,0.0001310491,9,1
-4.171256e-05,0.000125863,9,1
3.705119e-05,0.0001070634,9,1
0.0001041462,7.772959e-05,9,1
0.0001430419,4.82337e-05,9,1
0.0001487142,2.538249e-05,9,1
0.000128294,1.241726e-05,9,1
9.004655e-05,1.079661e-05,9,1
4.693717e-05,2.116879e-05,9,1
7.393236e-06,3.964424e-05,9,1
-2.372331e-05,5.94162e-05,9,1
-4.949169e-05,7.967438e-05,9,1
-8.07703e-05,0.0001030118,9,1
-0.0001274451,0.0001265113,9,1
-0.0001872472,0.0001436902,9,1
-0.000246239,0.0001477418,9,1
-0.0002917793,0.0001368834,9,1
-0.0003154408,0.0001161391,9,1
-0.0003143064,9.588091e-05,9,1
-0.0002908069,8.502253e-05,9,1
-0.0002481838,8.275361e-05,9,1
-0.0001935677,8.486046e-05,9,1
-0.0001310105,8.194328e-05,9,1
-6.083626e-05,7.254349e-05,9,1
1.436204e-05,5.487838e-05,9,1
7.6271e-05,3.008238e-05,9,1
0.000103498,3.665733e-06,9,1
8.502253e-05,-2.615429e-05,9,1
3.105477e-05,-6.06742e-05,9,1
-3.587821e-05,-9.632857e-05,9,1
-8.903562e-05,-0.0001248521,9,1
-0.0001144799,-0.0001392759,9,1
-0.0001170729,-0.0001379794,9,1
-0.0001096179,-0.0001243659,9,1
-0.0001032974,-0.0001055663,9,1
-0.0001102662,-8.563225e-05,9,1
-0.0001313347,-6.472583e-05,9,1
-0.0001580754,-4.414354e-05,9,1
-0.0001733096,-2.437157e-05,9,1
-0.0001676373,-7.516774e-06,9,1
-0.0001394379,4.313994e-06,9,1
-9.551824e-05,8.041497e-06,9,1
-5.127441e-05,4.962256e-06,9,1
-1.788895e-05,-2.492749e-06,9,1
5.86492e-07,-1.059602e-05,9,1
6.744974e-06,-2.226472e-05,9,1
6.582909e-06,-3.63644e-05,9,1
9.500085e-06,-4.85193e-05,9,1
1.695509e-05,-5.548811e-05,9,1
2.927205e-05,-5.451572e-05,9,1
4.239934e-05,-4.689865e-05,9,1
4.888196e-05,-3.717473e-05,9,1
4.304761e-05,-2.712668e-05,9,1
2.781346e-05,-1.821308e-05,9,1
1.679302e-05,-1.140634e-05,9,1
2.052053e-05,-6.868513e-06,9,1
4.288554e-05,-3.951337e-06,9,1
8.583286e-05,-2.006553e-06,9,1
0.000148228,-3.14101e-06,9,1
0.0002203471,-7.516774e-06,9,1
0.0002918179,-1.173047e-05,9,1
0.0003459477,-1.140634e-05,9,1
0.0003704196,-6.868513e-06,9,1
0.0003649094,-2.006553e-06,9,1
0.0003394651,3.827799e-06,9,1
0.0003080245,9.013889e-06,9,1
0.0002908455,1.12828e-05,9,1
0.0002999212,1.160693e-05,9,1
0.0003324963,1.241726e-05,9,1
0.0003734989,1.906194e-05,9,1
0.0004047775,3.235129e-05,9,1
0.0004101256,4.969229e-05,9,1
0.0003877606,6.768154e-05,9,1
0.0003474063,8.518459e-05,9,1
0.0002992729,0.0001020394,9,1
0.000250005,0.0001153287,9,1
0.0002068957,0.0001245665,9,1
0.0001751309,0.0001265113,9,1
0.000155521,0.0001177597,9,1
0.000140773,9.701536e-05,9,1
0.0001231079,6.703327e-05,9,1
9.490851e-05,3.235129e-05,9,1
5.860588e-05,-2.81688e-06,9,1
1.582063e-05,-3.360929e-05,9,1
-2.453363e-05,-5.662256e-05,9,1
-5.192267e-05,-6.845333e-05,9,1
-6.326724e-05,-6.861539e-05,9,1
-6.602235e-05,-5.743289e-05,9,1
-6.731888e-05,-4.025397e-05,9,1
-7.412562e-05,-2.031993e-05,9,1
-8.595638e-05,-1.520357e-06,9,1
-9.956988e-05,1.533444e-05,9,1
-0.0001170729,3.008238e-05,9,1
-0.0001378173,4.126489e-05,9,1
-0.0001590478,4.904402e-05,9,1
-0.0001729855,5.52025e-05,9,1
-0.0001724993,5.94162e-05,9,1
-0.0001447861,6.314371e-05,9,1
-8.012204e-05,6.849186e-05,9,1
2.116879e-05,7.951231e-05,9,1
0.0001396385,0.0001013911,9,1
0.0002454672,0.0001316974,9,1
0.0003153174,0.0001621656,9,1
0.0003397893,0.0001833962,9,1
0.0003255275,0.0001916615,9,1
0.0002835526,0.0001910133,9,1
0.0002271538,0.0001872858,9,1
0.0001667035,0.0001816135,9,1
0.0001073875,0.0001743205,9,1
5.390598e-05,0.0001645966,9,1
5.286387e-06,0.0001504969,9,1
-3.733679e-05,0.0001302388,9,1
-7.088431e-05,0.0001073875,9,1
-9.470791e-05,8.956036e-05,9,1
-0.0001130213,8.129502e-05,9,1
-0.0001245279,7.659513e-05,9,1
-0.0001248521,7.043665e-05,9,1
-0.0001151281,6.119892e-05,9,1
-0.0001000561,4.612685e-05,9,1
-8.530812e-05,2.522042e-05,9,1
-7.380149e-05,2.207145e-06,9,1
-7.039812e-05,-2.194059e-05,9,1
-8.093236e-05,-4.560212e-05,9,1
-0.0001050801,-7.039812e-05,9,1
-0.0001357104,-9.730096e-05,9,1
-0.0001682856,-0.0001277692,9,1
-0.0002049123,-0.0001624512,9,1
-0.0002491561,-0.0001985918,9,1
-0.0002930758,-0.0002321393,9,1
-0.0003248407,-0.0002590421,9,1
-0.0003308371,-0.000276059,9,1
-0.0003154408,-0.0002799486,9,1
-0.0002955068,-0.000266173,9,1
-0.0002758969,-0.0002329496,9,1
-0.0002519113,-0.0001831956,9,1
-0.0002235498,-0.0001331174,9,1
-0.0001953505,-9.2439e-05,9,1
-0.0001716889,-6.407757e-05,9,1
-0.0001481895,-4.722278e-05,9,1
-0.000117235,-3.766092e-05,9,1
-7.671866e-05,-3.377136e-05,9,1
-3.409549e-05,-3.344723e-05,9,1
-6.706447e-06,-2.907146e-05,9,1
-4.113403e-06,-1.821308e-05,9,1
-2.307504e-05,-8.720959e-07,9,1
-5.030202e-05,1.727922e-05,9,1
-7.104638e-05,2.975825e-05,9,1
-7.396356e-05,3.624086e-05,9,1
-6.0188e-05,3.624086e-05,9,1
-3.134038e-05,3.105477e-05,9,1
1.711715e-05,2.424803e-05,9,1
8.875003e-05,2.246531e-05,9,1
0.0001673517,2.748934e-05,9,1
0.0002278021,3.883391e-05,9,1
0.0002534084,5.374392e-05,9,1
0.0002415777,6.78436e-05,9,1
0.0002034923,7.562274e-05,9,1
0.0001594105,7.6271e-05,9,1
0.0001235941,7.124698e-05,9,1
0.0001018773,6.41161e-05,9,1
9.101894e-05,5.747142e-05,9,1
9.053275e-05,5.260946e-05,9,1
0.0001022015,5.228533e-05,9,1
0.0001292664,5.876794e-05,9,1
0.0001701068,6.995045e-05,9,1
0.0002261814,8.210535e-05,9,1
0.0002947351,9.199134e-05,9,1
0.0003679886,9.944634e-05,9,1
0.0004425387,0.0001025256,9,1
0.0005135234,0.0001004187,9,1
0.000572191,9.426025e-05,9,1
0.000604442,8.79397e-05,9,1
0.0006005525,8.680524e-05,9,1
0.0005580913,9.134307e-05,9,1
0.0004880791,9.863601e-05,9,1
0.0004125566,0.0001031738,9,1
0.0003501615,9.863601e-05,9,1
0.0003085106,8.712937e-05,9,1
0.0002851732,7.124698e-05,9,1
0.0002632944,5.714729e-05,9,1
0.0002315296,4.82337e-05,9,1
0.0001908512,4.742337e-05,9,1
0.0001540623,5.390598e-05,9,1
0.0001274836,6.557468e-05,9,1
0.0001062531,7.870197e-05,9,1
8.356394e-05,8.599492e-05,9,1
6.087479e-05,7.870197e-05,9,1
4.969229e-05,5.633696e-05,9,1
6.46023e-05,2.667901e-05,9,1
0.0001057669,1.072688e-06,9,1
0.0001589243,-1.027188e-05,9,1
0.0002041406,-7.192643e-06,9,1
0.0002213195,2.04508e-06,9,1
0.0001945787,1.371378e-05,9,1
0.000121001,2.473423e-05,9,1
8.203562e-06,3.445814e-05,9,1
-0.0001302002,4.45062e-05,9,1
-0.0002771934,5.163707e-05,9,1
-0.00041268,5.374392e-05,9,1
-0.0005201293,5.098881e-05,9,1
-0.0005860899,4.758544e-05,9,1
-0.0006014861,4.531652e-05,9,1
-0.0005677765,4.320967e-05,9,1
-0.0005006815,4.418206e-05,9,1
-0.000422566,4.628891e-05,9,1
-0.000355633,4.612685e-05,9,1
-0.0003185201,4.320967e-05,9,1
-0.0003177098,3.867184e-05,9,1
-0.0003450988,3.624086e-05,9,1
-0.0003836704,4.045456e-05,9,1
-0.0004160834,5.1475e-05,9,1
-0.0004284004,6.654708e-05,9,1
-0.0004196489,7.90261e-05,9,1
-0.0003984183,8.356394e-05,9,1
-0.0003768636,7.805372e-05,9,1
-0.0003577399,6.670914e-05,9,1
-0.0003410472,5.504044e-05,9,1
-0.0003245165,4.35338e-05,9,1
-0.0003002067,3.056858e-05,9,1
-0.000261311,1.630683e-05,9,1
-0.0002096122,5.448452e-06,9,1
-0.0001592099,2.04508e-06,9,1
-0.0001212866,5.934648e-06,9,1
-0.0001021629,1.355172e-05,9,1
-0.0001015147,1.825161e-05,9,1
-0.0001175591,1.663096e-05,9,1
-0.0001391138,5.610517e-06,9,1
-0.0001553203,-1.594417e-05,9,1
-0.000159534,-4.625038e-05,9,1
-0.0001524032,-7.60704e-05,9,1
-0.000134576,-9.454585e-05,9,1
-0.0001117248,-9.762509e-05,9,1
-9.130454e-05,-9.098041e-05,9,1
-7.412562e-05,-7.979791e-05,9,1
-5.613637e-05,-6.602235e-05,9,1
-3.458168e-05,-5.451572e-05,9,1
-9.137427e-06,-4.787104e-05,9,1
1.565857e-05,-4.706071e-05,9,1
3.737532e-05,-4.868137e-05,9,1
5.341979e-05,-5.240886e-05,9,1
6.298164e-05,-5.678463e-05,9,1
6.541262e-05,-6.342931e-05,9,1
6.849186e-05,-6.877746e-05,9,1
7.821578e-05,-7.477388e-05,9,1
9.53947e-05,-8.239095e-05,9,1
0.0001140322,-8.547019e-05,9,1
0.000125863,-8.07703e-05,9,1
0.0001244044,-6.764301e-05,9,1
0.0001098185,-5.435365e-05,9,1
9.004655e-05,-4.916756e-05,9,1
7.351589e-05,-5.030202e-05,9,1
6.751948e-05,-5.710876e-05,9,1
6.962632e-05,-6.926366e-05,9,1
7.594687e-05,-8.02841e-05,9,1
8.161915e-05,-8.07703e-05,9,1
8.550872e-05,-6.861539e-05,9,1
9.296373e-05,-5.095028e-05,9,1
0.00010366,-3.539201e-05,9,1
0.0001125736,-2.485776e-05,9,1
0.0001156529,-1.99958e-05,9,1
0.0001164632,-1.643037e-05,9,1
0.0001211631,-9.299493e-06,9,1
0.0001385041,3.341602e-06,9,1
0.0001762653,2.181705e-05,9,1
0.0002384984,4.158902e-05,9,1
0.0003218,5.893001e-05,9,1
0.0004127187,6.962632e-05,9,1
0.0004901859,7.238143e-05,9,1
0.0005255162,7.011252e-05,9,1
0.0005050959,6.751948e-05,9,1
0.0004392974,6.816773e-05,9,1
0.0003503235,7.432621e-05,9,1
0.0002611876,8.242948e-05,9,1
0.0001833962,8.664318e-05,9,1
0.0001190562,8.518459e-05,9,1
6.606088e-05,7.983644e-05,9,1
2.246531e-05,7.643307e-05,9,1
-1.124428e-05,7.6271e-05,9,1
-3.26369e-05,8.210535e-05,9,1
-4.252288e-05,9.280167e-05,9,1
-4.835724e-05,0.0001031738,9,1
-5.759496e-05,0.0001078737,9,1
-7.120844e-05,0.0001049566,9,1
-8.482193e-05,9.863601e-05,9,1
-9.373552e-05,9.231547e-05,9,1
-9.503204e-05,8.939829e-05,9,1
-9.162867e-05,8.664318e-05,9,1
-8.579432e-05,7.886404e-05,9,1
-7.380149e-05,6.427817e-05,9,1
-4.981582e-05,4.661304e-05,9,1
-1.805102e-05,2.959619e-05,9,1
9.175954e-06,1.144487e-05,9,1
2.619281e-05,-1.075808e-05,9,1
2.797553e-05,-3.539201e-05,9,1
1.679302e-05,-5.532604e-05,9,1
5.86492e-07,-6.407757e-05,9,1
-1.3027e-05,-6.083626e-05,9,1
-1.432352e-05,-4.965376e-05,9,1
5.934648e-06,-4.090223e-05,9,1
4.807163e-05,-3.879538e-05,9,1
9.944634e-05,-4.284701e-05,9,1
0.0001422316,-4.90055e-05,9,1
0.0001589243,-5.32192e-05,9,1
0.0001459591,-5.192267e-05,9,1
0.0001103047,-4.171256e-05,9,1
6.152305e-05,-2.372331e-05,9,1
3.989864e-06,-3.789272e-06,9,1
-5.467778e-05,9.824215e-06,9,1
-0.0001041077,1.193106e-05,9,1
-0.0001358725,6.90704e-06,9,1
-0.0001399241,1.072688e-06,9,1
-0.0001112386,-5.479652e-07,9,1
-5.937768e-05,9.106227e-07,9,1
-3.14101e-06,5.124321e-06,9,1
4.402e-05,1.095867e-05,9,1
7.967438e-05,1.663096e-05,9,1
0.000105929,2.116879e-05,9,1
0.0001255389,2.554455e-05,9,1
0.00013818,2.846173e-05,9,1
0.0001414213,2.684107e-05,9,1
0.000128294,2.489629e-05,9,1
9.31258e-05,2.505836e-05,9,1
4.547859e-05,2.651694e-05,9,1
2.623614e-07,2.781346e-05,9,1
-2.907146e-05,3.170304e-05,9,1
-3.63644e-05,3.883391e-05,9,1
-2.275091e-05,5.098881e-05,9,1
9.106227e-07,6.638502e-05,9,1
2.959619e-05,8.080883e-05,9,1
6.816773e-05,9.037068e-05,9,1
0.0001150046,9.393612e-05,9,1
0.0001600588,9.750156e-05,9,1
0.0001864754,0.0001026876,9,1
0.0001795066,0.0001065772,9,1
0.0001385041,0.0001067393,9,1
7.6271e-05,0.0001009049,9,1
8.203562e-06,8.907416e-05,9,1
-5.32192e-05,7.659513e-05,9,1
-9.29252e-05,6.622294e-05,9,1
-0.0001091317,5.666109e-05,9,1
-0.0001062146,4.515445e-05,9,1
-8.757704e-05,3.024445e-05,9,1
-5.289507e-05,1.663096e-05,9,1
-7.100305e-07,9.66215e-06,9,1
6.687121e-05,1.160693e-05,9,1
0.0001398006,1.565857e-05,9,1
0.000210137,1.727922e-05,9,1
0.0002738286,2.116879e-05,9,1
0.0003247172,3.056858e-05,9,1
0.0003537269,4.871989e-05,9,1
0.0003548613,7.092284e-05,9,1
0.0003321722,8.939829e-05,9,1
0.0002942489,9.944634e-05,9,1
0.000250005,0.0001005808,9,1
0.0002067336,0.0001002567,9,1
0.0001683241,0.0001022015,9,1
0.0001363972,0.0001043083,9,1
0.0001099806,0.0001033359,9,1
8.858796e-05,9.912221e-05,9,1
6.751948e-05,9.26396e-05,9,1
4.888196e-05,8.46984e-05,9,1
3.332369e-05,7.448828e-05,9,1
1.744129e-05,5.974033e-05,9,1
9.106227e-07,4.337174e-05,9,1
-1.432352e-05,2.76514e-05,9,1
-3.117831e-05,1.582063e-05,9,1
-5.840528e-05,5.610517e-06,9,1
-9.956988e-05,-4.275467e-06,9,1
-0.0001473791,-1.869928e-05,9,1
-0.0001888679,-4.025397e-05,9,1
-0.0002147983,-6.359137e-05,9,1
-0.0002201465,-8.40116e-05,9,1
-0.0002013469,-9.811128e-05,9,1
-0.0001588858,-0.0001076731,9,1
-9.940781e-05,-0.0001162626,9,1
-3.717473e-05,-0.000122259,9,1
1.306552e-05,-0.0001237176,9,1
3.883391e-05,-0.0001204763,9,1
3.13789e-05,-0.0001088076,9,1
-1.383732e-05,-8.952183e-05,9,1
-8.725291e-05,-6.521203e-05,9,1
-0.0001708786,-4.625038e-05,9,1
-0.0002460769,-3.992984e-05,9,1
-0.0002963172,-4.527799e-05,9,1
-0.0003138202,-5.483985e-05,9,1
-0.0003019894,-5.937768e-05,9,1
-0.0002705488,-5.192267e-05,9,1
-0.0002303566,-3.198864e-05,9,1
-0.0001838438,-3.465141e-06,9,1
-0.0001387897,2.829966e-05,9,1
-0.0001091317,5.390598e-05,9,1
-0.0001044318,7.157111e-05,9,1
-0.0001183694,8.064677e-05,9,1
-0.0001305243,8.453633e-05,9,1
-0.0001269589,8.486046e-05,9,1
-0.0001070249,8.178122e-05,9,1
-8.07703e-05,7.481241e-05,9,1
-5.69467e-05,6.152305e-05,9,1
-4.041603e-05,4.272347e-05,9,1
-3.717473e-05,1.825161e-05,9,1
-5.370539e-05,-1.189254e-05,9,1
-8.725291e-05,-4.38194e-05,9,1
-0.0001242038,-7.023606e-05,9,1
-0.0001488377,-8.336335e-05,9,1
-0.0001462447,-8.465986e-05,9,1
-0.0001138316,-8.02841e-05,9,1
-6.683268e-05,-7.639453e-05,9,1
-2.583016e-05,-7.65566e-05,9,1
-9.299493e-06,-7.671866e-05,9,1
-2.242678e-05,-7.282909e-05,9,1
-5.678463e-05,-6.407757e-05,9,1
-9.811128e-05,-5.143648e-05,9,1
-0.0001313347,-3.668853e-05,9,1
-0.0001477033,-2.161646e-05,9,1
-0.0001475412,-1.140634e-05,9,1
-0.0001391138,-5.57199e-06,9,1
-0.0001256624,3.827799e-06,9,1
-0.0001096179,2.100672e-05,9,1
-8.514606e-05,4.272347e-05,9,1
-4.738484e-05,6.476436e-05,9,1
6.90704e-06,8.615699e-05,9,1
8.016057e-05,0.0001064152,9,1
0.0001628139,0.000123432,9,1
0.0002286124,0.0001325077,9,1
0.0002564877,0.0001312112,9,1
0.0002362295,0.0001219734,9,1
0.0001739964,0.0001065772,9,1
8.323981e-05,8.810177e-05,9,1
-1.189254e-05,7.157111e-05,9,1
-8.741498e-05,6.168512e-05,9,1
-0.0001211246,5.747142e-05,9,1
-0.0001060525,5.666109e-05,9,1
-5.2733e-05,5.455425e-05,9,1
1.144487e-05,5.163707e-05,9,1
5.504044e-05,4.936815e-05,9,1
6.654708e-05,5.050261e-05,9,1
5.260946e-05,5.601284e-05,9,1
3.008238e-05,6.362991e-05,9,1
1.1769e-05,7.140904e-05,9,1
1.072688e-06,7.57848e-05,9,1
-3.951337e-06,7.351589e-05,9,1
-6.220252e-06,6.103686e-05,9,1
-4.437533e-06,4.418206e-05,9,1
-3.789272e-06,3.332369e-05,9,1
-6.868513e-06,3.526847e-05,9,1
-1.464765e-05,4.888196e-05,9,1
-2.0482e-05,6.78436e-05,9,1
-2.356124e-05,8.113296e-05,9,1
-2.485776e-05,8.875003e-05,9,1
-1.772689e-05,9.16672e-05,9,1
3.989864e-06,9.037068e-05,9,1
3.948217e-05,8.356394e-05,9,1
7.52986e-05,6.768154e-05,9,1
9.63671e-05,4.547859e-05,9,1
0.0001000946,2.473423e-05,9,1
9.604298e-05,1.144487e-05,9,1
9.847395e-05,5.772582e-06,9,1
0.0001112771,5.124321e-06,9,1
0.0001318594,6.258778e-06,9,1
0.0001540623,-2.654814e-06,9,1
0.0001702689,-3.069211e-05,9,1
0.0001767515,-7.671866e-05,9,1
0.0001715654,-0.000127121,9,1
0.0001563313,-0.000166989,9,1
0.0001399627,-0.0001932436,9,1
0.0001294284,-0.0002102605,9,1
0.0001266733,-0.0002229016,9,1
0.0001271595,-0.0002293842,9,1
0.0001273216,-0.000226467,9,1
0.0001289422,-0.0002128535,9,1
0.0001354248,-0.0001890299,9,1
0.0001526038,-0.0001575893,9,1
0.0001822617,-0.0001212866,9,1
0.0002184023,-7.623246e-05,9,1
0.0002529222,-2.161646e-05,9,1
0.0002718839,3.850978e-05,9,1
0.0002650771,9.847395e-05,9,1
0.0002342847,0.0001498487,9,1
0.0001885823,0.0001840444,9,1
0.0001310491,0.0002005751,9,1
6.573675e-05,0.0002013854,9,1
3.503668e-06,0.0001900409,9,1
-4.38194e-05,0.0001728619,9,1
-6.294311e-05,0.0001548727,9,1
-4.608832e-05,0.0001388282,9,1
1.883015e-06,0.0001240803,9,1
6.589881e-05,0.0001044704,9,1
0.0001289422,7.772959e-05,9,1
0.0001801549,4.418206e-05,9,1
0.0002161334,1.047248e-05,9,1
0.0002357433,-1.399939e-05,9,1
0.0002412535,-2.323711e-05,9,1
0.0002384984,-1.740276e-05,9,1
0.0002297469,1.002961e-07,9,1
0.0002124059,1.857574e-05,9,1
0.0001837203,2.781346e-05,9,1
0.0001391524,2.457216e-05,9,1
7.805372e-05,1.338965e-05,9,1
8.365628e-06,7.485573e-07,9,1
-6.035007e-05,-6.706447e-06,9,1
-0.0001276072,-3.14101e-06,9,1
-0.0001953505,1.014835e-05,9,1
-0.0002601766,3.040651e-05,9,1
-0.0003170615,5.1475e-05,9,1
-0.0003582261,6.638502e-05,9,1
-0.0003799429,7.221937e-05,9,1
-0.0003818876,6.881599e-05,9,1
-0.0003671397,6.46023e-05,9,1
-0.0003392644,6.379197e-05,9,1
-0.0002998826,7.124698e-05,9,1
-0.0002499665,8.388807e-05,9,1
-0.0001904885,9.571884e-05,9,1
-0.0001274451,0.0001013911,9,1
-6.893953e-05,9.831188e-05,9,1
-2.258885e-05,8.956036e-05,9,1
8.851824e-06,8.04847e-05,9,1
2.424803e-05,7.546067e-05,9,1
2.716521e-05,7.335383e-05,9,1
2.39239e-05,7.157111e-05,9,1
2.116879e-05,6.670914e-05,9,1
1.97102e-05,6.006447e-05,9,1
1.792748e-05,5.244739e-05,9,1
1.59827e-05,4.304761e-05,9,1
1.744129e-05,3.218923e-05,9,1
1.841368e-05,2.214118e-05,9,1
1.306552e-05,1.095867e-05,9,1
-1.358292e-06,-6.058186e-06,9,1
-2.307504e-05,-2.988179e-05,9,1
-4.835724e-05,-5.451572e-05,9,1
-6.942573e-05,-7.299116e-05,9,1
-7.218083e-05,-7.979791e-05,9,1
-4.236082e-05,-7.623246e-05,9,1
2.586868e-05,-6.958779e-05,9,1
0.0001297526,-6.197072e-05,9,1
0.0002490327,-5.435365e-05,9,1
0.0003525924,-4.916756e-05,9,1
0.0004136911,-4.770897e-05,9,1
0.0004157979,-4.544006e-05,9,1
0.0003613439,-3.847125e-05,9,1
0.000272208,-2.988179e-05,9,1
0.0001795066,-2.664048e-05,9,1
0.0001046324,-2.761287e-05,9,1
5.585077e-05,-2.874733e-05,9,1
2.927205e-05,-2.453363e-05,9,1
1.371378e-05,-1.659243e-05,9,1
-6.868513e-06,-9.299493e-06,9,1
-4.544006e-05,-7.678839e-06,9,1
-0.000102325,-1.237873e-05,9,1
-0.0001703924,-1.480971e-05,9,1
-0.0002340841,-8.975362e-06,9,1
-0.0002812451,5.610517e-06,9,1
-0.0003021515,2.522042e-05,9,1
-0.000298424,4.904402e-05,9,1
-0.000281083,7.189524e-05,9,1
-0.000263742,8.729144e-05,9,1
-0.000251263,9.393612e-05,9,1
-0.000241377,9.571884e-05,9,1
-0.0002256567,9.733949e-05,9,1
-0.0001997262,0.0001022015,9,1
-0.000169258,0.0001062531,9,1
-0.0001400862,0.0001039842,9,1
-0.0001105903,9.393612e-05,9,1
-7.963584e-05,8.210535e-05,9,1
-4.706071e-05,7.562274e-05,9,1
-9.947754e-06,8.016057e-05,9,1
2.748934e-05,9.53947e-05,9,1
5.974033e-05,0.0001151667,9,1
8.615699e-05,0.0001312112,9,1
0.0001130598,0.000135749,9,1
0.0001539003,0.000125863,9,1
0.0002198609,0.0001044704,9,1
0.0003106175,7.983644e-05,9,1
0.0004146635,5.860588e-05,9,1
0.0005148199,4.807163e-05,9,1
0.0005909906,5.066468e-05,9,1
0.0006336138,6.444023e-05,9,1
0.0006423654,8.275361e-05,9,1
0.0006295622,9.896015e-05,9,1
0.0006034696,0.0001065772,9,1
0.0005704083,0.0001049566,9,1
0.0005376711,9.652917e-05,9,1
0.0005114165,8.323981e-05,9,1
0.0004947237,6.687121e-05,9,1
0.0004773828,4.936815e-05,9,1
0.0004417284,3.202716e-05,9,1
0.0003777126,1.501031e-05,9,1
0.0002879283,-5.479652e-07,9,1
0.0001845306,-1.108221e-05,9,1
8.502253e-05,-1.610624e-05,9,1
6.258778e-06,-1.610624e-05,9,1
-4.398147e-05,-1.367526e-05,9,1
-6.683268e-05,-9.299493e-06,9,1
-7.396356e-05,-4.923729e-06,9,1
-8.44978e-05,-7.030578e-06,9,1
-0.0001107524,-1.918548e-05,9,1
-0.0001588858,-3.992984e-05,9,1
-0.0002194982,-6.423963e-05,9,1
-0.0002833519,-8.806324e-05,9,1
-0.0003483401,-0.000107349,9,1
-0.0004037664,-0.0001219349,9,1
-0.0004437966,-0.0001326312,9,1
-0.0004677822,-0.0001376552,9,1
-0.0004786406,-0.0001352242,9,1
-0.0004773441,-0.0001225832,9,1
-0.00046211,-0.0001058904,9,1
-0.0004313175,-9.486997e-05,9,1
-0.0003854531,-9.146661e-05,9,1
-0.0003303509,-9.098041e-05,9,1
-0.000276221,-8.644259e-05,9,1
-0.0002358668,-7.396356e-05,9,1
-0.0002211189,-5.791909e-05,9,1
-0.0002392702,-4.203669e-05,9,1
-0.0002869174,-3.312309e-05,9,1
-0.0003441264,-3.21507e-05,9,1
-0.0003861013,-4.041603e-05,9,1
-0.0004031182,-5.581224e-05,9,1
-0.0003990665,-7.526008e-05,9,1
-0.000385291,-9.049421e-05,9,1
-0.0003702189,-9.681477e-05,9,1
-0.000360495,-9.260107e-05,9,1
-0.0003596847,-7.898758e-05,9,1
-0.0003658432,-6.035007e-05,9,1
-0.0003708672,-4.009191e-05,9,1
-0.0003591985,-2.0482e-05,9,1
-0.0003220855,-5.57199e-06,9,1
-0.0002548284,1.720949e-06,9,1
-0.000159534,4.313994e-06,9,1
-4.495386e-05,6.582909e-06,9,1
7.448828e-05,1.468618e-05,9,1
0.0001863134,2.992031e-05,9,1
0.0002807975,4.904402e-05,9,1
0.0003506476,6.606088e-05,9,1
0.000388895,7.951231e-05,9,1
0.0003944053,9.004655e-05,9,1
0.0003781987,9.944634e-05,9,1
0.0003636129,0.0001054428,9,1
0.000376416,0.0001069013,9,1
0.0004297355,0.0001077117,9,1
0.0005130371,0.0001083599,9,1
0.0005976353,0.0001090082,9,1
0.0006524134,0.0001072255,9,1
0.0006546823,0.0001033359,9,1
0.0005999042,9.766362e-05,9,1
0.0004997478,9.118101e-05,9,1
0.0003744712,8.307774e-05,9,1
0.0002443328,7.221937e-05,9,1
0.0001271595,6.071273e-05,9,1
3.316162e-05,5.228533e-05,9,1
-2.939559e-05,4.547859e-05,9,1
-6.472583e-05,4.061663e-05,9,1
-8.579432e-05,4.061663e-05,9,1
-0.0001007043,4.564065e-05,9,1
-0.0001146419,5.1475e-05,9,1
-0.0001261486,5.487838e-05,9,1
-0.0001319829,5.504044e-05,9,1
-0.0001342519,5.585077e-05,9,1
-0.0001397621,5.844381e-05,9,1
-0.0001480274,5.844381e-05,9,1
-0.0001572651,5.504044e-05,9,1
-0.0001613168,5.050261e-05,9,1
-0.000159534,4.790957e-05,9,1
-0.0001499722,4.612685e-05,9,1
-0.0001295519,3.948217e-05,9,1
-8.968389e-05,2.554455e-05,9,1
-2.761287e-05,1.079661e-05,9,1
4.871989e-05,4.313994e-06,9,1
0.0001226217,9.338019e-06,9,1
0.0001746447,2.165498e-05,9,1
0.0001851789,3.624086e-05,9,1
0.000145635,4.904402e-05,9,1
6.314371e-05,5.925414e-05,9,1
-3.798505e-05,6.962632e-05,9,1
-0.0001233935,7.870197e-05,9,1
-0.0001721751,8.178122e-05,9,1
-0.0001796301,8.032264e-05,9,1
-0.0001561307,7.481241e-05,9,1
-0.0001208004,6.768154e-05,9,1
-9.276313e-05,6.03886e-05,9,1
-8.02841e-05,5.293359e-05,9,1
-8.563225e-05,4.304761e-05,9,1
-0.0001007043,2.878586e-05,9,1
-0.0001162626,9.500085e-06,9,1
-0.0001263107,-1.20546e-05,9,1
-0.0001269589,-3.328516e-05,9,1
-0.0001201522,-5.386745e-05,9,1
-0.000114804,-7.363943e-05,9,1
-0.0001133454,-9.568031e-05,9,1
-0.0001152902,-0.0001203142,9,1
-0.000122259,-0.0001441378,9,1
-0.0001357104,-0.0001652063,9,1
-0.0001506204,-0.0001859507,9,1
-0.0001575893,-0.0002092881,9,1
-0.0001412206,-0.0002290601,9,1
-8.968389e-05,-0.0002381357,9,1
-7.840905e-06,-0.0002308428,9,1
8.307774e-05,-0.0002092881,9,1
0.0001545486,-0.0001804405,9,1
0.0001848548,-0.0001485136,9,1
0.0001649207,-0.0001177212,9,1
0.0001047945,-9.227693e-05,9,1
3.18651e-05,-7.461182e-05,9,1
-2.777494e-05,-6.342931e-05,9,1
-5.970181e-05,-5.808115e-05,9,1
-6.310517e-05,-5.565017e-05,9,1
-4.965376e-05,-5.516398e-05,9,1
-3.198864e-05,-5.678463e-05,9,1
-1.934754e-05,-5.872941e-05,9,1
-1.902341e-05,-5.791909e-05,9,1
-2.907146e-05,-5.338126e-05,9,1
-3.522994e-05,-4.608832e-05,9,1
-2.258885e-05,-3.733679e-05,9,1
1.663096e-05,-2.664048e-05,9,1
7.756752e-05,-1.464765e-05,9,1
0.0001462832,-3.465141e-06,9,1
0.0002039785,4.313994e-06,9,1
0.00024255,8.527692e-06,9,1
0.0002592428,8.689758e-06,9,1
0.0002602152,1.014835e-05,9,1
0.0002504913,1.614476e-05,9,1
0.0002414156,2.81376e-05,9,1
0.0002406053,4.288554e-05,9,1
0.0002433604,5.957827e-05,9,1
0.0002419018,7.837785e-05,9,1
0.0002308813,0.000103498,9,1
0.0002156472,0.0001295905,9,1
0.0002005751,0.0001508211,9,1
0.0001889064,0.0001650828,9,1
0.0001832341,0.0001731861,9,1
0.0001833962,0.0001744826,9,1
0.000190365,0.0001697827,9,1
0.0001997648,0.0001603829,9,1
0.0002034923,0.0001513072,9,1
0.000200251,0.0001487142,9,1
0.000187772,0.000155683,9,1
0.0001641104,0.0001649207,9,1
0.0001378558,0.0001728619,9,1
0.000115977,0.0001752929,9,1
9.669123e-05,0.0001714034,9,1
7.708133e-05,0.0001626518,9,1
5.455425e-05,0.0001522796,9,1
3.073064e-05,0.0001428799,9,1
7.555301e-06,0.0001386662,9,1
-1.075808e-05,0.0001435281,9,1
-2.031993e-05,0.0001553589,9,1
-2.501983e-05,0.0001663793,9,1
-3.166451e-05,0.0001767515,9,1
-4.300908e-05,0.0001871237,9,1
-6.083626e-05,0.0001992786,9,1
-7.833932e-05,0.00021273,9,1
-8.838737e-05,0.0002214815,9,1
-8.692878e-05,0.0002222919,9,1
-7.315322e-05,0.0002124059,9,1
-5.32192e-05,0.000192958,9,1
-3.847125e-05,0.0001675138,9,1
-4.122636e-05,0.000143204,9,1
-6.359137e-05,0.000125863,9,1
-9.746302e-05,0.0001138702,9,1
-0.0001331174,0.0001030118,9,1
-0.0001634236,8.988449e-05,9,1
-0.00018433,7.173317e-05,9,1
-0.0001912988,5.066468e-05,9,1
-0.0001896782,2.522042e-05,9,1
-0.0001853024,-7.516774e-06,9,1
-0.0001757406,-4.90055e-05,9,1
-0.0001556445,-0.0001005423,9,1
-0.0001237176,-0.0001630995,9,1
-8.384954e-05,-0.000228898,9,1
-4.365734e-05,-0.0002869174,9,1
-1.092015e-05,-0.0003293785,9,1
9.013889e-06,-0.0003541745,9,1
1.501031e-05,-0.0003609812,9,1
1.257933e-05,-0.0003559572,9,1
1.160693e-05,-0.0003399127,9,1
2.035846e-05,-0.0003118754,9,1
3.98063e-05,-0.0002684419,9,1
7.124698e-05,-0.0002086398,9,1
0.000105929,-0.0001408965,9,1
0.000128456,-7.850138e-05,9,1
0.0001268354,-3.134038e-05,9,1
0.0001041462,-5.247859e-06,9,1
7.092284e-05,9.106227e-07,9,1
3.818565e-05,-4.599598e-06,9,1
9.986281e-06,-8.165035e-06,9,1
-1.432352e-05,-3.789272e-06,9,1
-3.863332e-05,9.338019e-06,9,1
-6.537409e-05,2.603075e-05,9,1
-9.308726e-05,3.850978e-05,9,1
-0.0001169109,4.061663e-05,9,1
-0.0001350622,3.089271e-05,9,1
-0.0001488377,1.614476e-05,9,1
-0.0001598582,4.638125e-06,9,1
-0.0001639098,2.207145e-06,9,1
-0.0001549962,1.193106e-05,9,1
-0.0001292278,3.008238e-05,9,1
-8.773911e-05,5.082674e-05,9,1
-3.506788e-05,6.768154e-05,9,1
2.197911e-05,7.821578e-05,9,1
7.918817e-05,8.437427e-05,9,1
0.0001425557,8.988449e-05,9,1
0.000215161,9.63671e-05,9,1
0.0002890628,0.000103498,9,1
0.0003493511,0.000113546,9,1
0.0003846814,0.0001274836,9,1
0.0003950536,0.0001441764,9,1
0.0003827366,0.0001621656,9,1
0.0003595612,0.0001809652,9,1
0.0003370341,0.0001992786,9,1
0.0003214759,0.0002154851,9,1
0.0003146691,0.0002302331,9,1
0.0003146691,0.0002436845,9,1
0.0003230965,0.0002532463,9,1
0.000339141,0.0002543808,9,1
0.0003550234,0.0002457913,9,1
0.0003577785,0.0002315296,9,1
0.0003380065,0.0002149989,9,1
0.0002973281,0.0001940925,9,1
0.0002446569,0.0001683241,9,1
0.0001864754,0.0001360731,9,1
0.0001247285,9.750156e-05,9,1
6.362991e-05,5.99024e-05,9,1
1.031041e-05,2.992031e-05,9,1
-3.182657e-05,8.203562e-06,9,1
-5.970181e-05,-7.678839e-06,9,1
-8.190475e-05,-1.99958e-05,9,1
-0.0001094559,-2.939559e-05,9,1
-0.0001532135,-3.976777e-05,9,1
-0.0002143121,-5.32192e-05,9,1
-0.0002817312,-6.423963e-05,9,1
-0.0003418575,-6.861539e-05,9,1
-0.000387722,-6.326724e-05,9,1
-0.0004177041,-4.916756e-05,9,1
-0.0004319658,-3.247483e-05,9,1
-0.0004308313,-1.545797e-05,9,1
-0.0004165696,-2.81688e-06,9,1
-0.0003940425,3.017472e-06,9,1
-0.0003692465,3.179537e-06,9,1
-0.0003463953,-7.100305e-07,9,1
-0.0003337542,-7.840905e-06,9,1
-0.0003334301,-1.756482e-05,9,1
-0.0003395886,-2.696461e-05,9,1
-0.0003438023,-3.198864e-05,9,1
-0.0003365093,-3.117831e-05,9,1
-0.0003112272,-2.826114e-05,9,1
-0.0002731418,-2.923353e-05,9,1
-0.000233922,-3.976777e-05,9,1
-0.0001981056,-5.743289e-05,9,1
-0.0001587237,-7.785312e-05,9,1
-0.0001055663,-9.535618e-05,9,1
-3.847125e-05,-0.0001091317,9,1
3.267542e-05,-0.0001201522,9,1
8.875003e-05,-0.000127283,9,1
0.0001150046,-0.0001289037,9,1
0.0001099806,-0.0001269589,9,1
8.388807e-05,-0.0001276072,9,1
5.649903e-05,-0.0001353863,9,1
4.256141e-05,-0.0001502963,9,1
4.547859e-05,-0.0001632615,9,1
5.763349e-05,-0.0001690959,9,1
7.157111e-05,-0.0001656925,9,1
8.648112e-05,-0.0001553203,9,1
0.0001000946,-0.0001363587,9,1
0.0001026876,-0.00010978,9,1
8.372601e-05,-8.060823e-05,9,1
4.515445e-05,-5.289507e-05,9,1
-1.682422e-06,-3.117831e-05,9,1
-3.928157e-05,-1.335113e-05,9,1
-5.240886e-05,2.623614e-07,9,1
-3.279896e-05,1.079661e-05,9,1
7.879432e-06,1.744129e-05,9,1
5.19612e-05,1.630683e-05,9,1
8.291568e-05,9.500085e-06,9,1
9.847395e-05,7.393236e-06,9,1
0.0001078737,1.306552e-05,9,1
0.0001305629,2.278944e-05,9,1
0.0001882582,3.267542e-05,9,1
0.0002960316,4.547859e-05,9,1
0.0004464283,6.136099e-05,9,1
0.0006123833,7.999851e-05,9,1
0.0007543526,9.863601e-05,9,1
0.0008280924,0.0001143563,9,1
0.0008104272,0.0001235941,9,1
0.0007151327,0.0001252147,9,1
0.0005841838,0.0001166253,9,1
0.0004603659,0.0001023635,9,1
0.0003649094,9.199134e-05,9,1
0.0002968419,8.891209e-05,9,1
0.0002457913,9.199134e-05,9,1
0.0002007372,9.652917e-05,9,1
0.0001517934,0.0001012291,9,1
9.474644e-05,0.0001069013,9,1
3.299956e-05,0.0001106288,9,1
-2.534396e-05,0.0001080358,9,1
-7.250496e-05,0.0001005808,9,1
-0.0001045939,9.555677e-05,9,1
-0.0001248521,9.377406e-05,9,1
-0.0001412206,9.555677e-05,9,1
-0.0001572651,9.814982e-05,9,1
-0.0001739578,9.814982e-05,9,1
-0.0001906506,9.426025e-05,9,1
-0.0002110708,8.729144e-05,9,1
-0.0002407288,8.242948e-05,9,1
-0.0002780038,8.275361e-05,9,1
-0.0003138202,8.583286e-05,9,1
-0.0003418575,8.826383e-05,9,1
-0.000353202,9.037068e-05,9,1
-0.0003425058,9.150514e-05,9,1
-0.0003092824,8.972242e-05,9,1
-0.0002585559,8.453633e-05,9,1
-0.0002013469,7.951231e-05,9,1
-0.0001491618,7.708133e-05,9,1
-0.0001086455,7.708133e-05,9,1
-7.801519e-05,7.481241e-05,9,1
-5.095028e-05,6.735741e-05,9,1
-3.036798e-05,5.1475e-05,9,1
-3.069211e-05,3.154097e-05,9,1
-5.889148e-05,1.12828e-05,9,1
-0.0001013526,-5.89612e-06,9,1
-0.000134738,-1.805102e-05,9,1
-0.0001417068,-2.664048e-05,9,1
-0.0001243659,-2.971972e-05,9,1
-0.0001037836,-2.7937e-05,9,1
-0.0001024871,-2.210265e-05,9,1
-0.0001276072,-1.464765e-05,9,1
-0.0001731475,-8.651231e-06,9,1
-0.0002258187,-7.192643e-06,9,1
-0.0002749245,-1.383732e-05,9,1
-0.0003134961,-3.247483e-05,9,1
-0.0003408851,-6.586029e-05,9,1
-0.0003559572,-0.0001110765,9,1
-0.0003579019,-0.0001583996,9,1
-0.0003541745,-0.0001950263,9,1
-0.0003536883,-0.00021415,9,1
-0.0003637363,-0.0002160948,9,1
-0.0003765395,-0.000201671,9,1
-0.0003791325,-0.0001749302,9,1
-0.000360495,-0.0001421931,9,1
-0.0003199787,-0.000112373,9,1
-0.0002608248,-9.29252e-05,9,1
-0.0001883817,-9.033215e-05,9,1
-0.0001110765,-0.0001020008,9,1
-3.733679e-05,-0.0001193418,9,1
2.554455e-05,-0.0001324691,9,1
7.594687e-05,-0.000137007,9,1
0.0001179218,-0.0001313347,9,1
0.0001577899,-0.0001177212,9,1
0.0001971717,-0.0001002181,9,1
0.0002381743,-8.07703e-05,9,1
0.0002757735,-5.953974e-05,9,1
0.0003054314,-3.68506e-05,9,1
0.0003240689,-1.20546e-05,9,1
0.0003329825,1.209313e-05,9,1
0.000341734,3.526847e-05,9,1
0.0003592371,5.747142e-05,9,1
0.0003897054,7.221937e-05,9,1
0.0004287631,7.886404e-05,9,1
0.0004666864,8.178122e-05,9,1
0.0004942376,8.453633e-05,9,1
0.0005044477,8.405014e-05,9,1
0.0004895377,8.226741e-05,9,1
0.0004454559,8.178122e-05,9,1
0.0003791712,8.42122e-05,9,1
0.0003026763,8.74535e-05,9,1
0.0002297469,8.972242e-05,9,1
0.0001720516,9.16672e-05,9,1
0.0001351007,9.361199e-05,9,1
0.0001175977,9.555677e-05,9,1
0.0001175977,0.000101067,9,1
0.0001274836,0.0001122495,9,1
0.0001375317,0.0001240803,9,1
0.0001385041,0.000128294,9,1
0.0001245665,0.0001187321,9,1
9.409818e-05,9.960841e-05,9,1
5.325772e-05,8.129502e-05,9,1
8.527692e-06,7.108491e-05,9,1
-3.21507e-05,6.622294e-05,9,1
-6.796714e-05,6.233338e-05,9,1
-9.827335e-05,5.909208e-05,9,1
-0.0001242038,6.119892e-05,9,1
-0.0001425172,6.670914e-05,9,1
-0.0001473791,7.173317e-05,9,1
-0.0001361966,7.400208e-05,9,1
-0.0001062146,7.967438e-05,9,1
-4.90055e-05,9.26396e-05,9,1
4.515445e-05,0.000111115,9,1
0.0001725378,0.0001286181,9,1
0.0003055935,0.0001425557,9,1
0.0004062361,0.0001540623,9,1
0.0004375147,0.0001603829,9,1
0.0003850055,0.000160707,9,1
0.000267184,0.0001560072,9,1
0.0001263492,0.000145635,9,1
3.341602e-06,0.0001336421,9,1
-7.720486e-05,0.0001244044,9,1
-0.0001099421,0.0001167873,9,1
-0.0001067007,0.0001103047,9,1
-7.947377e-05,0.0001046324,9,1
-4.122636e-05,0.0001005808,9,1
-3.951337e-06,9.701536e-05,9,1
1.889987e-05,8.923623e-05,9,1
2.570662e-05,7.546067e-05,9,1
2.538249e-05,4.888196e-05,9,1
3.105477e-05,1.12828e-05,9,1
4.855783e-05,-3.21507e-05,9,1
7.610894e-05,-7.18567e-05,9,1
0.0001062531,-0.0001003802,9,1
0.0001278078,-0.0001157764,9,1
0.0001389903,-0.0001208004,9,1
0.0001376938,-0.0001186936,9,1
0.0001221355,-0.0001161005,9,1
9.134307e-05,-0.0001165867,9,1
5.034055e-05,-0.0001203142,9,1
8.365628e-06,-0.0001232314,9,1
-2.923353e-05,-0.0001276072,9,1
-6.586029e-05,-0.0001392759,9,1
-0.0001057284,-0.0001608306,9,1
-0.0001517549,-0.0001882196,9,1
-0.0002018331,-0.0002135018,9,1
-0.0002498044,-0.000228898,9,1
-0.0002914552,-0.0002329496,9,1
-0.0003238683,-0.0002334358,9,1
-0.0003473677,-0.0002397564,9,1
-0.0003614674,-0.0002532078,9,1
-0.0003575778,-0.0002664971,9,1
-0.0003246786,-0.0002669833,9,1
-0.0002655248,-0.0002498044,9,1
-0.0001893541,-0.0002151224,9,1
-0.0001060525,-0.0001737958,9,1
-2.988179e-05,-0.0001397621,9,1
2.327564e-05,-0.0001186936,9,1
4.304761e-05,-0.000104918,9,1
2.781346e-05,-9.065628e-05,9,1
-1.027188e-05,-6.845333e-05,9,1
-4.203669e-05,-3.393342e-05,9,1
-3.555408e-05,9.500085e-06,9,1
1.873781e-05,5.277153e-05,9,1
0.00010366,9.020862e-05,9,1
0.0001817755,0.0001192183,9,1
0.0002219677,0.0001409351,9,1
0.0002153231,0.0001602208,9,1
0.0001726999,0.0001833962,9,1
0.0001103047,0.0002112714,9,1
3.818565e-05,0.0002415777,9,1
-3.717473e-05,0.0002658874,9,1
-0.0001079973,0.0002799871,9,1
-0.0001681235,0.0002856594,9,1
-0.0002117191,0.0002851732,9,1
-0.000231491,0.000282094,9,1
-0.0002241981,0.0002814457,9,1
-0.000194216,0.0002856594,9,1
-0.0001541859,0.0002937627,9,1
-0.0001139937,0.0003034866,9,1
-8.158062e-05,0.0003101313,9,1
-6.164659e-05,0.0003098072,9,1
-5.451572e-05,0.0002999212,9,1
-5.305713e-05,0.0002817699,9,1
-4.625038e-05,0.0002569738,9,1
-2.728874e-05,0.0002287745,9,1
6.582909e-06,0.0002010613,9,1
5.082674e-05,0.0001757791,9,1
9.409818e-05,0.0001513072,9,1
0.0001271595,0.0001257009,9,1
0.0001483901,9.507057e-05,9,1
0.0001550348,5.552663e-05,9,1
0.0001485521,9.986281e-06,9,1
0.0001271595,-2.647842e-05,9,1
9.409818e-05,-4.462973e-05,9,1
5.325772e-05,-4.365734e-05,9,1
1.355172e-05,-2.712668e-05,9,1
-2.129233e-05,-4.923729e-06,9,1
-5.013995e-05,1.744129e-05,9,1
-7.882551e-05,3.948217e-05,9,1
-0.0001104282,6.265751e-05,9,1
-0.0001413827,8.550872e-05,9,1
-0.0001630995,0.0001033359,9,1
-0.0001712027,0.0001127357,9,1
-0.0001689338,0.0001127357,9,1
-0.0001592099,0.0001054428,9,1
-0.0001473791,9.21534e-05,9,1
-0.0001387897,7.140904e-05,9,1
-0.0001360346,4.402e-05,9,1
-0.0001363587,1.22552e-05,9,1
-0.0001310105,-2.064406e-05,9,1
-0.0001089697,-5.111234e-05,9,1
-6.618442e-05,-7.428769e-05,9,1
-6.706447e-06,-8.806324e-05,9,1
6.265751e-05,-9.098041e-05,9,1
0.0001351007,-8.498399e-05,9,1
0.0001987924,-7.65566e-05,9,1
0.0002456293,-6.796714e-05,9,1
0.0002704253,-5.872941e-05,9,1
0.0002819319,-5.030202e-05,9,1
0.0002983005,-4.576419e-05,9,1
0.0003354135,-4.495386e-05,9,1
0.0003999155,-4.706071e-05,9,1
0.0004840274,-5.095028e-05,9,1
0.000564574,-5.192267e-05,9,1
0.000614166,-4.884343e-05,9,1
0.000611735,-3.976777e-05,9,1
0.0005600362,-2.583016e-05,9,1
0.0004811103,-1.124428e-05,9,1
0.0004038051,-5.479652e-07,9,1
0.0003444891,4.962256e-06,9,1
0.0003002453,7.393236e-06,9,1
0.0002595669,7.069105e-06,9,1
0.0002122438,4.47606e-06,9,1
0.0001522796,-2.168618e-06,9,1
8.664318e-05,-1.399939e-05,9,1
3.462021e-05,-2.809907e-05,9,1
1.014835e-05,-3.976777e-05,9,1
1.1769e-05,-4.317115e-05,9,1
1.468618e-05,-3.798505e-05,9,1
-5.247859e-06,-2.907146e-05,9,1
-5.127441e-05,-2.339918e-05,9,1
-0.0001037836,-2.550602e-05,9,1
-0.0001381414,-3.506788e-05,9,1
-0.000144624,-4.754691e-05,9,1
-0.0001300382,-6.035007e-05,9,1
-0.0001068628,-6.991193e-05,9,1
-8.530812e-05,-7.623246e-05,9,1
-7.428769e-05,-8.060823e-05,9,1
-8.125649e-05,-8.482193e-05,9,1
-0.0001058904,-8.984595e-05,9,1
-0.0001442999,-9.486997e-05,9,1
-0.0001848162,-9.746302e-05,9,1
-0.0002194982,-9.697683e-05,9,1
-0.0002449425,-9.308726e-05,9,1
-0.000261311,-8.806324e-05,9,1
-0.0002676316,-8.093236e-05,9,1
-0.0002655248,-7.18567e-05,9,1
