EMG1,EMG2,class,user
-0.0004258073,3.267542e-05,9,1
-0.0004510895,4.02925e-05,9,1
-0.000452224,4.418206e-05,9,1
-0.0004360174,4.142696e-05,9,1
-0.0004165696,3.073064e-05,9,1
-0.0004036044,1.338965e-05,9,1
-0.0003989045,-5.085794e-06,9,1
-0.0004014975,-1.950961e-05,9,1
-0.0004047388,-3.020592e-05,9,1
-0.0004019837,-3.490581e-05,9,1
-0.0003872358,-3.458168e-05,9,1
-0.0003564434,-3.134038e-05,9,1
-0.0003094444,-2.874733e-05,9,1
-0.0002506147,-2.89094e-05,9,1
-0.000191623,-3.344723e-05,9,1
-0.000142031,-4.252288e-05,9,1
-0.0001042698,-5.386745e-05,9,1
-8.060823e-05,-6.310517e-05,9,1
-7.039812e-05,-6.81292e-05,9,1
-7.736692e-05,-7.120844e-05,9,1
-9.778715e-05,-7.120844e-05,9,1
-0.0001235555,-6.91016e-05,9,1
-0.000144462,-6.359137e-05,9,1
-0.0001515928,-5.451572e-05,9,1
-0.0001418689,-4.300908e-05,9,1
-0.000112373,-3.231277e-05,9,1
-6.245691e-05,-2.437157e-05,9,1
7.485573e-07,-1.853722e-05,9,1
6.897806e-05,-1.351319e-05,9,1
0.0001354248,-3.465141e-06,9,1
0.00019782,1.436204e-05,9,1
0.0002508154,3.850978e-05,9,1
0.0002838767,5.860588e-05,9,1
0.000292142,6.541262e-05,9,1
0.0002809595,5.795762e-05,9,1
0.0002621599,4.77475e-05,9,1
0.0002495189,4.191315e-05,9,1
0.0002504913,4.320967e-05,9,1
0.0002631324,4.709924e-05,9,1
0.0002785285,4.483033e-05,9,1
0.0002850112,3.154097e-05,9,1
0.0002799871,1.582063e-05,9,1
0.0002713977,5.772582e-06,9,1
0.0002655633,5.934648e-06,9,1
0.0002556773,1.873781e-05,9,1
0.0002372019,4.207521e-05,9,1
0.0002109473,6.865393e-05,9,1
0.000187934,9.053275e-05,9,1
0.0001757791,0.0001030118,9,1
0.0001761032,0.0001044704,9,1
0.0001893926,9.393612e-05,9,1
0.0002138645,7.594687e-05,9,1
0.0002527602,5.795762e-05,9,1
0.0002948972,4.337174e-05,9,1
0.0003214759,3.462021e-05,9,1
0.0003172622,3.364782e-05,9,1
0.000277232,3.786152e-05,9,1
0.0002078681,4.385793e-05,9,1
0.0001193804,5.050261e-05,9,1
2.748934e-05,5.844381e-05,9,1
-4.997789e-05,6.573675e-05,9,1
-9.66527e-05,6.719535e-05,9,1
-0.0001094559,6.265751e-05,9,1
-9.276313e-05,5.406805e-05,9,1
-6.245691e-05,4.418206e-05,9,1
-3.539201e-05,3.397195e-05,9,1
-2.339918e-05,2.619281e-05,9,1
-2.907146e-05,2.068259e-05,9,1
-4.511593e-05,1.64689e-05,9,1
-6.310517e-05,1.014835e-05,9,1
-7.639453e-05,-8.720959e-07,9,1
-7.542214e-05,-1.707863e-05,9,1
-5.69467e-05,-3.134038e-05,9,1
-2.680255e-05,-3.960571e-05,9,1
-3.789272e-06,-4.722278e-05,9,1
-8.002969e-06,-5.548811e-05,9,1
-4.47918e-05,-6.229485e-05,9,1
-0.0001000561,-6.618442e-05,9,1
-0.0001522411,-6.91016e-05,9,1
-0.0001854645,-6.715681e-05,9,1
-0.0001901644,-6.035007e-05,9,1
-0.0001710407,-5.062615e-05,9,1
-0.000137169,-4.560212e-05,9,1
-0.0001011905,-4.965376e-05,9,1
-7.590833e-05,-5.824322e-05,9,1
-6.553616e-05,-6.618442e-05,9,1
-6.667062e-05,-7.023606e-05,9,1
-7.444975e-05,-7.056019e-05,9,1
-8.482193e-05,-6.829127e-05,9,1
-8.790117e-05,-6.278104e-05,9,1
-8.158062e-05,-5.419158e-05,9,1
-7.007399e-05,-4.398147e-05,9,1
-5.64605e-05,-3.425755e-05,9,1
-4.187462e-05,-2.550602e-05,9,1
-2.583016e-05,-1.659243e-05,9,1
-1.578211e-05,-1.562004e-05,9,1
-1.594417e-05,-2.388537e-05,9,1
-2.339918e-05,-3.749886e-05,9,1
-2.955766e-05,-5.208474e-05,9,1
-3.344723e-05,-6.44017e-05,9,1
-4.122636e-05,-6.893953e-05,9,1
-5.64605e-05,-6.48879e-05,9,1
-7.363943e-05,-5.419158e-05,9,1
-8.514606e-05,-4.074016e-05,9,1
-8.239095e-05,-3.150244e-05,9,1
-6.407757e-05,-2.907146e-05,9,1
-3.134038e-05,-2.809907e-05,9,1
1.241726e-05,-2.518189e-05,9,1
6.816773e-05,-1.335113e-05,9,1
0.0001360731,8.365628e-06,9,1
0.0002057612,3.478228e-05,9,1
0.0002602152,5.666109e-05,9,1
0.0002905214,6.314371e-05,9,1
0.0003002453,5.082674e-05,9,1
0.0003002453,2.927205e-05,9,1
0.0002986247,6.582909e-06,9,1
0.0002979764,-7.192643e-06,9,1
0.0002981384,-8.651231e-06,9,1
0.0002939248,-7.100305e-07,9,1
0.0002809595,1.031041e-05,9,1
0.0002534084,1.873781e-05,9,1
0.0002106232,2.068259e-05,9,1
0.0001560072,1.808955e-05,9,1
9.993253e-05,1.711715e-05,9,1
5.244739e-05,2.197911e-05,9,1
2.197911e-05,2.878586e-05,9,1
1.419998e-05,3.040651e-05,9,1
2.359977e-05,2.246531e-05,9,1
4.531652e-05,7.879432e-06,9,1
7.011252e-05,-6.382317e-06,9,1
8.583286e-05,-1.513384e-05,9,1
8.323981e-05,-1.67545e-05,9,1
6.03886e-05,-1.20546e-05,9,1
1.873781e-05,-4.113403e-06,9,1
-3.053005e-05,6.744974e-06,9,1
-7.412562e-05,1.776542e-05,9,1
-0.0001054042,2.667901e-05,9,1
-0.0001224211,3.380988e-05,9,1
-0.0001264727,4.061663e-05,9,1
-0.0001188556,5.390598e-05,9,1
-0.0001062146,8.226741e-05,9,1
-9.697683e-05,0.0001218114,9,1
-0.0001058904,0.0001623277,9,1
-0.0001394379,0.0001914995,9,1
-0.0001887058,0.0002038164,9,1
-0.0002318152,0.000202844,9,1
-0.0002519113,0.000192796,9,1
-0.0002454286,0.0001812893,9,1
-0.0002162569,0.0001712413,9,1
-0.000174444,0.000162976,9,1
-0.0001327933,0.0001579519,9,1
-0.0001039456,0.0001529279,9,1
-0.0001000561,0.0001474177,9,1
-0.0001264727,0.0001415833,9,1
-0.0001760647,0.0001338042,9,1
-0.0002232257,0.0001226217,9,1
-0.0002353806,0.0001096565,9,1
-0.000196647,9.652917e-05,9,1
-0.0001204763,8.437427e-05,9,1
-4.155049e-05,7.367795e-05,9,1
1.695509e-05,6.541262e-05,9,1
5.19612e-05,5.99024e-05,9,1
7.076078e-05,5.94162e-05,9,1
7.935024e-05,6.622294e-05,9,1
7.999851e-05,7.691926e-05,9,1
7.659513e-05,8.777764e-05,9,1
8.988449e-05,9.507057e-05,9,1
0.0001389903,9.766362e-05,9,1
0.000222616,9.442231e-05,9,1
0.0003172622,8.583286e-05,9,1
0.0003942432,7.221937e-05,9,1
0.0004397836,5.649903e-05,9,1
0.0004527488,4.304761e-05,9,1
0.0004454559,3.55926e-05,9,1
0.0004355699,3.202716e-05,9,1
0.0004352458,3.380988e-05,9,1
0.0004514523,4.061663e-05,9,1
0.0004866205,4.661304e-05,9,1
0.0005302161,4.82337e-05,9,1
0.000559712,4.547859e-05,9,1
0.0005504743,3.60788e-05,9,1
0.0004862963,1.792748e-05,9,1
0.0003668542,-8.327101e-06,9,1
0.0002088404,-3.960571e-05,9,1
4.175109e-05,-7.752899e-05,9,1
-0.0001036215,-0.0001225832,9,1
-0.0002011848,-0.000176875,9,1
-0.0002441321,-0.0002374874,9,1
-0.0002436459,-0.0002966413,9,1
-0.0002219292,-0.0003488263,9,1
-0.0001979435,-0.0003886944,9,1
-0.0001757406,-0.00041268,9,1
-0.0001509446,-0.0004227281,9,1
-0.0001193418,-0.0004222419,9,1
-7.850138e-05,-0.0004139766,9,1
-3.182657e-05,-0.0004013355,9,1
1.403791e-05,-0.0003854531,9,1
5.260946e-05,-0.0003627639,9,1
8.032264e-05,-0.0003275957,9,1
0.0001002567,-0.000276221,9,1
0.0001125736,-0.0002081536,9,1
0.0001103047,-0.0001324691,9,1
8.405014e-05,-5.970181e-05,9,1
3.834771e-05,5.448452e-06,9,1
-8.165035e-06,6.314371e-05,9,1
-3.441962e-05,0.0001127357,9,1
-2.275091e-05,0.000155683,9,1
2.829966e-05,0.0001914995,9,1
0.0001005808,0.0002203471,9,1
0.0001696206,0.0002433604,9,1
0.0002169437,0.0002611876,9,1
0.0002310434,0.0002730183,9,1
0.0002106232,0.0002777182,9,1
0.0001551968,0.0002759355,9,1
7.076078e-05,0.000269777,9,1
-3.247483e-05,0.0002592428,9,1
-0.0001358725,0.0002459534,9,1
-0.0002193361,0.0002316917,9,1
-0.000263742,0.0002206712,9,1
-0.0002694143,0.0002146748,9,1
-0.0002605007,0.0002078681,9,1
-0.0002632558,0.0001994406,9,1
-0.0002895104,0.000192958,9,1
-0.0003348887,0.0001864754,9,1
-0.0003864254,0.0001757791,9,1
-0.0004288866,0.0001621656,9,1
-0.0004569239,0.0001469315,9,1
-0.0004640547,0.0001312112,9,1
-0.000447362,0.0001119254,9,1
-0.0004133283,9.199134e-05,9,1
-0.0003739464,7.57848e-05,9,1
-0.0003358611,6.589881e-05,9,1
-0.0003050687,6.136099e-05,9,1
-0.0002846485,5.763349e-05,9,1
-0.000276221,5.439218e-05,9,1
-0.0002791382,5.131294e-05,9,1
-0.0002841623,4.82337e-05,9,1
-0.0002817312,4.45062e-05,9,1
-0.0002676316,4.061663e-05,9,1
-0.0002494803,3.850978e-05,9,1
-0.0002344082,3.834771e-05,9,1
-0.0002282497,3.93201e-05,9,1
-0.0002298704,3.996837e-05,9,1
-0.0002366771,4.02925e-05,9,1
-0.0002442942,3.348575e-05,9,1
-0.000248832,1.614476e-05,9,1
-0.0002506147,-6.058186e-06,9,1
-0.0002418632,-2.307504e-05,9,1
-0.0002133397,-2.874733e-05,9,1
-0.0001585616,-2.437157e-05,9,1
-7.574627e-05,-1.432352e-05,9,1
2.603075e-05,-3.627206e-06,9,1
0.0001247285,3.665733e-06,9,1
0.0001944166,3.503668e-06,9,1
0.0002214815,-3.627206e-06,9,1
0.0002115956,-1.480971e-05,9,1
0.0001890685,-2.907146e-05,9,1
0.0001842065,-4.835724e-05,9,1
0.0002081922,-6.958779e-05,9,1
0.0002487085,-8.676672e-05,9,1
0.0002838767,-9.697683e-05,9,1
0.0002963557,-0.0001011905,9,1
0.000282256,-0.0001052422,9,1
0.0002466017,-0.0001094559,9,1
0.0002030061,-0.0001136696,9,1
0.0001610312,-0.0001164247,9,1
0.0001268354,-0.0001152902,9,1
0.0001018773,-0.00010978,9,1
8.323981e-05,-0.0001026491,9,1
6.962632e-05,-9.535618e-05,9,1
6.379197e-05,-8.644259e-05,9,1
7.238143e-05,-7.526008e-05,9,1
9.604298e-05,-5.872941e-05,9,1
0.0001299146,-3.717473e-05,9,1
0.000163138,-1.62683e-05,9,1
0.0001822617,-2.168618e-06,9,1
0.0001801549,1.072688e-06,9,1
0.0001550348,-3.465141e-06,9,1
0.0001143563,-1.124428e-05,9,1
6.83298e-05,-1.464765e-05,9,1
2.651694e-05,-1.075808e-05,9,1
-2.978945e-06,5.86492e-07,9,1
-1.691656e-05,1.614476e-05,9,1
-1.594417e-05,3.251336e-05,9,1
-5.479652e-07,4.709924e-05,9,1
2.943412e-05,6.022653e-05,9,1
7.351589e-05,7.221937e-05,9,1
0.0001291043,8.307774e-05,9,1
0.0001947408,9.555677e-05,9,1
0.0002692908,0.0001077117,9,1
0.0003496752,0.0001146805,9,1
0.0004237391,0.0001154908,9,1
0.0004773828,0.0001090082,9,1
0.000502827,9.847395e-05,9,1
0.0004963444,8.712937e-05,9,1
0.0004576108,7.562274e-05,9,1
0.0003955397,6.508849e-05,9,1
0.0003229345,5.585077e-05,9,1
0.0002543808,4.920609e-05,9,1
0.0001971717,4.158902e-05,9,1
0.0001490383,3.18651e-05,9,1
0.0001114392,2.311357e-05,9,1
8.810177e-05,1.792748e-05,9,1
7.853991e-05,1.727922e-05,9,1
8.323981e-05,2.01964e-05,9,1
0.0001030118,2.327564e-05,9,1
0.0001342904,2.359977e-05,9,1
0.0001683241,1.906194e-05,9,1
0.0001999268,1.241726e-05,9,1
0.0002216436,7.23117e-06,9,1
0.0002266676,1.031041e-05,9,1
0.0002111094,2.327564e-05,9,1
0.0001748067,4.369587e-05,9,1
0.0001193804,6.606088e-05,9,1
5.017848e-05,8.518459e-05,9,1
-2.615429e-05,9.393612e-05,9,1
-9.681477e-05,9.16672e-05,9,1
-0.0001486757,8.226741e-05,9,1
-0.0001726613,6.589881e-05,9,1
-0.0001697442,4.661304e-05,9,1
-0.0001493239,2.910999e-05,9,1
-0.0001279313,1.679302e-05,9,1
-0.0001182074,9.66215e-06,9,1
-0.0001292278,7.23117e-06,9,1
-0.0001571031,6.258778e-06,9,1
-0.0001938919,4.47606e-06,9,1
-0.0002285739,3.827799e-06,9,1
-0.0002558008,4.80019e-06,9,1
-0.0002758969,2.531276e-06,9,1
-0.0002930758,-9.461558e-06,9,1
-0.0003074997,-3.182657e-05,9,1
-0.0003154408,-5.743289e-05,9,1
-0.0003118754,-7.639453e-05,9,1
-0.0002934,-8.336335e-05,9,1
-0.0002541802,-8.093236e-05,9,1
-0.0001904885,-7.396356e-05,9,1
-0.0001034594,-7.056019e-05,9,1
-5.57199e-06,-7.218083e-05,9,1
8.194328e-05,-7.590833e-05,9,1
0.0001428799,-7.574627e-05,9,1
0.0001762653,-6.926366e-05,9,1
0.0001835583,-6.099833e-05,9,1
0.0001694586,-5.629844e-05,9,1
0.0001438522,-5.840528e-05,9,1
0.0001253768,-6.553616e-05,9,1
0.000135911,-7.526008e-05,9,1
0.0001866375,-8.109443e-05,9,1
0.0002619979,-7.590833e-05,9,1
0.0003308757,-6.342931e-05,9,1
0.0003629646,-5.159854e-05,9,1
0.0003462718,-4.219875e-05,9,1
0.0002842008,-3.247483e-05,9,1
0.0001971717,-2.177852e-05,9,1
0.0001033359,-8.327101e-06,9,1
1.64689e-05,7.879432e-06,9,1
-5.386745e-05,2.197911e-05,9,1
-9.989401e-05,3.024445e-05,9,1
-0.0001237176,3.429608e-05,9,1
-0.0001384655,3.899597e-05,9,1
-0.0001583996,4.580272e-05,9,1
-0.0001898403,5.358185e-05,9,1
-0.0002211189,5.957827e-05,9,1
-0.0002334358,6.136099e-05,9,1
-0.0002160948,6.589881e-05,9,1
-0.0001791439,7.6271e-05,9,1
-0.0001455964,8.907416e-05,9,1
-0.0001327933,9.977047e-05,9,1
-0.0001421931,0.0001031738,9,1
-0.000159534,9.831188e-05,9,1
-0.0001690959,9.134307e-05,9,1
-0.0001608306,8.777764e-05,9,1
-0.0001402483,8.858796e-05,9,1
-0.0001182074,9.31258e-05,9,1
-0.0001042698,0.0001004187,9,1
-0.000104756,0.0001073875,9,1
-0.0001131834,0.0001124116,9,1
-0.0001173971,0.0001179218,9,1
-0.0001130213,0.0001235941,9,1
-0.0001039456,0.000128456,9,1
-9.29252e-05,0.0001351007,9,1
-7.752899e-05,0.0001401247,9,1
-5.467778e-05,0.0001448246,9,1
-1.805102e-05,0.0001469315,9,1
2.975825e-05,0.0001448246,9,1
8.259155e-05,0.0001368834,9,1
0.0001292664,0.0001257009,9,1
0.0001615174,0.0001166253,9,1
0.0001741585,0.0001119254,9,1
0.0001628139,0.000110953,9,1
0.0001266733,0.000108522,9,1
6.962632e-05,0.0001012291,9,1
2.693341e-06,9.101894e-05,9,1
-5.905355e-05,8.097089e-05,9,1
-0.0001096179,7.238143e-05,9,1
-0.0001502963,6.541262e-05,9,1
-0.0001814128,6.136099e-05,9,1
-0.0002031296,5.763349e-05,9,1
-0.0002169052,5.212327e-05,9,1
-0.0002224154,4.35338e-05,9,1
-0.0002203085,3.218923e-05,9,1
-0.00021415,1.808955e-05,9,1
-0.0002107467,6.420843e-06,9,1
-0.0002118811,1.002961e-07,9,1
-0.0002097743,-1.844488e-06,9,1
-0.0001953505,-1.034161e-06,9,1
-0.0001736337,-1.520357e-06,9,1
-0.0001600202,-5.734056e-06,9,1
-0.000166827,-1.464765e-05,9,1
-0.0001948643,-2.615429e-05,9,1
-0.0002326255,-3.928157e-05,9,1
-0.0002666592,-5.257093e-05,9,1
-0.000286107,-6.683268e-05,9,1
-0.0002846485,-8.336335e-05,9,1
-0.0002674695,-0.0001039456,9,1
-0.0002395943,-0.0001250141,9,1
-0.0002023193,-0.0001433275,9,1
-0.000159372,-0.0001564548,9,1
-0.0001167488,-0.0001655305,9,1
-6.423963e-05,-0.0001673132,9,1
2.214118e-05,-0.0001666649,9,1
0.0001571416,-0.000166989,9,1
0.0003328204,-0.0001656925,9,1
0.0005187094,-0.000159372,9,1
0.0006783439,-0.0001426792,9,1
0.000785145,-0.0001133454,9,1
0.0008256614,-7.752899e-05,9,1
0.000804755,-4.527799e-05,9,1
0.0007387943,-2.339918e-05,9,1
0.000646417,-1.497178e-05,9,1
0.0005410745,-2.275091e-05,9,1
0.0004347596,-4.05781e-05,9,1
0.0003380065,-5.856735e-05,9,1
0.0002631324,-6.39155e-05,9,1
0.0002188885,-5.32192e-05,9,1
0.000200413,-3.085418e-05,9,1
0.0001942546,-8.651231e-06,9,1
0.0001822617,3.665733e-06,9,1
0.0001529279,3.017472e-06,9,1
0.0001073875,-5.734056e-06,9,1
5.730935e-05,-9.299493e-06,9,1
2.052053e-05,-3.465141e-06,9,1
4.638125e-06,9.66215e-06,9,1
5.934648e-06,2.732727e-05,9,1
1.355172e-05,4.742337e-05,9,1
1.841368e-05,6.46023e-05,9,1
1.987227e-05,7.708133e-05,9,1
2.068259e-05,8.891209e-05,9,1
2.197911e-05,0.0001017153,9,1
2.068259e-05,0.0001145184,9,1
1.063454e-05,0.0001229458,9,1
-1.691656e-05,0.0001237561,9,1
-6.618442e-05,0.0001187321,9,1
-0.0001329553,0.0001112771,9,1
-0.0002135018,0.0001043083,9,1
-0.0003000446,9.977047e-05,9,1
-0.0003794566,9.507057e-05,9,1
-0.0004335865,9.004655e-05,9,1
-0.0004467137,8.680524e-05,9,1
-0.0004162455,8.502253e-05,9,1
-0.000348016,8.242948e-05,9,1
-0.0002499665,7.465034e-05,9,1
-0.0001295519,6.200925e-05,9,1
1.558884e-06,4.693717e-05,9,1
0.0001295905,3.105477e-05,9,1
0.0002370398,1.452411e-05,9,1
0.0003051073,-2.81688e-06,9,1
0.0003208276,-1.869928e-05,9,1
0.0002890628,-3.004385e-05,9,1
0.0002278021,-3.717473e-05,9,1
0.0001558451,-4.074016e-05,9,1
8.307774e-05,-4.203669e-05,9,1
1.954813e-05,-4.317115e-05,9,1
-2.971972e-05,-4.414354e-05,9,1
-6.456377e-05,-4.414354e-05,9,1
-8.952183e-05,-4.219875e-05,9,1
-0.0001084835,-3.620233e-05,9,1
-0.0001266348,-2.453363e-05,9,1
-0.0001462447,-7.030578e-06,9,1
-0.0001630995,1.322759e-05,9,1
-0.0001616409,3.332369e-05,9,1
-0.0001277692,4.82337e-05,9,1
-5.64605e-05,5.552663e-05,9,1
4.061663e-05,5.228533e-05,9,1
0.0001401247,3.93201e-05,9,1
0.0002138645,2.359977e-05,9,1
0.000239957,7.23117e-06,9,1
0.000210299,-6.382317e-06,9,1
0.0001346145,-1.67545e-05,9,1
3.543054e-05,-2.485776e-05,9,1
-5.921561e-05,-3.198864e-05,9,1
-0.0001277692,-4.203669e-05,9,1
-0.0001613168,-5.662256e-05,9,1
-0.000166989,-7.039812e-05,9,1
-0.0001554824,-7.914964e-05,9,1
-0.0001323071,-8.40116e-05,9,1
-0.0001024871,-8.514606e-05,9,1
-6.278104e-05,-8.320128e-05,9,1
-1.108221e-05,-7.526008e-05,9,1
5.050261e-05,-6.035007e-05,9,1
0.0001227837,-4.236082e-05,9,1
0.0002031682,-2.826114e-05,9,1
0.0002806354,-2.42095e-05,9,1
0.0003326584,-2.939559e-05,9,1
0.0003375204,-3.668853e-05,9,1
0.0002901973,-4.511593e-05,9,1
0.0002043026,-5.046408e-05,9,1
0.0001031738,-5.289507e-05,9,1
8.851824e-06,-5.2733e-05,9,1
-6.294311e-05,-5.095028e-05,9,1
-0.0001018388,-5.078821e-05,9,1
-9.908367e-05,-4.592625e-05,9,1
-5.872941e-05,-3.231277e-05,9,1
8.203562e-06,-1.108221e-05,9,1
8.097089e-05,9.66215e-06,9,1
0.0001422316,2.230325e-05,9,1
0.0001861513,2.797553e-05,9,1
0.0002253711,3.202716e-05,9,1
0.0002741528,4.013043e-05,9,1
0.0003388169,5.504044e-05,9,1
0.0004148255,7.335383e-05,9,1
0.0004969927,8.712937e-05,9,1
0.0005785116,9.63671e-05,9,1
0.0006467411,9.896015e-05,9,1
0.0006901747,9.831188e-05,9,1
0.0007052467,0.0001018773,9,1
0.0006989262,0.0001175977,9,1
0.0006744543,0.0001459591,9,1
0.0006258347,0.0001782101,9,1
0.000537509,0.0002012234,9,1
0.0004083429,0.0002083542,9,1
0.0002574601,0.0002021958,9,1
0.000111115,0.0001910133,9,1
-1.464765e-05,0.0001786963,9,1
-0.0001193418,0.0001684862,9,1
-0.0002073433,0.0001610312,9,1
-0.0002851347,0.0001548727,9,1
-0.000362926,0.0001503349,9,1
-0.0004425001,0.0001534141,9,1
-0.00051705,0.0001678379,9,1
-0.000574097,0.0001911753,9,1
-0.0006066722,0.0002135403,9,1
-0.000616072,0.0002245608,9,1
-0.0006107238,0.0002188885,9,1
-0.0006019723,0.0001986303,9,1
-0.0005891691,0.0001688103,9,1
-0.0005528665,0.000135749,9,1
-0.0004736166,0.0001065772,9,1
-0.0003468815,8.437427e-05,9,1
-0.0001934057,7.286763e-05,9,1
-4.511593e-05,6.930219e-05,9,1
7.059871e-05,7.059871e-05,9,1
0.0001425557,7.384002e-05,9,1
0.0001691344,7.756752e-05,9,1
0.0001571416,7.918817e-05,9,1
0.0001222976,7.724339e-05,9,1
8.04847e-05,7.546067e-05,9,1
3.283749e-05,7.221937e-05,9,1
-2.7937e-05,6.557468e-05,9,1
-0.0001034594,5.423012e-05,9,1
-0.0001849783,3.786152e-05,9,1
-0.0002614731,1.64689e-05,9,1
-0.0003235441,-7.678839e-06,9,1
-0.0003669776,-3.182657e-05,9,1
-0.0003895047,-5.240886e-05,9,1
-0.0003906392,-6.780507e-05,9,1
-0.0003797808,-7.785312e-05,9,1
-0.0003697327,-8.563225e-05,9,1
-0.0003702189,-9.227693e-05,9,1
-0.0003791325,-9.924574e-05,9,1
-0.0003886944,-0.0001055663,9,1
-0.0003839945,-0.0001094559,9,1
-0.0003509331,-0.0001130213,9,1
-0.0002899966,-0.000117235,9,1
-0.0002167431,-0.0001195039,9,1
-0.000156941,-0.0001180453,9,1
-0.0001289037,-0.0001159385,9,1
-0.0001405724,-0.0001165867,9,1
-0.000181737,-0.0001193418,9,1
-0.0002263049,-0.0001183694,9,1
-0.0002499665,-0.0001105903,9,1
-0.0002421874,-9.811128e-05,9,1
-0.0002050744,-8.465986e-05,9,1
-0.0001475412,-7.55842e-05,9,1
-8.336335e-05,-7.542214e-05,9,1
-2.971972e-05,-8.271508e-05,9,1
2.04508e-06,-9.276313e-05,9,1
7.717366e-06,-9.66527e-05,9,1
-5.247859e-06,-9.422172e-05,9,1
-2.453363e-05,-9.000802e-05,9,1
-3.555408e-05,-8.968389e-05,9,1
-2.761287e-05,-9.438378e-05,9,1
4.313994e-06,-9.924574e-05,9,1
6.152305e-05,-9.973194e-05,9,1
0.0001347766,-9.422172e-05,9,1
0.0002033302,-8.287715e-05,9,1
0.000249843,-7.169464e-05,9,1
0.0002645909,-5.970181e-05,9,1
0.0002469258,-4.657452e-05,9,1
0.0002096508,-3.020592e-05,9,1
0.0001660552,-1.221667e-05,9,1
0.0001273216,8.041497e-06,9,1
0.0001039842,3.121684e-05,9,1
0.0001047945,5.747142e-05,9,1
0.0001318594,9.085688e-05,9,1
0.000173024,0.0001250527,9,1
0.0002122438,0.000153252,9,1
0.0002368777,0.0001670276,9,1
0.0002436845,0.000168,9,1
0.0002329882,0.0001613553,9,1
0.000210299,0.0001511452,9,1
0.000185503,0.0001386662,9,1
0.0001667035,0.0001260251,9,1
0.0001594105,0.0001151667,9,1
0.0001597346,0.000111115,9,1
0.0001586002,0.0001124116,9,1
0.000150659,0.0001140322,9,1
0.0001326697,0.0001112771,9,1
0.0001065772,0.000106091,9,1
8.145709e-05,0.0001007429,9,1
6.330578e-05,9.928428e-05,9,1
5.779555e-05,9.993253e-05,9,1
6.800567e-05,0.0001031738,9,1
8.923623e-05,0.0001067393,9,1
0.0001096565,0.0001062531,9,1
0.0001169494,9.782569e-05,9,1
0.0001062531,8.534666e-05,9,1
8.46984e-05,6.995045e-05,9,1
5.99024e-05,5.1475e-05,9,1
3.93201e-05,3.267542e-05,9,1
3.462021e-05,1.290346e-05,9,1
5.56887e-05,-8.165035e-06,9,1
9.733949e-05,-2.907146e-05,9,1
0.0001430419,-4.657452e-05,9,1
0.0001770756,-6.245691e-05,9,1
0.0001931201,-7.704279e-05,9,1
0.0001885823,-8.773911e-05,9,1
0.0001611932,-9.697683e-05,9,1
0.0001151667,-0.0001083214,9,1
6.217132e-05,-0.0001224211,9,1
2.197911e-05,-0.0001368449,9,1
7.23117e-06,-0.000149486,9,1
2.278944e-05,-0.0001496481,9,1
6.849186e-05,-0.0001342519,9,1
0.0001325077,-0.0001063766,9,1
0.0001979821,-7.833932e-05,9,1
0.0002535705,-6.035007e-05,9,1
0.0003034866,-5.69467e-05,9,1
0.000356482,-6.764301e-05,9,1
0.0004114222,-8.725291e-05,9,1
0.000462959,-0.0001086455,9,1
0.0004973168,-0.0001277692,9,1
0.000505258,-0.0001412206,9,1
0.0004781931,-0.000147055,9,1
0.0004166082,-0.0001468929,9,1
0.0003305515,-0.0001418689,9,1
0.0002367157,-0.0001326312,9,1
0.0001496866,-0.0001165867,9,1
7.497447e-05,-9.130454e-05,9,1
1.744129e-05,-6.197072e-05,9,1
-2.534396e-05,-3.928157e-05,9,1
-6.39155e-05,-2.826114e-05,9,1
-0.0001089697,-2.664048e-05,9,1
-0.0001592099,-2.971972e-05,9,1
-0.0002037779,-3.425755e-05,9,1
-0.0002303566,-3.555408e-05,9,1
-0.0002251705,-2.923353e-05,9,1
-0.0001865989,-1.480971e-05,9,1
-0.00012469,5.124321e-06,9,1
-5.305713e-05,2.684107e-05,9,1
1.906194e-05,4.564065e-05,9,1
8.46984e-05,6.217132e-05,9,1
0.0001440143,7.432621e-05,9,1
0.0001971717,8.161915e-05,9,1
0.000235095,8.599492e-05,9,1
0.0002389846,9.182927e-05,9,1
0.000202844,0.0001041462,9,1
0.000135749,0.0001193804,9,1
5.504044e-05,0.0001328318,9,1
-1.448558e-05,0.0001425557,9,1
-5.710876e-05,0.0001474177,9,1
-7.671866e-05,0.000145797,9,1
-8.806324e-05,0.0001404489,9,1
-0.0001028112,0.0001363972,9,1
-0.0001235555,0.0001367214,9,1
-0.0001481895,0.0001404489,9,1
-0.0001728234,0.0001496866,9,1
-0.0001971332,0.0001592484,9,1
-0.0002185258,0.0001658931,9,1
-0.0002303566,0.0001725378,9,1
-0.0002259808,0.000178048,9,1
-0.0002060468,0.0001769136,9,1
-0.0001770371,0.0001676758,9,1
-0.0001442999,0.0001551968,9,1
-0.0001042698,0.0001451488,9,1
-5.354332e-05,0.0001401247,9,1
1.720949e-06,0.000135749,9,1
4.094075e-05,0.0001297526,9,1
4.72613e-05,0.0001216493,9,1
1.873781e-05,0.0001163011,9,1
-3.68506e-05,0.0001156529,9,1
-0.0001016767,0.0001200286,9,1
-0.000159372,0.0001252147,9,1
-0.0002008607,0.0001289422,9,1
-0.0002266291,0.0001302388,9,1
-0.0002426735,0.0001286181,9,1
-0.000251101,0.0001222976,9,1
-0.0002454286,0.0001093323,9,1
-0.0002206326,9.458438e-05,9,1
-0.0001809267,8.291568e-05,9,1
-0.000142031,7.481241e-05,9,1
-0.0001206384,7.011252e-05,9,1
-0.000127283,7.059871e-05,9,1
-0.0001635857,7.400208e-05,9,1
-0.00021415,7.57848e-05,9,1
-0.0002527216,7.416415e-05,9,1
-0.0002577456,6.881599e-05,9,1
-0.0002254946,5.99024e-05,9,1
-0.0001755785,5.050261e-05,9,1
-0.000134738,3.964424e-05,9,1
-0.0001232314,2.408596e-05,9,1
-0.0001483515,4.80019e-06,9,1
-0.0002032917,-1.124428e-05,9,1
-0.0002674695,-2.210265e-05,9,1
-0.0003188442,-3.296103e-05,9,1
-0.000342992,-4.754691e-05,9,1
-0.0003352128,-7.007399e-05,9,1
-0.0003044204,-9.811128e-05,9,1
-0.0002580697,-0.0001256624,9,1
-0.0002024813,-0.0001423551,9,1
-0.0001457585,-0.0001426792,9,1
-9.827335e-05,-0.0001258245,9,1
-6.958779e-05,-0.0001007043,9,1
-6.229485e-05,-7.801519e-05,9,1
-7.039812e-05,-6.278104e-05,9,1
-7.60704e-05,-5.516398e-05,9,1
-7.023606e-05,-5.143648e-05,9,1
-5.565017e-05,-4.90055e-05,9,1
-4.090223e-05,-4.284701e-05,9,1
-3.425755e-05,-3.21507e-05,9,1
-3.814712e-05,-2.145439e-05,9,1
-4.495386e-05,-1.62683e-05,9,1
-4.85193e-05,-2.113026e-05,9,1
-3.863332e-05,-3.506788e-05,9,1
-8.651231e-06,-5.062615e-05,9,1
4.239934e-05,-6.602235e-05,9,1
0.0001088461,-7.65566e-05,9,1
0.000180479,-7.704279e-05,9,1
0.0002427121,-6.618442e-05,9,1
0.0002859836,-5.013995e-05,9,1
0.0003106175,-3.409549e-05,9,1
0.000331848,-2.404744e-05,9,1
0.0003624784,-2.194059e-05,9,1
0.0003999155,-2.745081e-05,9,1
0.0004347596,-3.409549e-05,9,1
0.0004538833,-3.312309e-05,9,1
0.0004540453,-1.950961e-05,9,1
0.0004396215,4.80019e-06,9,1
0.0004201737,3.267542e-05,9,1
0.0004063981,5.763349e-05,9,1
0.0004106118,7.67572e-05,9,1
0.0004360561,8.631905e-05,9,1
0.0004757621,8.810177e-05,9,1
0.000515144,8.583286e-05,9,1
0.0005444778,8.080883e-05,9,1
0.0005545259,7.157111e-05,9,1
0.0005410745,5.666109e-05,9,1
0.0005072028,3.996837e-05,9,1
0.00046069,2.424803e-05,9,1
0.0004054258,1.679302e-05,9,1
0.0003493511,1.938607e-05,9,1
0.0002983005,3.121684e-05,9,1
0.000250005,4.499239e-05,9,1
0.0002044647,5.390598e-05,9,1
0.0001615174,5.649903e-05,9,1
0.0001266733,5.601284e-05,9,1
0.0001038221,5.666109e-05,9,1
8.599492e-05,5.909208e-05,9,1
6.006447e-05,6.071273e-05,9,1
2.489629e-05,5.682316e-05,9,1
-1.432352e-05,5.131294e-05,9,1
-5.030202e-05,4.969229e-05,9,1
-7.65566e-05,5.1475e-05,9,1
-9.341139e-05,5.131294e-05,9,1
-0.0001081593,4.499239e-05,9,1
-0.0001258245,3.60788e-05,9,1
-0.0001464067,2.992031e-05,9,1
-0.0001703924,2.878586e-05,9,1
-0.0001963229,3.267542e-05,9,1
-0.0002248464,4.061663e-05,9,1
-0.0002545043,5.017848e-05,9,1
-0.0002827037,5.309566e-05,9,1
-0.000305879,4.499239e-05,9,1
-0.000318196,2.975825e-05,9,1
-0.0003194925,1.144487e-05,9,1
-0.0003112272,-7.354709e-06,9,1
-0.0002943724,-2.955766e-05,9,1
-0.0002663351,-5.192267e-05,9,1
-0.0002248464,-7.137051e-05,9,1
-0.0001699062,-8.82253e-05,9,1
-0.0001135075,-0.0001020008,9,1
-7.380149e-05,-0.0001099421,9,1
-6.359137e-05,-0.0001110765,9,1
-8.02841e-05,-0.0001060525,9,1
-0.0001139937,-9.746302e-05,9,1
-0.0001483515,-8.838737e-05,9,1
-0.0001661787,-8.125649e-05,9,1
-0.0001543479,-7.833932e-05,9,1
-0.0001065387,-7.850138e-05,9,1
-3.150244e-05,-7.60704e-05,9,1
5.747142e-05,-6.877746e-05,9,1
0.0001389903,-5.59743e-05,9,1
0.0001916615,-4.05781e-05,9,1
0.0001999268,-2.550602e-05,9,1
0.000160545,-1.140634e-05,9,1
8.550872e-05,-2.492749e-06,9,1
1.002961e-07,-4.437533e-06,9,1
-6.926366e-05,-1.950961e-05,9,1
-0.0001045939,-4.268495e-05,9,1
-0.0001042698,-6.634648e-05,9,1
-8.271508e-05,-8.465986e-05,9,1
-6.521203e-05,-9.503204e-05,9,1
-7.898758e-05,-9.811128e-05,9,1
-0.0001368449,-9.568031e-05,9,1
-0.0002295462,-8.854943e-05,9,1
-0.0003277578,-7.817725e-05,9,1
-0.0004055492,-6.715681e-05,9,1
-0.0004471999,-5.548811e-05,9,1
-0.0004528722,-4.576419e-05,9,1
-0.0004282383,-4.074016e-05,9,1
-0.0003789705,-4.203669e-05,9,1
-0.0003105789,-4.511593e-05,9,1
-0.0002277635,-4.317115e-05,9,1
-0.0001340898,-3.490581e-05,9,1
-3.68506e-05,-2.210265e-05,9,1
5.212327e-05,-8.813297e-06,9,1
0.0001247285,4.47606e-06,9,1
0.0001788584,1.533444e-05,9,1
0.0002179161,2.376183e-05,9,1
0.0002433604,2.684107e-05,9,1
0.0002538946,2.635488e-05,9,1
0.0002560015,2.959619e-05,9,1
0.0002577842,4.175109e-05,9,1
0.0002692908,6.249545e-05,9,1
0.0002978143,8.729144e-05,9,1
0.0003384927,0.0001116012,9,1
0.0003780367,0.0001320215,9,1
0.0003969983,0.0001446626,9,1
0.0003790091,0.0001490383,9,1
0.000324393,0.0001433661,9,1
0.0002444948,0.0001292664,9,1
0.0001618415,0.0001146805,9,1
9.134307e-05,0.0001044704,9,1
4.142696e-05,9.814982e-05,9,1
1.112074e-05,9.280167e-05,9,1
-3.951337e-06,8.712937e-05,9,1
-1.610624e-05,8.016057e-05,9,1
-3.344723e-05,7.20573e-05,9,1
-6.002594e-05,6.476436e-05,9,1
-9.081835e-05,6.03886e-05,9,1
-0.0001089697,5.925414e-05,9,1
-0.0001015147,5.763349e-05,9,1
-6.634648e-05,5.779555e-05,9,1
-1.221667e-05,6.087479e-05,9,1
4.272347e-05,6.816773e-05,9,1
8.04847e-05,8.712937e-05,9,1
9.004655e-05,0.0001227837,9,1
7.140904e-05,0.0001662173,9,1
3.283749e-05,0.0001999268,9,1
-1.124428e-05,0.0002128921,9,1
-5.419158e-05,0.0002055991,9,1
-9.260107e-05,0.0001809652,9,1
-0.0001235555,0.0001469315,9,1
-0.0001462447,0.0001088461,9,1
-0.0001642339,6.978839e-05,9,1
-0.0001810887,3.575467e-05,9,1
-0.0001951884,1.014835e-05,9,1
-0.0001989159,-6.868513e-06,9,1
-0.0001807646,-1.756482e-05,9,1
-0.0001337657,-2.291298e-05,9,1
-6.06742e-05,-2.583016e-05,9,1
2.327564e-05,-3.150244e-05,9,1
9.458438e-05,-3.911951e-05,9,1
0.0001313732,-4.835724e-05,9,1
0.0001274836,-5.710876e-05,9,1
8.939829e-05,-6.326724e-05,9,1
3.056858e-05,-6.829127e-05,9,1
-3.21507e-05,-7.104638e-05,9,1
-8.141856e-05,-6.958779e-05,9,1
-0.0001092938,-6.504996e-05,9,1
-0.0001165867,-5.759496e-05,9,1
-0.0001094559,-4.819517e-05,9,1
-9.746302e-05,-3.830919e-05,9,1
-9.389759e-05,-2.923353e-05,9,1
-0.0001109144,-2.485776e-05,9,1
-0.0001496481,-2.404744e-05,9,1
-0.000196647,-2.356124e-05,9,1
-0.0002284118,-2.226472e-05,9,1
-0.0002297083,-2.129233e-05,9,1
-0.0001971332,-2.226472e-05,9,1
-0.0001408965,-2.453363e-05,9,1
-7.574627e-05,-2.534396e-05,9,1
-1.659243e-05,-2.113026e-05,9,1
2.538249e-05,-1.059602e-05,9,1
4.888196e-05,4.962256e-06,9,1
5.811968e-05,1.987227e-05,9,1
5.763349e-05,2.910999e-05,9,1
5.179914e-05,3.218923e-05,9,1
4.126489e-05,3.089271e-05,9,1
2.473423e-05,2.943412e-05,9,1
8.365628e-06,3.18651e-05,9,1
-4.275467e-06,3.98063e-05,9,1
-1.480971e-05,4.969229e-05,9,1
-2.258885e-05,5.747142e-05,9,1
-2.647842e-05,6.525056e-05,9,1
-2.566809e-05,7.189524e-05,9,1
-2.177852e-05,7.562274e-05,9,1
-1.156841e-05,7.610894e-05,9,1
6.096713e-06,6.962632e-05,9,1
3.818565e-05,5.649903e-05,9,1
8.972242e-05,4.126489e-05,9,1
0.0001543865,2.489629e-05,9,1
0.0002145127,1.079661e-05,9,1
0.0002618358,5.86492e-07,9,1
0.0002978143,-6.220252e-06,9,1
0.0003323342,-8.975362e-06,9,1
0.0003712299,-7.354709e-06,9,1
0.0004114222,-2.654814e-06,9,1
0.0004401077,7.069105e-06,9,1
0.0004415663,2.035846e-05,9,1
0.0004070464,3.656499e-05,9,1
0.0003433547,6.087479e-05,9,1
0.0002678322,9.474644e-05,9,1
0.000202844,0.0001302388,9,1
0.0001620036,0.0001594105,9,1
0.0001472556,0.0001785342,9,1
0.0001498487,0.0001874478,9,1
0.0001628139,0.0001887444,9,1
0.0001833962,0.0001867996,9,1
0.0002096508,0.0001848548,9,1
0.0002391467,0.0001811273,9,1
0.0002665357,0.0001741585,9,1
0.0002843629,0.0001641104,9,1
0.0002877662,0.0001543865,9,1
0.000277232,0.0001493625,9,1
0.0002571359,0.0001511452,9,1
0.0002380122,0.0001586002,9,1
0.0002339606,0.0001650828,9,1
0.0002504913,0.0001626518,9,1
0.0002788527,0.0001453108,9,1
0.0003055935,0.0001187321,9,1
0.0003133726,9.21534e-05,9,1
0.0002937627,6.719535e-05,9,1
0.0002451431,4.256141e-05,9,1
0.0001722137,1.565857e-05,9,1
8.226741e-05,-1.529591e-05,9,1
-1.448558e-05,-4.38194e-05,9,1
-0.0001021629,-6.375344e-05,9,1
-0.0001666649,-7.088431e-05,9,1
-0.0002062088,-6.683268e-05,9,1
-0.0002274394,-5.743289e-05,9,1
-0.0002384598,-4.754691e-05,9,1
-0.0002452666,-4.236082e-05,9,1
-0.0002528836,-4.090223e-05,9,1
-0.0002677937,-3.863332e-05,9,1
-0.000295993,-3.231277e-05,9,1
-0.0003392644,-2.242678e-05,9,1
-0.0003914495,-1.383732e-05,9,1
-0.0004452552,-1.351319e-05,9,1
-0.0004963057,-2.46957e-05,9,1
-0.0005446012,-4.495386e-05,9,1
-0.0005877105,-6.991193e-05,9,1
-0.0006215822,-9.438378e-05,9,1
-0.000640868,-0.0001162626,9,1
-0.0006379507,-0.0001339277,9,1
-0.0006092652,-0.0001439758,9,1
-0.000554163,-0.0001480274,9,1
-0.0004773441,-0.0001491618,9,1
-0.0003830221,-0.0001473791,9,1
-0.0002797865,-0.0001396,9,1
-0.0001797922,-0.0001261486,9,1
-8.790117e-05,-0.000112211,9,1
-3.789272e-06,-0.0001026491,9,1
6.557468e-05,-9.989401e-05,9,1
0.0001156529,-0.0001036215,9,1
0.000150659,-0.0001063766,9,1
0.000180479,-0.0001020008,9,1
0.0002109473,-9.114248e-05,9,1
0.0002433604,-7.671866e-05,9,1
0.0002764217,-6.39155e-05,9,1
0.0003107795,-5.678463e-05,9,1
0.0003461098,-5.030202e-05,9,1
0.000383871,-4.009191e-05,9,1
0.0004290873,-2.566809e-05,9,1
0.0004940755,-9.623623e-06,9,1
0.0005825632,4.47606e-06,9,1
0.0006822334,1.517237e-05,9,1
0.0007731522,2.295151e-05,9,1
0.000839599,3.073064e-05,9,1
0.000866826,3.786152e-05,9,1
0.0008441369,4.547859e-05,9,1
0.0007681281,5.536457e-05,9,1
0.0006491721,6.800567e-05,9,1
0.0005049339,8.04847e-05,9,1
0.000353889,8.583286e-05,9,1
0.0002039785,8.129502e-05,9,1
6.557468e-05,6.881599e-05,9,1
-5.840528e-05,5.633696e-05,9,1
-0.0001637477,4.580272e-05,9,1
-0.0002517492,3.818565e-05,9,1
-0.0003288923,3.332369e-05,9,1
-0.0003992286,3.364782e-05,9,1
-0.0004604893,4.499239e-05,9,1
-0.0005078124,6.541262e-05,9,1
-0.0005369841,8.79397e-05,9,1
-0.0005458977,0.0001078737,9,1
-0.0005381186,0.0001206769,9,1
-0.0005183466,0.0001273216,9,1
-0.0004869059,0.0001286181,9,1
-0.0004371519,0.0001237561,9,1
-0.0003742705,0.0001132219,9,1
-0.0003087962,9.879808e-05,9,1
-0.0002473734,8.097089e-05,9,1
-0.0001932436,6.217132e-05,9,1
-0.0001460826,4.515445e-05,9,1
-9.649064e-05,3.332369e-05,9,1
-3.053005e-05,2.554455e-05,9,1
5.309566e-05,1.792748e-05,9,1
0.0001436902,1.014835e-05,9,1
0.0002192126,-5.479652e-07,9,1
0.0002624841,-1.464765e-05,9,1
0.000269777,-3.21507e-05,9,1
0.0002511395,-4.819517e-05,9,1
0.000220023,-6.245691e-05,9,1
0.0001869616,-7.914964e-05,9,1
0.0001517934,-0.0001013526,9,1
0.0001140322,-0.0001251762,9,1
7.821578e-05,-0.0001417068,9,1
4.483033e-05,-0.000144462,9,1
4.80019e-06,-0.0001340898,9,1
-4.868137e-05,-0.0001164247,9,1
-0.0001126972,-9.551824e-05,9,1
-0.0001789819,-7.477388e-05,9,1
-0.0002365151,-5.613637e-05,9,1
-0.000276059,-4.268495e-05,9,1
-0.0002914552,-3.409549e-05,9,1
-0.0002836761,-2.777494e-05,9,1
-0.0002645523,-1.950961e-05,9,1
-0.0002442942,-8.813297e-06,9,1
-0.0002287359,4.47606e-06,9,1
-0.0002199844,1.857574e-05,9,1
-0.0002135018,3.235129e-05,9,1
-0.0002034537,4.223728e-05,9,1
-0.0001838438,4.564065e-05,9,1
-0.0001572651,4.013043e-05,9,1
-0.0001269589,2.635488e-05,9,1
-9.29252e-05,7.879432e-06,9,1
-4.932962e-05,-1.075808e-05,9,1
7.393236e-06,-2.031993e-05,9,1
6.865393e-05,-1.3027e-05,9,1
0.0001163011,9.824215e-06,9,1
0.0001336421,4.061663e-05,9,1
0.0001175977,6.638502e-05,9,1
7.772959e-05,7.546067e-05,9,1
3.170304e-05,6.281957e-05,9,1
-8.720959e-07,3.154097e-05,9,1
-2.978945e-06,-4.923729e-06,9,1
3.073064e-05,-3.490581e-05,9,1
8.437427e-05,-5.743289e-05,9,1
0.0001320215,-7.493595e-05,9,1
0.0001454729,-8.725291e-05,9,1
0.0001122495,-9.373552e-05,9,1
4.061663e-05,-9.130454e-05,9,1
-4.770897e-05,-8.255302e-05,9,1
-0.0001259865,-7.039812e-05,9,1
-0.0001771992,-5.69467e-05,9,1
-0.0001981056,-4.05781e-05,9,1
-0.0001890299,-2.161646e-05,9,1
-0.0001447861,-3.303076e-06,9,1
-6.002594e-05,1.501031e-05,9,1
6.233338e-05,3.251336e-05,9,1
0.0001911753,4.888196e-05,9,1
0.0002832284,6.849186e-05,9,1
0.0003091589,9.16672e-05,9,1
0.0002676702,0.0001106288,9,1
0.0001864754,0.0001203528,9,1
9.912221e-05,0.0001205148,9,1
2.748934e-05,0.0001197045,9,1
-2.226472e-05,0.0001221355,9,1
-5.127441e-05,0.0001289422,9,1
-6.083626e-05,0.0001363972,9,1
-5.32192e-05,0.0001414213,9,1
-2.583016e-05,0.0001404489,9,1
2.505836e-05,0.000130725,9,1
9.361199e-05,0.0001166253,9,1
0.000163138,0.0001026876,9,1
0.0002135403,9.31258e-05,9,1
0.0002328261,8.84259e-05,9,1
0.0002205092,8.988449e-05,9,1
0.0001918236,9.507057e-05,9,1
0.0001634622,0.0001031738,9,1
0.0001475797,0.0001140322,9,1
0.0001425557,0.0001263492,9,1
0.0001406109,0.0001362352,9,1
0.0001323456,0.0001415833,9,1
0.0001151667,0.0001425557,9,1
9.31258e-05,0.0001445005,9,1
6.881599e-05,0.000153252,9,1
4.175109e-05,0.0001676758,9,1
1.403791e-05,0.0001806411,9,1
-7.516774e-06,0.0001882582,9,1
-1.772689e-05,0.0001876099,9,1
-1.659243e-05,0.000178048,9,1
-1.189254e-05,0.0001594105,9,1
-1.416145e-05,0.0001344524,9,1
-3.117831e-05,0.0001096565,9,1
-5.953974e-05,8.875003e-05,9,1
-9.049421e-05,7.189524e-05,9,1
-0.0001203142,5.860588e-05,9,1
-0.0001430034,4.661304e-05,9,1
-0.0001498101,3.348575e-05,9,1
-0.0001433275,2.133085e-05,9,1
-0.0001336036,1.322759e-05,9,1
-0.0001224211,7.717366e-06,9,1
-0.0001094559,-2.238346e-07,9,1
-9.649064e-05,-1.270286e-05,9,1
-8.838737e-05,-2.680255e-05,9,1
-8.984595e-05,-3.620233e-05,9,1
-9.843541e-05,-3.63644e-05,9,1
-0.0001071869,-2.745081e-05,9,1
-0.0001052422,-1.189254e-05,9,1
-8.579432e-05,8.527692e-06,9,1
-5.030202e-05,3.040651e-05,9,1
-1.173047e-05,4.985435e-05,9,1
1.679302e-05,6.476436e-05,9,1
3.494434e-05,7.124698e-05,9,1
4.515445e-05,6.83298e-05,9,1
5.487838e-05,5.504044e-05,9,1
7.821578e-05,3.380988e-05,9,1
0.0001190562,1.12828e-05,9,1
0.0001710792,-7.354709e-06,9,1
0.0002261814,-2.226472e-05,9,1
0.0002803113,-3.668853e-05,9,1
0.0003334687,-5.2733e-05,9,1
0.000373985,-7.266703e-05,9,1
0.0003895433,-9.778715e-05,9,1
0.0003736609,-0.0001251762,9,1
0.0003336308,-0.0001489998,9,1
0.0002814457,-0.0001697442,9,1
0.0002273159,-0.0001898403,9,1
0.0001762653,-0.0002075054,9,1
0.0001328318,-0.0002182017,9,1
9.750156e-05,-0.0002198223,9,1
7.108491e-05,-0.0002138259,9,1
5.034055e-05,-0.0002060468,9,1
2.538249e-05,-0.0001995642,9,1
-1.124428e-05,-0.0001914609,9,1
-6.148453e-05,-0.0001746061,9,1
-0.0001141558,-0.0001515928,9,1
-0.0001489998,-0.0001284175,9,1
-0.0001525652,-0.0001086455,9,1
-0.0001233935,-9.438378e-05,9,1
-7.056019e-05,-8.514606e-05,9,1
-9.299493e-06,-8.174268e-05,9,1
4.110282e-05,-8.514606e-05,9,1
6.573675e-05,-9.19528e-05,9,1
6.006447e-05,-0.0001002181,9,1
3.251336e-05,-0.0001067007,9,1
-2.654814e-06,-0.0001099421,9,1
-4.155049e-05,-0.0001114006,9,1
-8.060823e-05,-0.0001130213,9,1
-0.0001109144,-0.0001094559,9,1
-0.0001295519,-9.357346e-05,9,1
-0.0001352242,-6.278104e-05,9,1
-0.0001285796,-2.177852e-05,9,1
-0.0001152902,2.181705e-05,9,1
-0.0001075111,6.022653e-05,9,1
-0.0001146419,9.150514e-05,9,1
-0.0001374932,0.0001175977,9,1
-0.0001642339,0.0001380179,9,1
-0.0001801163,0.0001513072,9,1
-0.0001762268,0.0001582761,9,1
-0.000152079,0.0001613553,9,1
-0.0001028112,0.0001634622,9,1
-2.210265e-05,0.000168,9,1
8.923623e-05,0.0001741585,9,1
0.0002227781,0.0001801549,9,1
0.0003534027,0.0001824238,9,1
0.0004524247,0.0001773998,9,1
0.0005010443,0.000165569,9,1
0.0004945617,0.0001517934,9,1
0.0004404318,0.0001380179,9,1
0.0003534027,0.0001244044,9,1
0.0002495189,0.0001120874,9,1
0.0001479039,0.0001023635,9,1
6.962632e-05,9.458438e-05,9,1
2.441009e-05,8.453633e-05,9,1
1.063454e-05,7.108491e-05,9,1
1.873781e-05,5.730935e-05,9,1
4.126489e-05,5.034055e-05,9,1
7.416415e-05,5.423012e-05,9,1
0.0001180839,6.606088e-05,9,1
0.0001702689,8.340187e-05,9,1
0.0002231022,0.0001062531,9,1
0.0002688046,0.0001279698,9,1
0.0002983005,0.0001393144,9,1
0.0003025142,0.000133318,9,1
0.0002775562,0.0001075496,9,1
0.0002182402,7.092284e-05,9,1
0.000130887,3.332369e-05,9,1
3.040651e-05,3.665733e-06,9,1
-6.310517e-05,-1.383732e-05,9,1
-0.0001339277,-1.950961e-05,9,1
-0.0001757406,-1.837515e-05,9,1
-0.0001925954,-1.740276e-05,9,1
-0.0001969711,-2.745081e-05,9,1
-0.0002104225,-5.370539e-05,9,1
-0.0002509389,-9.211487e-05,9,1
-0.0003160891,-0.0001316588,9,1
-0.0003935563,-0.0001592099,9,1
-0.0004689167,-0.0001729855,9,1
-0.0005316359,-0.0001776853,9,1
-0.000573935,-0.0001794681,9,1
-0.0005919242,-0.000179306,9,1
-0.0005844692,-0.0001728234,9,1
-0.0005528665,-0.00015451,9,1
-0.0005063537,-0.00012469,9,1
-0.0004544929,-8.692878e-05,9,1
-0.0003998769,-4.787104e-05,9,1
-0.0003438023,-1.124428e-05,9,1
-0.0002865932,1.889987e-05,9,1
-0.0002250084,3.98063e-05,9,1
-0.0001535376,5.552663e-05,9,1
-7.266703e-05,6.816773e-05,9,1
2.100672e-05,7.853991e-05,9,1
0.0001312112,8.291568e-05,9,1
0.0002529222,8.080883e-05,9,1
0.0003734989,7.027458e-05,9,1
0.0004770586,5.779555e-05,9,1
0.0005514466,5.082674e-05,9,1
0.0005937457,5.260946e-05,9,1
0.0006106006,6.346784e-05,9,1
0.0006196762,8.275361e-05,9,1
0.000631507,0.0001057669,9,1
0.0006357207,0.0001247285,9,1
0.0006109247,0.0001389903,9,1
0.000544964,0.0001487142,9,1
0.0004391353,0.0001496866,9,1
0.0003114278,0.0001385041,9,1
0.0001762653,0.0001201907,9,1
4.871989e-05,0.0001023635,9,1
-5.69467e-05,8.923623e-05,9,1
-0.0001306864,8.405014e-05,9,1
-0.0001788198,8.761557e-05,9,1
-0.0002170672,9.766362e-05,9,1
-0.0002569353,0.0001101427,9,1
-0.0002998826,0.0001206769,9,1
-0.0003423437,0.0001269974,9,1
-0.000375405,0.0001305629,9,1
-0.0003945287,0.0001349386,9,1
-0.000397608,0.0001419075,9,1
-0.0003861013,0.0001509831,9,1
-0.0003663294,0.0001566554,9,1
-0.0003418575,0.0001535762,9,1
-0.0003096065,0.0001423936,9,1
-0.0002556388,0.0001248906,9,1
-0.0001708786,0.0001041462,9,1
-6.245691e-05,8.599492e-05,9,1
5.455425e-05,7.52986e-05,9,1
0.0001621656,7.52986e-05,9,1
0.0002488706,7.983644e-05,9,1
0.0003065659,8.275361e-05,9,1
0.0003344411,7.837785e-05,9,1
0.0003355756,6.670914e-05,9,1
0.0003145071,4.839576e-05,9,1
0.0002782044,2.878586e-05,9,1
0.0002341226,1.095867e-05,9,1
0.0001840444,-2.006553e-06,9,1
0.0001235941,-7.354709e-06,9,1
5.601284e-05,-8.165035e-06,9,1
-4.923729e-06,-1.027188e-05,9,1
-4.576419e-05,-1.562004e-05,9,1
-6.699475e-05,-2.080613e-05,9,1
-8.109443e-05,-2.258885e-05,9,1
-0.0001054042,-2.501983e-05,9,1
-0.0001533756,-3.198864e-05,9,1
-0.0002230636,-4.544006e-05,9,1
-0.0002979378,-6.342931e-05,9,1
-0.0003544986,-8.352541e-05,9,1
-0.0003797808,-0.0001024871,9,1
-0.0003749188,-0.0001170729,9,1
-0.0003491504,-0.00012469,9,1
-0.0003203028,-0.0001255003,9,1
-0.0003039342,-0.0001232314,9,1
-0.0003036101,-0.0001225832,9,1
-0.0003079858,-0.0001242038,9,1
-0.0002997205,-0.0001282554,9,1
-0.0002652006,-0.0001318209,9,1
-0.0002044261,-0.0001329553,9,1
-0.0001306864,-0.0001303623,9,1
-6.261898e-05,-0.0001250141,9,1
-1.270286e-05,-0.0001185315,9,1
2.133085e-05,-0.0001133454,9,1
5.034055e-05,-0.0001096179,9,1
8.712937e-05,-0.0001065387,9,1
0.0001430419,-0.0001003802,9,1
0.0002258573,-8.368748e-05,9,1
0.0003295791,-5.467778e-05,9,1
0.0004370285,-1.497178e-05,9,1
0.0005255162,3.121684e-05,9,1
0.0005781874,8.032264e-05,9,1
0.0005864528,0.0001247285,9,1
0.0005477191,0.0001513072,9,1
0.0004665244,0.0001521176,9,1
0.0003585888,0.0001269974,9,1
0.0002488706,8.696731e-05,9,1
0.0001521176,4.790957e-05,9,1
7.059871e-05,2.408596e-05,9,1
2.207145e-06,1.727922e-05,9,1
-4.916756e-05,1.825161e-05,9,1
-7.931171e-05,2.052053e-05,9,1
-9.146661e-05,1.792748e-05,9,1
-9.649064e-05,6.744974e-06,9,1
-0.0001041077,-1.20546e-05,9,1
-0.0001156143,-3.539201e-05,9,1
-0.0001229073,-5.500191e-05,9,1
-0.0001217728,-6.423963e-05,9,1
-0.0001190177,-6.06742e-05,9,1
-0.0001199901,-4.754691e-05,9,1
-0.0001323071,-3.247483e-05,9,1
-0.0001627754,-1.902341e-05,9,1
-0.0002053985,-1.124428e-05,9,1
-0.0002429977,-8.327101e-06,9,1
-0.0002639041,-5.89612e-06,9,1
-0.0002622834,1.396819e-06,9,1
-0.0002335979,1.711715e-05,9,1
-0.0001848162,3.948217e-05,9,1
-0.0001233935,6.233338e-05,9,1
-5.856735e-05,7.691926e-05,9,1
-1.358292e-06,8.032264e-05,9,1
4.547859e-05,7.562274e-05,9,1
9.474644e-05,6.897806e-05,9,1
0.0001764274,6.346784e-05,9,1
0.0003141829,5.94162e-05,9,1
0.0005104441,5.585077e-05,9,1
0.0007315014,4.82337e-05,9,1
0.0009311661,3.737532e-05,9,1
0.001075404,2.910999e-05,9,1
0.001148334,3.008238e-05,9,1
0.00114412,3.802358e-05,9,1
0.001069732,4.985435e-05,9,1
0.0009405658,6.379197e-05,9,1
0.0007705591,7.740546e-05,9,1
0.0005788357,8.405014e-05,9,1
0.0003807918,8.437427e-05,9,1
0.0001885823,8.194328e-05,9,1
1.355172e-05,7.951231e-05,9,1
-0.0001300382,7.52986e-05,9,1
-0.000233922,6.930219e-05,9,1
-0.0003024756,5.957827e-05,9,1
-0.0003459091,4.35338e-05,9,1
-0.0003707051,2.408596e-05,9,1
-0.0003830221,4.151929e-06,9,1
-0.0003898288,-9.623623e-06,9,1
-0.0003987424,-1.643037e-05,9,1
-0.0004130042,-1.772689e-05,9,1
-0.00042759,-1.869928e-05,9,1
-0.0004387725,-2.242678e-05,9,1
-0.0004415277,-2.7937e-05,9,1
-0.0004356933,-3.377136e-05,9,1
-0.0004230522,-3.976777e-05,9,1
-0.0004071698,-4.608832e-05,9,1
-0.0003920977,-5.32192e-05,9,1
-0.0003799429,-6.116039e-05,9,1
-0.0003684362,-7.088431e-05,9,1
-0.000353202,-8.206682e-05,9,1
-0.0003321336,-9.632857e-05,9,1
-0.0003045825,-0.0001133454,9,1
-0.0002801106,-0.0001285796,9,1
-0.0002624455,-0.0001360346,9,1
-0.0002528836,-0.0001334415,9,1
-0.0002478596,-0.000122097,9,1
-0.0002407288,-0.0001039456,9,1
-0.0002290601,-7.833932e-05,9,1
-0.0002151224,-4.43056e-05,9,1
-0.0002034537,-8.651231e-06,9,1
-0.0001955125,2.052053e-05,9,1
-0.0001882196,3.624086e-05,9,1
-0.0001773612,3.55926e-05,9,1
-0.000161965,2.165498e-05,9,1
-0.0001423551,9.106227e-07,9,1
-0.000117235,-1.383732e-05,9,1
-8.579432e-05,-1.25408e-05,9,1
-5.370539e-05,6.90704e-06,9,1
-2.226472e-05,3.737532e-05,9,1
1.193106e-05,7.221937e-05,9,1
4.871989e-05,0.0001062531,9,1
7.643307e-05,0.0001373696,9,1
8.242948e-05,0.0001642725,9,1
5.747142e-05,0.0001824238,9,1
5.610517e-06,0.0001913374,9,1
-5.937768e-05,0.0001861513,9,1
-0.0001175591,0.000168162,9,1
-0.0001517549,0.0001427178,9,1
-0.0001525652,0.0001182459,9,1
-0.0001164247,0.0001025256,9,1
-5.354332e-05,9.944634e-05,9,1
1.825161e-05,0.0001057669,9,1
7.853991e-05,0.0001117633,9,1
0.000111115,0.000113384,9,1
0.0001153287,0.0001098185,9,1
0.0001020394,0.0001025256,9,1
9.053275e-05,9.490851e-05,9,1
0.0001030118,8.891209e-05,9,1
0.000158114,8.486046e-05,9,1
0.0002610255,7.90261e-05,9,1
0.0004054258,6.914012e-05,9,1
0.0005663567,5.131294e-05,9,1
0.0007110811,2.489629e-05,9,1
0.0008102651,-3.627206e-06,9,1
0.0008525642,-2.664048e-05,9,1
0.0008438127,-3.749886e-05,9,1
0.0007945448,-3.717473e-05,9,1
0.0007118915,-2.89094e-05,9,1
0.0006034696,-1.886135e-05,9,1
0.0004809482,-9.785688e-06,9,1
0.0003572923,-2.330684e-06,9,1
0.0002365536,8.527692e-06,9,1
0.0001219734,2.473423e-05,9,1
1.987227e-05,4.35338e-05,9,1
-6.261898e-05,5.860588e-05,9,1
-0.0001227452,6.865393e-05,9,1
-0.0001554824,7.400208e-05,9,1
-0.0001583996,7.935024e-05,9,1
-0.0001329553,8.826383e-05,9,1
-8.579432e-05,9.944634e-05,9,1
-3.085418e-05,0.0001117633,9,1
2.505836e-05,0.0001221355,9,1
7.140904e-05,0.0001271595,9,1
9.377406e-05,0.0001247285,9,1
8.340187e-05,0.0001114392,9,1
4.418206e-05,8.84259e-05,9,1
-1.108221e-05,6.249545e-05,9,1
-6.44017e-05,3.867184e-05,9,1
-9.697683e-05,1.630683e-05,9,1
-9.66527e-05,-8.651231e-06,9,1
-6.245691e-05,-4.05781e-05,9,1
-3.303076e-06,-7.752899e-05,9,1
6.427817e-05,-0.000112373,9,1
0.000121001,-0.0001407345,9,1
0.0001492004,-0.0001605064,9,1
0.0001370455,-0.0001702304,9,1
8.875003e-05,-0.0001715269,9,1
2.262738e-05,-0.0001640719,9,1
-4.074016e-05,-0.0001472171,9,1
-8.984595e-05,-0.0001255003,9,1
-0.0001292278,-9.778715e-05,9,1
-0.0001702304,-6.423963e-05,9,1
-0.0002235498,-2.745081e-05,9,1
-0.0002911311,4.638125e-06,9,1
-0.0003674638,2.197911e-05,9,1
-0.0004428242,2.084466e-05,9,1
-0.0005006815,4.80019e-06,9,1
-0.0005277464,-1.480971e-05,9,1
-0.0005264499,-2.550602e-05,9,1
-0.0005060296,-2.258885e-05,9,1
-0.0004705373,-7.516774e-06,9,1
-0.0004131662,9.66215e-06,9,1
-0.0003188442,1.873781e-05,9,1
-0.0001765509,1.517237e-05,9,1
-2.492749e-06,1.720949e-06,9,1
0.0001582761,-1.432352e-05,9,1
0.0002666978,-2.194059e-05,9,1
0.0003077003,-1.983374e-05,9,1
0.0002851732,-1.383732e-05,9,1
0.0002146748,-9.623623e-06,9,1
0.0001171115,-1.173047e-05,9,1
2.716521e-05,-1.432352e-05,9,1
-2.064406e-05,-9.623623e-06,9,1
-1.497178e-05,-6.176923e-08,9,1
3.705119e-05,4.47606e-06,9,1
0.0001153287,2.369211e-06,9,1
0.000202682,-2.168618e-06,9,1
0.0002816078,-1.196227e-06,9,1
0.0003355756,9.013889e-06,9,1
0.0003559958,2.748934e-05,9,1
0.0003405996,4.920609e-05,9,1
0.00029198,6.865393e-05,9,1
0.0002224539,8.388807e-05,9,1
0.0001504969,9.393612e-05,9,1
9.296373e-05,9.63671e-05,9,1
5.325772e-05,8.858796e-05,9,1
1.873781e-05,7.756752e-05,9,1
-2.194059e-05,7.286763e-05,9,1
-6.342931e-05,7.853991e-05,9,1
-9.2439e-05,9.328786e-05,9,1
-0.0001008664,0.0001143563,9,1
-9.098041e-05,0.0001341283,9,1
-7.23429e-05,0.0001453108,9,1
-5.808115e-05,0.0001462832,9,1
-5.548811e-05,0.0001425557,9,1
-5.824322e-05,0.0001406109,9,1
-5.808115e-05,0.0001453108,9,1
-4.657452e-05,0.0001560072,9,1
-2.242678e-05,0.0001670276,9,1
1.063454e-05,0.0001678379,9,1
4.256141e-05,0.0001517934,9,1
6.087479e-05,0.0001221355,9,1
6.055066e-05,8.486046e-05,9,1
4.888196e-05,5.098881e-05,9,1
3.55926e-05,2.278944e-05,9,1
2.084466e-05,-6.176923e-08,9,1
2.531276e-06,-2.129233e-05,9,1
-2.129233e-05,-4.592625e-05,9,1
-4.85193e-05,-7.23429e-05,9,1
-7.671866e-05,-9.454585e-05,9,1
-0.0001032974,-0.0001141558,9,1
-0.000127283,-0.0001305243,9,1
-0.0001460826,-0.0001491618,9,1
-0.0001551583,-0.0001703924,9,1
-0.000149486,-0.0001904885,9,1
-0.0001287416,-0.0002032917,9,1
-9.454585e-05,-0.0002044261,9,1
-5.289507e-05,-0.0001937298,9,1
-1.480971e-05,-0.000171851,9,1
8.041497e-06,-0.0001418689,9,1
1.193106e-05,-0.0001079973,9,1
-8.720959e-07,-7.396356e-05,9,1
-2.031993e-05,-4.932962e-05,9,1
-3.960571e-05,-3.814712e-05,9,1
-5.451572e-05,-3.360929e-05,9,1
-6.423963e-05,-2.923353e-05,9,1
-7.153257e-05,-2.307504e-05,9,1
-7.947377e-05,-1.918548e-05,9,1
-9.405965e-05,-2.0482e-05,9,1
-0.0001125351,-2.631635e-05,9,1
-0.0001266348,-3.21507e-05,9,1
-0.000127121,-3.21507e-05,9,1
-0.0001125351,-2.356124e-05,9,1
-8.806324e-05,-1.189254e-05,9,1
-5.840528e-05,-3.14101e-06,9,1
-2.712668e-05,-3.951337e-06,9,1
1.002961e-07,-1.335113e-05,9,1
2.084466e-05,-2.356124e-05,9,1
3.364782e-05,-2.712668e-05,9,1
3.55926e-05,-2.307504e-05,9,1
2.878586e-05,-1.529591e-05,9,1
1.64689e-05,-1.20546e-05,9,1
6.582909e-06,-2.015787e-05,9,1
6.258778e-06,-3.555408e-05,9,1
1.857574e-05,-4.997789e-05,9,1
3.624086e-05,-5.419158e-05,9,1
5.082674e-05,-4.657452e-05,9,1
5.649903e-05,-2.518189e-05,9,1
5.860588e-05,4.638125e-06,9,1
6.703327e-05,3.640293e-05,9,1
8.74535e-05,6.281957e-05,9,1
0.0001153287,8.016057e-05,9,1
0.0001388282,9.101894e-05,9,1
0.000148228,0.0001002567,9,1
0.0001414213,0.000110953,9,1
0.0001286181,0.0001195424,9,1
0.000130725,0.0001190562,9,1
0.0001611932,0.000111115,9,1
0.0002153231,0.0001002567,9,1
0.0002705873,9.652917e-05,9,1
0.0003030004,0.000103498,9,1
0.0003000832,0.0001154908,9,1
0.0002658874,0.0001240803,9,1
0.0002187264,0.0001231079,9,1
0.0001723757,0.0001127357,9,1
0.0001373696,9.393612e-05,9,1
0.0001172735,7.432621e-05,9,1
0.0001067393,6.346784e-05,9,1
9.393612e-05,6.622294e-05,9,1
7.270556e-05,7.983644e-05,9,1
4.969229e-05,9.831188e-05,9,1
3.640293e-05,0.0001169494,9,1
3.656499e-05,0.0001315353,9,1
4.418206e-05,0.000138342,9,1
4.888196e-05,0.0001344524,9,1
4.580272e-05,0.0001221355,9,1
3.462021e-05,0.0001028497,9,1
1.906194e-05,7.951231e-05,9,1
2.693341e-06,6.152305e-05,9,1
-9.947754e-06,5.633696e-05,9,1
-1.918548e-05,5.974033e-05,9,1
-2.988179e-05,6.768154e-05,9,1
-4.754691e-05,7.772959e-05,9,1
-7.590833e-05,8.972242e-05,9,1
-0.0001185315,0.0001018773,9,1
-0.0001731475,0.0001116012,9,1
-0.0002300324,0.0001163011,9,1
-0.0002718453,0.0001153287,9,1
-0.0002846485,0.0001086841,9,1
-0.0002674695,0.0001005808,9,1
-0.0002324634,9.31258e-05,9,1
-0.0001985918,8.437427e-05,9,1
-0.0001799543,7.367795e-05,9,1
-0.0001786577,6.298164e-05,9,1
-0.0001903264,5.1475e-05,9,1
-0.0001977815,3.705119e-05,9,1
-0.0001851404,2.116879e-05,9,1
-0.000151917,7.555301e-06,9,1
-0.0001118868,-2.238346e-07,9,1
-7.769106e-05,-4.275467e-06,9,1
-5.500191e-05,-7.840905e-06,9,1
-3.992984e-05,-9.461558e-06,9,1
-2.550602e-05,-6.868513e-06,9,1
-8.975362e-06,-3.303076e-06,9,1
5.124321e-06,-3.858999e-07,9,1
1.12828e-05,2.623614e-07,9,1
8.203562e-06,1.002961e-07,9,1
-3.789272e-06,1.072688e-06,9,1
-2.031993e-05,5.86492e-07,9,1
-3.21507e-05,-5.89612e-06,9,1
-3.409549e-05,-1.821308e-05,9,1
-2.307504e-05,-3.101625e-05,9,1
3.503668e-06,-3.68506e-05,9,1
4.126489e-05,-3.555408e-05,9,1
7.853991e-05,-3.085418e-05,9,1
0.0001031738,-2.712668e-05,9,1
0.0001101427,-3.020592e-05,9,1
0.000103498,-4.138842e-05,9,1
9.328786e-05,-5.500191e-05,9,1
9.037068e-05,-6.683268e-05,9,1
0.0001013911,-7.153257e-05,9,1
0.0001329939,-6.877746e-05,9,1
0.0001869616,-5.953974e-05,9,1
0.0002542187,-4.560212e-05,9,1
0.0003172622,-3.344723e-05,9,1
0.0003618301,-2.923353e-05,9,1
0.0003747954,-3.296103e-05,9,1
0.0003521062,-3.847125e-05,9,1
0.000304297,-4.203669e-05,9,1
0.0002560015,-4.414354e-05,9,1
0.0002256952,-4.317115e-05,9,1
0.0002149989,-3.879538e-05,9,1
0.0002231022,-3.328516e-05,9,1
0.0002451431,-2.728874e-05,9,1
0.0002754493,-1.788895e-05,9,1
0.0003034866,-7.192643e-06,9,1
0.0003151553,2.693341e-06,9,1
0.0002986247,9.66215e-06,9,1
0.000254867,1.54965e-05,9,1
0.0001971717,2.732727e-05,9,1
0.0001448246,4.499239e-05,9,1
0.0001090082,6.119892e-05,9,1
9.474644e-05,7.092284e-05,9,1
9.620504e-05,7.497447e-05,9,1
0.00010366,7.853991e-05,9,1
0.000103498,8.858796e-05,9,1
8.502253e-05,0.0001098185,9,1
5.19612e-05,0.0001355869,9,1
1.290346e-05,0.0001576278,9,1
-2.761287e-05,0.0001694586,9,1
-6.877746e-05,0.000168162,9,1
-0.0001107524,0.0001503349,9,1
-0.0001517549,0.0001179218,9,1
-0.0001882196,7.497447e-05,9,1
-0.0002120432,3.170304e-05,9,1
-0.0002180396,-6.220252e-06,9,1
-0.0002070192,-3.701266e-05,9,1
-0.0001822232,-6.083626e-05,9,1
-0.0001530514,-8.255302e-05,9,1
-0.000132145,-0.0001020008,9,1
-0.0001277692,-0.0001208004,9,1
-0.0001366828,-0.0001436516,9,1
-0.0001480274,-0.000166989,9,1
-0.00015451,-0.000184168,9,1
-0.0001558065,-0.0001883817,9,1
-0.0001556445,-0.0001734716,9,1
-0.0001574272,-0.0001454344,9,1
-0.0001656925,-0.0001131834,9,1
-0.0001862748,-8.563225e-05,9,1
-0.000224036,-6.991193e-05,9,1
-0.0002755728,-6.81292e-05,9,1
-0.0003300267,-7.623246e-05,9,1
-0.0003711913,-9.065628e-05,9,1
-0.0003864254,-0.0001034594,9,1
-0.0003710293,-0.0001057284,9,1
-0.0003344025,-9.227693e-05,9,1
-0.0002906449,-6.48879e-05,9,1
-0.000253856,-3.036798e-05,9,1
-0.0002327876,3.017472e-06,9,1
-0.0002285739,3.202716e-05,9,1
-0.0002357047,5.552663e-05,9,1
-0.0002434839,7.400208e-05,9,1
-0.0002400805,8.680524e-05,9,1
-0.0002206326,9.134307e-05,9,1
-0.0001924333,8.42122e-05,9,1
-0.0001687718,6.362991e-05,9,1
-0.0001660166,3.073064e-05,9,1
-0.0002026434,-8.002969e-06,9,1
-0.0002820554,-4.576419e-05,9,1
-0.000390315,-7.833932e-05,9,1
-0.0005016539,-0.000104756,9,1
-0.0005870623,-0.0001248521,9,1
-0.0006264441,-0.0001379794,9,1
-0.0006131548,-0.0001442999,9,1
-0.0005505976,-0.0001454344,9,1
-0.0004494688,-0.0001413827,9,1
-0.0003156029,-0.0001285796,9,1
-0.0001430034,-0.0001054042,9,1
8.664318e-05,-7.526008e-05,9,1
0.0003785229,-4.219875e-05,9,1
0.000710919,-8.813297e-06,9,1
0.001030998,2.133085e-05,9,1
0.0012775,4.35338e-05,9,1
0.001401318,5.487838e-05,9,1
0.00138657,5.649903e-05,9,1
0.001254487,5.293359e-05,9,1
0.001050608,4.483033e-05,9,1
0.0008227442,3.705119e-05,9,1
0.0006107626,2.862379e-05,9,1
0.0004378388,2.505836e-05,9,1
0.0003099692,2.975825e-05,9,1
0.0002192126,3.818565e-05,9,1
0.0001563313,4.888196e-05,9,1
0.0001182459,6.330578e-05,9,1
0.0001033359,8.161915e-05,9,1
0.0001093323,9.912221e-05,9,1
0.0001385041,0.0001140322,9,1
0.0001911753,0.0001257009,9,1
0.0002688046,0.0001370455,9,1
0.0003650715,0.0001522796,9,1
0.0004653899,0.0001692965,9,1
0.0005480433,0.00018291,9,1
0.0005927734,0.0001895547,9,1
0.0005939078,0.0001895547,9,1
0.0005580913,0.0001885823,9,1
0.000500396,0.0001919856,9,1
0.0004277907,0.0002020337,9,1
0.0003375204,0.000220185,9,1
0.0002263435,0.0002435224,9,1
0.0001012291,0.0002692908,9,1
-1.286493e-05,0.000292142,9,1
-8.40116e-05,0.0003057555,9,1
-9.162867e-05,0.000304297,9,1
-3.652646e-05,0.000287118,9,1
5.61749e-05,0.000264753,9,1
0.0001396385,0.0002440086,9,1
0.0001739964,0.000227478,9,1
0.0001428799,0.0002169437,9,1
6.119892e-05,0.0002086784,9,1
-3.701266e-05,0.0001992786,9,1
-0.0001195039,0.0001838824,9,1
-0.0001770371,0.000162976,9,1
-0.0002237119,0.0001373696,9,1
-0.0002746004,0.0001098185,9,1
-0.000333268,8.323981e-05,9,1
-0.0003893426,5.876794e-05,9,1
-0.0004280762,3.737532e-05,9,1
-0.0004352071,1.906194e-05,9,1
-0.0004108973,3.017472e-06,9,1
-0.0003724878,-1.25408e-05,9,1
-0.0003412093,-2.955766e-05,9,1
-0.0003287302,-4.495386e-05,9,1
-0.0003373197,-5.548811e-05,9,1
-0.0003611433,-6.035007e-05,9,1
-0.0003893426,-6.359137e-05,9,1
-0.0004134903,-7.18567e-05,9,1
-0.0004292107,-8.482193e-05,9,1
-0.000437476,-0.0001002181,9,1
-0.0004412035,-0.0001107524,9,1
-0.0004418518,-0.0001081593,9,1
-0.0004365036,-9.146661e-05,9,1
-0.0004258073,-6.748094e-05,9,1
-0.0004121938,-4.787104e-05,9,1
-0.0003967976,-3.879538e-05,9,1
-0.0003786463,-4.268495e-05,9,1
-0.0003582261,-5.69467e-05,9,1
-0.0003391024,-7.315322e-05,9,1
-0.00032322,-8.482193e-05,9,1
-0.0003123616,-9.162867e-05,9,1
-0.0003040963,-9.713889e-05,9,1
-0.0002946965,-9.875954e-05,9,1
-0.0002773555,-9.713889e-05,9,1
-0.0002517492,-9.405965e-05,9,1
-0.0002256567,-9.146661e-05,9,1
-0.0002081536,-9.324933e-05,9,1
-0.0002044261,-9.908367e-05,9,1
-0.0002096122,-0.0001039456,9,1
-0.0002117191,-0.0001026491,9,1
-0.0001977815,-9.584238e-05,9,1
-0.0001656925,-8.790117e-05,9,1
-0.0001276072,-8.579432e-05,9,1
-9.778715e-05,-9.098041e-05,9,1
-8.352541e-05,-9.940781e-05,9,1
-8.174268e-05,-0.0001054042,9,1
-7.817725e-05,-0.0001060525,9,1
-6.213279e-05,-9.843541e-05,9,1
-3.134038e-05,-8.190475e-05,9,1
9.66215e-06,-6.0188e-05,9,1
5.487838e-05,-4.106429e-05,9,1
0.0001030118,-2.988179e-05,9,1
0.000150659,-2.664048e-05,9,1
0.0001885823,-2.631635e-05,9,1
0.0002111094,-2.291298e-05,9,1
0.0002216436,-1.497178e-05,9,1
0.0002302331,-2.492749e-06,9,1
0.0002410915,9.175954e-06,9,1
0.0002577842,1.792748e-05,9,1
0.000277232,2.295151e-05,9,1
0.0002987867,2.230325e-05,9,1
0.0003263378,1.97102e-05,9,1
0.0003686369,1.501031e-05,9,1
0.000426008,1.160693e-05,9,1
0.0004867825,1.241726e-05,9,1
0.0005341057,2.052053e-05,9,1
0.0005566327,3.170304e-05,9,1
0.0005550121,4.207521e-05,9,1
0.0005370228,4.790957e-05,9,1
0.0005104441,4.920609e-05,9,1
0.0004756001,4.272347e-05,9,1
0.0004273046,2.522042e-05,9,1
0.0003653956,1.883015e-06,9,1
0.0002908455,-1.772689e-05,9,1
0.0002064095,-2.0482e-05,9,1
0.0001211631,-1.844488e-06,9,1
4.434413e-05,3.170304e-05,9,1
-1.237873e-05,6.670914e-05,9,1
-3.506788e-05,9.21534e-05,9,1
-1.869928e-05,0.0001054428,9,1
3.218923e-05,0.0001073875,9,1
0.0001020394,0.0001039842,9,1
0.0001634622,0.0001004187,9,1
0.0001895547,0.0001017153,9,1
0.0001735102,0.0001081979,9,1
0.0001304008,0.0001167873,9,1
7.999851e-05,0.0001219734,9,1
3.769945e-05,0.0001247285,9,1
9.338019e-06,0.0001261871,9,1
-5.734056e-06,0.0001289422,9,1
-5.57199e-06,0.0001294284,9,1
1.290346e-05,0.0001273216,9,1
4.871989e-05,0.0001211631,9,1
9.63671e-05,0.0001090082,9,1
0.0001498487,8.939829e-05,9,1
0.0002017096,6.395404e-05,9,1
0.0002394708,3.705119e-05,9,1
0.0002469258,1.59827e-05,9,1
0.0002117576,7.069105e-06,9,1
0.0001396385,9.824215e-06,9,1
4.742337e-05,2.262738e-05,9,1
-3.992984e-05,4.061663e-05,9,1
-0.0001044318,5.714729e-05,9,1
-0.0001426792,6.330578e-05,9,1
-0.0001666649,5.471631e-05,9,1
-0.0001846542,3.413401e-05,9,1
-0.0001979435,1.079661e-05,9,1
-0.0002047502,-5.247859e-06,9,1
-0.0002058847,-7.192643e-06,9,1
-0.0002044261,5.448452e-06,9,1
-0.0002076674,2.862379e-05,9,1
-0.0002280877,5.439218e-05,9,1
-0.0002700626,7.448828e-05,9,1
-0.000328082,8.599492e-05,9,1
-0.0003906392,8.891209e-05,9,1
-0.0004402311,8.729144e-05,9,1
-0.0004612996,8.550872e-05,9,1
-0.0004381243,8.161915e-05,9,1
-0.0003640605,7.157111e-05,9,1
-0.0002459149,5.471631e-05,9,1
-0.0001078352,3.316162e-05,9,1
1.484824e-05,8.041497e-06,9,1
9.199134e-05,-1.950961e-05,9,1
0.0001114392,-4.47918e-05,9,1
8.550872e-05,-6.456377e-05,9,1
4.855783e-05,-7.493595e-05,9,1
3.299956e-05,-7.688073e-05,9,1
5.066468e-05,-7.55842e-05,9,1
9.199134e-05,-7.444975e-05,9,1
0.0001419075,-7.623246e-05,9,1
0.0001846927,-7.801519e-05,9,1
0.0002086784,-7.882551e-05,9,1
0.000210299,-8.498399e-05,9,1
0.0001931201,-9.989401e-05,9,1
0.0001673517,-0.0001203142,9,1
0.0001441764,-0.0001447861,9,1
0.0001276457,-0.0001747682,9,1
0.0001211631,-0.0002070192,9,1
0.0001182459,-0.0002365151,9,1
0.0001114392,-0.0002583939,9,1
9.21534e-05,-0.0002700626,9,1
6.087479e-05,-0.0002690902,9,1
2.181705e-05,-0.0002491561,9,1
-1.934754e-05,-0.0002105846,9,1
-6.035007e-05,-0.0001614788,9,1
-9.762509e-05,-0.0001112386,9,1
-0.0001251762,-6.942573e-05,9,1
-0.0001357104,-3.928157e-05,9,1
-0.0001245279,-1.837515e-05,9,1
-8.919769e-05,-5.409925e-06,9,1
-3.879538e-05,4.962256e-06,9,1
9.338019e-06,2.165498e-05,9,1
4.175109e-05,4.969229e-05,9,1
5.309566e-05,8.437427e-05,9,1
4.547859e-05,0.0001148425,9,1
2.667901e-05,0.000133318,9,1
4.151929e-06,0.0001427178,9,1
-1.173047e-05,0.0001472556,9,1
-9.137427e-06,0.0001483901,9,1
1.776542e-05,0.0001492004,9,1
6.298164e-05,0.0001472556,9,1
0.0001125736,0.0001404489,9,1
0.0001560072,0.0001273216,9,1
0.0001840444,0.0001104668,9,1
0.0001960373,9.053275e-05,9,1
0.0001968476,7.221937e-05,9,1
0.0001919856,5.536457e-05,9,1
0.00018291,4.077869e-05,9,1
0.0001728619,2.667901e-05,9,1
0.0001676758,1.209313e-05,9,1
0.0001752929,-2.006553e-06,9,1
0.000200251,-7.840905e-06,9,1
0.0002422259,4.244267e-07,9,1
0.0002923041,1.792748e-05,9,1
0.0003373583,3.575467e-05,9,1
0.0003621543,4.77475e-05,9,1
0.0003584268,5.390598e-05,9,1
0.0003260137,5.811968e-05,9,1
0.0002731804,6.03886e-05,9,1
0.0002115956,5.730935e-05,9,1
0.0001571416,4.839576e-05,9,1
0.0001169494,3.93201e-05,9,1
8.74535e-05,3.494434e-05,9,1
5.698522e-05,3.413401e-05,9,1
1.630683e-05,2.894792e-05,9,1
-3.944364e-05,1.760335e-05,9,1
-0.0001036215,1.883015e-06,9,1
-0.0001648822,-1.173047e-05,9,1
-0.000213988,-1.740276e-05,9,1
-0.0002520733,-1.545797e-05,9,1
-0.0002825416,-8.489166e-06,9,1
-0.0003039342,-1.358292e-06,9,1
-0.0003086341,2.855407e-06,9,1
-0.0002916173,3.017472e-06,9,1
-0.0002574215,3.179537e-06,9,1
-0.0002201465,7.717366e-06,9,1
-0.0001948643,1.630683e-05,9,1
-0.0001880575,2.133085e-05,9,1
-0.0001998883,1.533444e-05,9,1
-0.000221605,3.341602e-06,9,1
-0.0002418632,-9.461558e-06,9,1
-0.0002548284,-1.918548e-05,9,1
-0.0002630937,-2.728874e-05,9,1
-0.0002643903,-3.458168e-05,9,1
-0.0002598524,-3.798505e-05,9,1
-0.0002509389,-4.009191e-05,9,1
-0.0002386219,-4.414354e-05,9,1
-0.0002193361,-4.884343e-05,9,1
-0.0001955125,-4.884343e-05,9,1
-0.0001712027,-4.333321e-05,9,1
-0.0001502963,-3.198864e-05,9,1
-0.0001368449,-1.529591e-05,9,1
-0.0001279313,1.234753e-06,9,1
-0.000117235,1.679302e-05,9,1
-0.0001031353,3.13789e-05,9,1
-8.579432e-05,4.677511e-05,9,1
-6.083626e-05,6.103686e-05,9,1
-2.031993e-05,7.52986e-05,9,1
4.142696e-05,9.118101e-05,9,1
0.0001245665,0.0001099806,9,1
0.0002162954,0.000128294,9,1
0.0002918179,0.0001443384,9,1
0.0003240689,0.0001550348,9,1
0.0003030004,0.0001608691,9,1
0.0002373639,0.0001620036,9,1
0.000158114,0.000163138,9,1
8.615699e-05,0.0001668655,9,1
3.18651e-05,0.0001746447,9,1
-3.789272e-06,0.0001838824,9,1
-2.46957e-05,0.000192796,9,1
-3.960571e-05,0.0001971717,9,1
-5.159854e-05,0.0001942546,9,1
-6.294311e-05,0.0001822617,9,1
-7.347736e-05,0.0001618415,9,1
-7.60704e-05,0.0001388282,9,1
-5.548811e-05,0.0001190562,9,1
-1.520357e-06,0.0001093323,9,1
8.064677e-05,0.000111115,9,1
0.0001707551,0.0001187321,9,1
0.0002419018,0.0001248906,9,1
0.0002835526,0.0001224596,9,1
0.0002960316,0.0001130598,9,1
0.000284525,9.847395e-05,9,1
0.0002538946,8.502253e-05,9,1
0.000202682,7.286763e-05,9,1
0.000128294,6.249545e-05,9,1
3.283749e-05,5.082674e-05,9,1
-8.125649e-05,4.158902e-05,9,1
-0.0002068571,3.413401e-05,9,1
-0.0003261372,3.073064e-05,9,1
-0.0004138145,2.992031e-05,9,1
-0.0004494688,2.651694e-05,9,1
-0.0004326141,2.149292e-05,9,1
-0.0003750809,1.663096e-05,9,1
-0.0002903207,1.193106e-05,9,1
-0.00018433,6.258778e-06,9,1
-6.796714e-05,-2.978945e-06,9,1
3.818565e-05,-1.351319e-05,9,1
0.0001174356,-2.258885e-05,9,1
0.0001657311,-3.26369e-05,9,1
0.0001908512,-4.511593e-05,9,1
0.0002017096,-5.548811e-05,9,1
0.000200251,-6.06742e-05,9,1
0.0001808031,-6.002594e-05,9,1
0.0001360731,-5.581224e-05,9,1
7.254349e-05,-5.32192e-05,9,1
1.274139e-05,-5.678463e-05,9,1
-2.129233e-05,-6.586029e-05,9,1
-2.664048e-05,-7.785312e-05,9,1
-1.643037e-05,-9.114248e-05,9,1
-4.761664e-06,-0.000104918,9,1
3.827799e-06,-0.0001186936,9,1
1.112074e-05,-0.000129714,9,1
2.910999e-05,-0.0001373311,9,1
7.20573e-05,-0.0001379794,9,1
0.0001401247,-0.0001313347,9,1
0.000217592,-0.0001186936,9,1
0.0002838767,-0.0001020008,9,1
0.0003240689,-8.255302e-05,9,1
0.00033671,-6.261898e-05,9,1
0.0003211517,-4.462973e-05,9,1
0.000277232,-3.004385e-05,9,1
0.0002090025,-2.080613e-05,9,1
0.0001292664,-1.416145e-05,9,1
5.179914e-05,-6.868513e-06,9,1
-1.043395e-05,1.883015e-06,9,1
-5.159854e-05,7.393236e-06,9,1
-7.33153e-05,4.313994e-06,9,1
-8.012204e-05,-4.923729e-06,9,1
-7.736692e-05,-1.62683e-05,9,1
-6.229485e-05,-2.745081e-05,9,1
-3.069211e-05,-3.247483e-05,9,1
1.274139e-05,-2.988179e-05,9,1
5.974033e-05,-2.323711e-05,9,1
0.00010366,-1.724069e-05,9,1
0.0001453108,-1.464765e-05,9,1
0.0001864754,-9.785688e-06,9,1
0.0002289366,-2.492749e-06,9,1
0.0002718839,7.23117e-06,9,1
0.0003154794,1.565857e-05,9,1
0.0003579406,2.214118e-05,9,1
0.0003968363,2.748934e-05,9,1
0.0004253598,3.218923e-05,9,1
0.0004389733,3.834771e-05,9,1
0.0004342734,4.596478e-05,9,1
0.0004067223,5.374392e-05,9,1
0.0003550234,6.281957e-05,9,1
0.0002807975,7.238143e-05,9,1
0.0001934442,8.04847e-05,9,1
0.0001069013,8.615699e-05,9,1
3.591673e-05,8.810177e-05,9,1
-1.027188e-05,8.388807e-05,9,1
-3.474375e-05,7.562274e-05,9,1
-5.240886e-05,6.816773e-05,9,1
-7.769106e-05,6.541262e-05,9,1
-0.0001133454,6.606088e-05,9,1
-0.0001582375,6.897806e-05,9,1
-0.0002125294,7.140904e-05,9,1
-0.0002726556,7.30297e-05,9,1
-0.0003311612,7.367795e-05,9,1
-0.0003791325,7.124698e-05,9,1
-0.000412518,6.508849e-05,9,1
-0.0004340726,5.844381e-05,9,1
-0.0004509274,5.666109e-05,9,1
-0.0004655133,6.168512e-05,9,1
-0.0004719959,7.20573e-05,9,1
-0.0004559515,8.583286e-05,9,1
-0.0003985804,9.68533e-05,9,1
-0.0002865932,0.0001038221,9,1
-0.0001259865,0.0001069013,9,1
5.698522e-05,0.0001052807,9,1
0.0002222919,9.928428e-05,9,1
0.0003358997,9.069481e-05,9,1
0.0003801436,8.323981e-05,9,1
0.0003626405,8.210535e-05,9,1
0.0003064038,8.356394e-05,9,1
0.0002393087,8.080883e-05,9,1
0.0001770756,6.703327e-05,9,1
0.0001229458,4.175109e-05,9,1
7.351589e-05,8.365628e-06,9,1
2.359977e-05,-2.809907e-05,9,1
-3.101625e-05,-6.213279e-05,9,1
-8.465986e-05,-8.854943e-05,9,1
-0.0001323071,-0.000104756,9,1
-0.000171851,-0.0001120489,9,1
-0.0002047502,-0.0001114006,9,1
-0.0002305186,-0.0001057284,9,1
-0.0002517492,-9.600444e-05,9,1
-0.0002668213,-8.741498e-05,9,1
-0.0002733039,-8.352541e-05,9,1
-0.0002721694,-8.303922e-05,9,1
-0.0002645523,-8.498399e-05,9,1
-0.0002506147,-8.82253e-05,9,1
-0.0002293842,-9.405965e-05,9,1
-0.0002037779,-0.0001015147,9,1
-0.0001806025,-0.0001081593,9,1
-0.0001609926,-0.0001114006,9,1
-0.0001467309,-0.00010978,9,1
-0.0001407345,-0.0001011905,9,1
-0.0001442999,-8.44978e-05,9,1
-0.0001502963,-5.889148e-05,9,1
-0.0001525652,-3.117831e-05,9,1
-0.0001493239,-1.092015e-05,9,1
-0.0001391138,-2.168618e-06,9,1
-0.0001269589,1.072688e-06,9,1
-0.0001136696,6.744974e-06,9,1
-9.827335e-05,1.987227e-05,9,1
-8.547019e-05,3.996837e-05,9,1
-7.671866e-05,6.103686e-05,9,1
-6.974985e-05,7.610894e-05,9,1
-5.775702e-05,7.52986e-05,9,1
-3.393342e-05,5.730935e-05,9,1
5.934648e-06,3.18651e-05,9,1
5.325772e-05,9.66215e-06,9,1
9.474644e-05,-8.327101e-06,9,1
0.0001141943,-2.534396e-05,9,1
0.0001091703,-4.673658e-05,9,1
8.858796e-05,-7.299116e-05,9,1
6.735741e-05,-9.762509e-05,9,1
5.439218e-05,-0.0001144799,9,1
5.536457e-05,-0.0001219349,9,1
7.157111e-05,-0.0001195039,9,1
9.977047e-05,-0.0001078352,9,1
0.0001312112,-8.838737e-05,9,1
0.0001563313,-6.116039e-05,9,1
0.0001696206,-3.134038e-05,9,1
0.000168162,-3.789272e-06,9,1
0.0001511452,1.54965e-05,9,1
0.0001214872,2.311357e-05,9,1
8.275361e-05,2.01964e-05,9,1
4.515445e-05,1.193106e-05,9,1
2.116879e-05,1.720949e-06,9,1
1.582063e-05,-2.81688e-06,9,1
3.024445e-05,-3.858999e-07,9,1
6.119892e-05,4.47606e-06,9,1
0.00010366,6.096713e-06,9,1
0.0001420695,7.393236e-06,9,1
0.000160545,1.468618e-05,9,1
0.0001584381,3.202716e-05,9,1
0.0001448246,5.893001e-05,9,1
0.0001334801,9.393612e-05,9,1
0.0001336421,0.0001370455,9,1
0.0001524417,0.0001867996,9,1
0.0001945787,0.0002328261,9,1
0.0002610255,0.0002650771,9,1
0.0003451374,0.0002783665,9,1
0.000433301,0.0002733424,9,1
0.0005060683,0.0002585945,9,1
0.0005460985,0.000242388,9,1
0.0005410745,0.0002305572,9,1
0.0004914824,0.0002205092,9,1
0.0004055878,0.0002070577,9,1
0.0003065659,0.0001871237,9,1
0.0002162954,0.0001579519,9,1
0.0001485521,0.0001214872,9,1
0.0001080358,8.145709e-05,9,1
9.296373e-05,3.93201e-05,9,1
9.879808e-05,-4.761664e-06,9,1
0.0001211631,-5.159854e-05,9,1
0.0001470936,-9.730096e-05,9,1
0.0001665414,-0.0001381414,9,1
0.0001675138,-0.0001729855,9,1
0.0001438522,-0.0002000504,9,1
9.361199e-05,-0.000211557,9,1
2.34377e-05,-0.0002063709,9,1
-4.85193e-05,-0.0001885437,9,1
-9.811128e-05,-0.0001642339,9,1
-0.0001109144,-0.0001386276,9,1
-9.438378e-05,-0.0001135075,9,1
-7.574627e-05,-8.417367e-05,9,1
-8.40116e-05,-5.208474e-05,9,1
-0.0001293899,-2.291298e-05,9,1
-0.0001994021,2.207145e-06,9,1
-0.0002679557,2.165498e-05,9,1
-0.0003147926,3.267542e-05,9,1
-0.0003319715,3.299956e-05,9,1
-0.0003173856,2.878586e-05,9,1
-0.0002768693,2.603075e-05,9,1
-0.0002126914,2.554455e-05,9,1
-0.0001292278,2.732727e-05,9,1
-3.863332e-05,3.283749e-05,9,1
2.441009e-05,3.818565e-05,9,1
3.13789e-05,3.964424e-05,9,1
-2.339918e-05,3.721326e-05,9,1
-0.0001162626,3.413401e-05,9,1
-0.0002126914,3.526847e-05,9,1
-0.0002814071,4.223728e-05,9,1
-0.0003023136,5.293359e-05,9,1
-0.0002708729,5.99024e-05,9,1
-0.0001979435,6.152305e-05,9,1
-0.0001096179,6.168512e-05,9,1
-3.68506e-05,6.346784e-05,9,1
1.720949e-06,6.897806e-05,9,1
3.179537e-06,8.032264e-05,9,1
-2.0482e-05,9.53947e-05,9,1
-5.159854e-05,0.0001101427,9,1
-7.461182e-05,0.0001222976,9,1
-8.336335e-05,0.000130887,9,1
-7.866345e-05,0.0001367214,9,1
-5.743289e-05,0.0001404489,9,1
-1.513384e-05,0.0001435281,9,1
4.936815e-05,0.0001477418,9,1
0.0001289422,0.0001539003,9,1
0.0002109473,0.0001568175,9,1
0.000272208,0.0001569795,9,1
0.0002923041,0.0001535762,9,1
0.0002694529,0.0001490383,9,1
0.0002169437,0.0001461212,9,1
0.0001501728,0.000148228,9,1
8.04847e-05,0.0001517934,9,1
1.241726e-05,0.0001496866,9,1
-4.738484e-05,0.0001386662,9,1
-9.29252e-05,0.0001227837,9,1
-0.0001193418,0.0001062531,9,1
-0.0001264727,9.118101e-05,9,1
-0.0001154523,7.756752e-05,9,1
-9.2439e-05,6.816773e-05,9,1
-6.375344e-05,6.265751e-05,9,1
-3.733679e-05,5.811968e-05,9,1
-2.064406e-05,5.179914e-05,9,1
-2.177852e-05,4.483033e-05,9,1
-4.560212e-05,3.672706e-05,9,1
-9.276313e-05,2.829966e-05,9,1
-0.0001587237,1.987227e-05,9,1
-0.0002344082,1.387585e-05,9,1
-0.000303448,1.047248e-05,9,1
-0.0003452609,1.014835e-05,9,1
-0.000348016,1.322759e-05,9,1
-0.0003126857,1.436204e-05,9,1
-0.0002545043,1.144487e-05,9,1
-0.0001924333,6.582909e-06,9,1
-0.0001455964,1.558884e-06,9,1
-0.0001162626,-3.951337e-06,9,1
-0.000102325,-1.027188e-05,9,1
-9.892161e-05,-2.09682e-05,9,1
-0.0001029732,-3.360929e-05,9,1
-0.000107349,-4.252288e-05,9,1
-9.843541e-05,-4.689865e-05,9,1
-5.921561e-05,-4.997789e-05,9,1
1.873781e-05,-5.208474e-05,9,1
0.0001171115,-5.808115e-05,9,1
0.0001947408,-7.363943e-05,9,1
0.0002166196,-9.762509e-05,9,1
0.0001806411,-0.0001233935,9,1
0.0001175977,-0.0001436516,9,1
6.946425e-05,-0.0001533756,9,1
6.022653e-05,-0.0001515928,9,1
8.907416e-05,-0.0001402483,9,1
0.0001394765,-0.0001242038,9,1
0.0001867996,-0.0001091317,9,1
0.0002145127,-0.0001015147,9,1
0.0002239125,-0.0001015147,9,1
0.0002227781,-0.0001016767,9,1
0.000220023,-9.616651e-05,9,1
0.0002232643,-8.628052e-05,9,1
0.0002342847,-8.060823e-05,9,1
0.0002506533,-8.352541e-05,9,1
0.0002694529,-9.422172e-05,9,1
0.0002882525,-0.0001045939,9,1
0.0003077003,-0.0001105903,9,1
0.0003297412,-0.0001138316,9,1
0.0003532407,-0.0001159385,9,1
0.0003749574,-0.0001162626,9,1
0.0003880847,-0.0001126972,9,1
0.0003914881,-0.0001078352,9,1
0.0003785229,-9.924574e-05,9,1
0.0003405996,-8.320128e-05,9,1
0.0002801492,-6.035007e-05,9,1
0.0002080301,-3.344723e-05,9,1
0.00013818,-8.651231e-06,9,1
8.04847e-05,9.338019e-06,9,1
4.077869e-05,1.825161e-05,9,1
1.727922e-05,2.068259e-05,9,1
1.883015e-06,1.889987e-05,9,1
-1.3027e-05,1.695509e-05,9,1
-3.069211e-05,1.663096e-05,9,1
-5.192267e-05,1.663096e-05,9,1
-7.688073e-05,1.695509e-05,9,1
-0.000104918,1.630683e-05,9,1
-0.0001334415,1.857574e-05,9,1
-0.0001621271,2.327564e-05,9,1
-0.0001857886,2.927205e-05,9,1
-0.0002006986,3.413401e-05,9,1
-0.0002076674,3.283749e-05,9,1
-0.0002105846,2.603075e-05,9,1
-0.0002151224,2.035846e-05,9,1
-0.0002248464,2.01964e-05,9,1
-0.0002360289,2.846173e-05,9,1
-0.000236353,4.239934e-05,9,1
-0.0002152845,6.119892e-05,9,1
-0.0001784957,8.437427e-05,9,1
-0.000134738,0.0001096565,9,1
-9.373552e-05,0.000130725,9,1
-6.180866e-05,0.0001443384,9,1
-4.300908e-05,0.0001451488,9,1
-3.766092e-05,0.0001312112,9,1
-3.960571e-05,0.0001104668,9,1
-3.944364e-05,9.377406e-05,9,1
-3.053005e-05,8.696731e-05,9,1
-1.286493e-05,9.231547e-05,9,1
5.448452e-06,0.000108522,9,1
1.501031e-05,0.000128456,9,1
6.420843e-06,0.0001462832,9,1
-1.805102e-05,0.0001571416,9,1
-4.787104e-05,0.0001603829,9,1
-6.893953e-05,0.0001569795,9,1
-7.396356e-05,0.0001483901,9,1
-6.521203e-05,0.0001375317,9,1
-5.095028e-05,0.0001269974,9,1
-3.928157e-05,0.0001188942,9,1
-3.360929e-05,0.0001106288,9,1
-3.182657e-05,0.0001012291,9,1
-3.020592e-05,9.020862e-05,9,1
-2.501983e-05,7.789165e-05,9,1
-8.002969e-06,6.589881e-05,9,1
2.878586e-05,5.1475e-05,9,1
8.939829e-05,3.462021e-05,9,1
0.0001668655,1.727922e-05,9,1
0.0002386605,5.286387e-06,9,1
0.0002825802,-4.113403e-06,9,1
0.0002837146,-1.772689e-05,9,1
0.0002347709,-3.976777e-05,9,1
0.0001511452,-7.23429e-05,9,1
5.99024e-05,-0.0001128592,9,1
-1.448558e-05,-0.0001549962,9,1
-6.650855e-05,-0.0001898403,9,1
-0.0001018388,-0.0002100984,9,1
-0.0001267968,-0.0002162569,9,1
-0.0001417068,-0.0002094502,9,1
-0.0001454344,-0.000194216,9,1
-0.000137169,-0.0001762268,9,1
-0.0001227452,-0.0001590478,9,1
-0.0001096179,-0.0001475412,9,1
-0.0001044318,-0.0001391138,9,1
-0.0001029732,-0.0001263107,9,1
-9.616651e-05,-0.0001067007,9,1
-7.947377e-05,-8.125649e-05,9,1
-5.565017e-05,-5.516398e-05,9,1
-2.696461e-05,-2.939559e-05,9,1
5.124321e-06,-6.544382e-06,9,1
3.121684e-05,1.112074e-05,9,1
3.575467e-05,2.39239e-05,9,1
1.112074e-05,3.121684e-05,9,1
-3.279896e-05,3.60788e-05,9,1
-8.190475e-05,3.867184e-05,9,1
-0.0001266348,3.996837e-05,9,1
-0.0001603444,4.434413e-05,9,1
-0.0001853024,5.325772e-05,9,1
-0.0002073433,6.46023e-05,9,1
-0.0002225774,7.756752e-05,9,1
-0.0002297083,8.956036e-05,9,1
-0.0002269532,9.896015e-05,9,1
-0.0002079916,9.960841e-05,9,1
-0.0001648822,9.296373e-05,9,1
-9.859748e-05,8.194328e-05,9,1
-2.0482e-05,6.897806e-05,9,1
5.228533e-05,5.828175e-05,9,1
0.0001088461,5.682316e-05,9,1
0.0001474177,6.314371e-05,9,1
0.0001639484,7.724339e-05,9,1
0.0001608691,9.53947e-05,9,1
0.0001446626,0.0001117633,9,1
0.0001226217,0.0001224596,9,1
9.717743e-05,0.0001271595,9,1
6.638502e-05,0.0001231079,9,1
3.348575e-05,0.0001145184,9,1
9.013889e-06,0.0001088461,9,1
-5.89612e-06,0.0001070634,9,1
-1.416145e-05,0.0001067393,9,1
-1.529591e-05,0.0001033359,9,1
-1.20546e-05,9.652917e-05,9,1
9.106227e-07,8.74535e-05,9,1
2.894792e-05,7.967438e-05,9,1
8.242948e-05,7.286763e-05,9,1
0.0001688103,6.995045e-05,9,1
0.0002940868,7.254349e-05,9,1
0.0004678209,7.918817e-05,9,1
0.0006896885,8.826383e-05,9,1
0.0009308419,9.798775e-05,9,1
0.001141689,0.0001078737,9,1
0.001273124,0.0001158149,9,1
0.001294679,0.0001172735,9,1
0.001201005,0.0001099806,9,1
0.001022085,9.717743e-05,9,1
0.0008070238,8.178122e-05,9,1
0.0006024973,6.525056e-05,9,1
0.000435732,4.709924e-05,9,1
0.0003098072,3.413401e-05,9,1
0.0002119197,2.992031e-05,9,1
0.0001292664,3.267542e-05,9,1
5.552663e-05,3.591673e-05,9,1
-1.140634e-05,3.380988e-05,9,1
-7.688073e-05,2.457216e-05,9,1
-0.0001464067,8.689758e-06,9,1
-0.000223874,-1.092015e-05,9,1
-0.0003084721,-3.117831e-05,9,1
-0.0003906392,-4.608832e-05,9,1
-0.0004588687,-4.85193e-05,9,1
-0.0005081365,-4.317115e-05,9,1
-0.0005421702,-3.701266e-05,9,1
-0.0005659938,-3.604027e-05,9,1
-0.0005822003,-3.782299e-05,9,1
-0.0005927345,-4.155049e-05,9,1
-0.0005997034,-4.414354e-05,9,1
-0.0006013241,-4.657452e-05,9,1
-0.0005946793,-5.095028e-05,9,1
-0.0005758798,-5.467778e-05,9,1
-0.0005481666,-5.354332e-05,9,1
-0.0005176983,-4.90055e-05,9,1
-0.0004893369,-4.122636e-05,9,1
-0.0004648651,-3.393342e-05,9,1
-0.0004431483,-2.826114e-05,9,1
-0.0004198109,-2.664048e-05,9,1
-0.0003857772,-2.923353e-05,9,1
-0.0003358611,-3.182657e-05,9,1
-0.0002689281,-3.425755e-05,9,1
-0.0001830335,-3.458168e-05,9,1
-8.141856e-05,-3.522994e-05,9,1
3.18651e-05,-3.490581e-05,9,1
0.0001514693,-3.231277e-05,9,1
0.0002692908,-2.939559e-05,9,1
0.0003679886,-2.064406e-05,9,1
0.000433301,-4.761664e-06,9,1
0.0004553419,1.338965e-05,9,1
0.0004313562,2.76514e-05,9,1
0.0003632887,3.705119e-05,9,1
0.0002637806,4.369587e-05,9,1
0.0001613553,5.034055e-05,9,1
8.437427e-05,5.633696e-05,9,1
5.277153e-05,5.909208e-05,9,1
7.076078e-05,5.61749e-05,9,1
0.0001197045,4.839576e-05,9,1
0.0001688103,3.915804e-05,9,1
0.000187772,3.202716e-05,9,1
0.0001667035,2.829966e-05,9,1
0.0001127357,2.39239e-05,9,1
4.369587e-05,1.257933e-05,9,1
-1.902341e-05,-8.651231e-06,9,1
-5.970181e-05,-3.652646e-05,9,1
-7.088431e-05,-6.245691e-05,9,1
-5.872941e-05,-7.931171e-05,9,1
-4.236082e-05,-8.644259e-05,9,1
-4.138842e-05,-8.547019e-05,9,1
-6.845333e-05,-7.995997e-05,9,1
-0.0001209625,-7.639453e-05,9,1
-0.0001789819,-7.671866e-05,9,1
-0.0002144742,-7.55842e-05,9,1
-0.0002086398,-6.634648e-05,9,1
-0.0001663408,-4.05781e-05,9,1
-0.0001161005,7.485573e-07,9,1
-8.871149e-05,4.871989e-05,9,1
-9.503204e-05,9.101894e-05,9,1
-0.0001255003,0.0001177597,9,1
-0.0001621271,0.000130887,9,1
-0.0001888679,0.0001362352,9,1
-0.0002005366,0.0001372076,9,1
-0.000201509,0.0001341283,9,1
-0.0001961608,0.0001274836,9,1
-0.000184168,0.0001171115,9,1
-0.0001622891,0.0001047945,9,1
-0.0001337657,9.393612e-05,9,1
-0.00010978,8.923623e-05,9,1
-9.811128e-05,9.134307e-05,9,1
-9.940781e-05,9.523264e-05,9,1
-0.0001165867,9.669123e-05,9,1
-0.0001428413,9.555677e-05,9,1
-0.000164396,9.669123e-05,9,1
-0.0001640719,0.0001028497,9,1
-0.0001402483,0.0001143563,9,1
-0.0001003802,0.0001235941,9,1
-5.629844e-05,0.0001237561,9,1
-1.805102e-05,0.0001120874,9,1
6.258778e-06,9.344993e-05,9,1
1.906194e-05,7.756752e-05,9,1
2.910999e-05,6.914012e-05,9,1
4.272347e-05,6.379197e-05,9,1
6.152305e-05,5.860588e-05,9,1
8.226741e-05,5.325772e-05,9,1
0.0001112771,4.758544e-05,9,1
0.0001613553,3.964424e-05,9,1
0.0002407673,2.975825e-05,9,1
0.0003352514,1.938607e-05,9,1
0.0004174185,7.717366e-06,9,1
0.0004658761,-8.720959e-07,9,1
0.0004673347,-5.409925e-06,9,1
0.000418391,-1.092015e-05,9,1
0.0003358997,-2.388537e-05,9,1
0.0002487085,-4.446767e-05,9,1
0.0001827479,-6.504996e-05,9,1
0.0001466074,-7.704279e-05,9,1
0.0001321835,-7.785312e-05,9,1
0.0001213252,-7.493595e-05,9,1
9.960841e-05,-7.574627e-05,9,1
5.860588e-05,-8.174268e-05,9,1
5.610517e-06,-9.600444e-05,9,1
-3.782299e-05,-0.0001170729,9,1
-5.59743e-05,-0.0001392759,9,1
-5.013995e-05,-0.0001583996,9,1
-3.26369e-05,-0.0001695821,9,1
-1.578211e-05,-0.0001726613,9,1
-1.075808e-05,-0.0001681235,9,1
-1.902341e-05,-0.0001577513,9,1
-2.615429e-05,-0.0001441378,9,1
-1.351319e-05,-0.0001284175,9,1
2.570662e-05,-0.0001101041,9,1
7.821578e-05,-8.919769e-05,9,1
0.0001237561,-7.104638e-05,9,1
0.0001466074,-5.905355e-05,9,1
0.0001445005,-5.289507e-05,9,1
0.0001257009,-4.787104e-05,9,1
0.0001009049,-4.155049e-05,9,1
7.562274e-05,-3.393342e-05,9,1
5.1475e-05,-2.307504e-05,9,1
2.943412e-05,-1.221667e-05,9,1
1.387585e-05,-3.789272e-06,9,1
6.258778e-06,9.106227e-07,9,1
2.623614e-07,3.665733e-06,9,1
-6.382317e-06,4.962256e-06,9,1
-1.075808e-05,4.962256e-06,9,1
-8.165035e-06,8.365628e-06,9,1
4.313994e-06,2.052053e-05,9,1
2.311357e-05,4.256141e-05,9,1
4.207521e-05,6.849186e-05,9,1
5.56887e-05,8.79397e-05,9,1
6.006447e-05,9.766362e-05,9,1
5.423012e-05,9.879808e-05,9,1
4.207521e-05,9.458438e-05,9,1
2.359977e-05,8.907416e-05,9,1
1.558884e-06,8.291568e-05,9,1
-2.129233e-05,7.691926e-05,9,1
-3.814712e-05,7.691926e-05,9,1
-4.787104e-05,8.567078e-05,9,1
-5.419158e-05,0.0001022015,9,1
-6.245691e-05,0.0001216493,9,1
-7.542214e-05,0.0001351007,9,1
-9.19528e-05,0.0001394765,9,1
-0.0001005423,0.0001313732,9,1
-8.903562e-05,0.0001177597,9,1
-4.932962e-05,0.0001044704,9,1
1.079661e-05,9.960841e-05,9,1
7.254349e-05,0.0001067393,9,1
0.0001174356,0.0001219734,9,1
0.000135749,0.0001398006,9,1
0.0001291043,0.0001553589,9,1
0.0001080358,0.0001620036,9,1
8.259155e-05,0.0001571416,9,1
5.682316e-05,0.0001394765,9,1
2.846173e-05,0.0001127357,9,1
-2.654814e-06,8.388807e-05,9,1
-3.425755e-05,5.61749e-05,9,1
-6.326724e-05,2.992031e-05,9,1
-9.470791e-05,4.151929e-06,9,1
-0.0001358725,-2.210265e-05,9,1
-0.0001822232,-4.657452e-05,9,1
-0.0002235498,-7.104638e-05,9,1
-0.0002499665,-9.114248e-05,9,1
-0.0002533699,-0.0001020008,9,1
-0.0002308428,-0.0001002181,9,1
-0.0001885437,-8.692878e-05,9,1
-0.0001374932,-6.845333e-05,9,1
-9.324933e-05,-5.095028e-05,9,1
-6.164659e-05,-3.944364e-05,9,1
-3.425755e-05,-3.522994e-05,9,1
-2.006553e-06,-3.68506e-05,9,1
4.02925e-05,-3.879538e-05,9,1
8.988449e-05,-3.458168e-05,9,1
0.0001398006,-1.837515e-05,9,1
0.0001806411,8.365628e-06,9,1
0.0002043026,3.769945e-05,9,1
0.0002078681,5.925414e-05,9,1
0.0001976579,6.41161e-05,9,1
0.0001811273,5.358185e-05,9,1
0.0001628139,3.526847e-05,9,1
0.0001474177,1.776542e-05,9,1
0.0001326697,7.069105e-06,9,1
0.0001151667,9.175954e-06,9,1
9.733949e-05,2.003433e-05,9,1
8.631905e-05,3.073064e-05,9,1
8.79397e-05,3.640293e-05,9,1
0.0001018773,3.089271e-05,9,1
0.0001214872,1.468618e-05,9,1
0.0001372076,-8.651231e-06,9,1
0.0001441764,-3.166451e-05,9,1
0.0001385041,-4.949169e-05,9,1
0.000123432,-5.759496e-05,9,1
0.0001046324,-5.2733e-05,9,1
8.615699e-05,-3.441962e-05,9,1
7.254349e-05,-1.092015e-05,9,1
6.703327e-05,9.500085e-06,9,1
6.476436e-05,2.181705e-05,9,1
5.666109e-05,2.538249e-05,9,1
4.158902e-05,1.954813e-05,9,1
2.39239e-05,6.582909e-06,9,1
1.014835e-05,-1.027188e-05,9,1
2.369211e-06,-2.566809e-05,9,1
4.638125e-06,-3.312309e-05,9,1
1.306552e-05,-2.84232e-05,9,1
1.873781e-05,-1.189254e-05,9,1
1.371378e-05,9.824215e-06,9,1
-4.113403e-06,2.910999e-05,9,1
-2.664048e-05,4.077869e-05,9,1
-4.576419e-05,4.499239e-05,9,1
-5.516398e-05,4.855783e-05,9,1
-5.22468e-05,5.747142e-05,9,1
-3.814712e-05,7.076078e-05,9,1
-2.129233e-05,8.810177e-05,9,1
-1.62683e-05,0.0001094944,9,1
-3.036798e-05,0.0001318594,9,1
-6.164659e-05,0.0001511452,9,1
-9.746302e-05,0.0001671896,9,1
-0.0001208004,0.0001816135,9,1
-0.0001136696,0.0001931201,9,1
-7.201877e-05,0.0002017096,9,1
-9.299493e-06,0.0002030061,9,1
5.163707e-05,0.0001924718,9,1
8.956036e-05,0.0001717275,9,1
9.717743e-05,0.0001488763,9,1
7.57848e-05,0.0001349386,9,1
3.526847e-05,0.0001380179,9,1
-1.25408e-05,0.0001522796,9,1
-5.386745e-05,0.0001654069,9,1
-8.141856e-05,0.0001701068,9,1
-9.260107e-05,0.0001665414,9,1
-9.017008e-05,0.0001576278,9,1
-7.509801e-05,0.0001435281,9,1
-4.527799e-05,0.0001237561,9,1
-4.761664e-06,9.928428e-05,9,1
4.045456e-05,7.708133e-05,9,1
8.972242e-05,5.925414e-05,9,1
0.000150659,4.920609e-05,9,1
0.0002297469,4.547859e-05,9,1
0.0003227724,3.834771e-05,9,1
0.0004119083,2.068259e-05,9,1
0.0004744656,-7.516774e-06,9,1
0.0004913204,-3.798505e-05,9,1
0.0004559901,-6.48879e-05,9,1
0.0003814401,-8.871149e-05,9,1
0.0002906835,-0.0001133454,9,1
0.0002088404,-0.0001407345,9,1
0.0001496866,-0.0001673132,9,1
0.0001096565,-0.0001937298,9,1
7.351589e-05,-0.000221605,9,1
2.505836e-05,-0.0002504527,9,1
-3.620233e-05,-0.0002742763,9,1
-9.649064e-05,-0.0002917793,9,1
-0.0001363587,-0.0003078238,9,1
-0.0001457585,-0.00032322,9,1
-0.0001269589,-0.0003350507,9,1
-9.503204e-05,-0.0003353749,9,1
-6.926366e-05,-0.0003198166,9,1
-6.699475e-05,-0.0002927517,9,1
-9.632857e-05,-0.0002606628,9,1
-0.0001498101,-0.0002259808,9,1
-0.0002123673,-0.0001925954,9,1
-0.0002640662,-0.0001640719,9,1
-0.0002969654,-0.0001425172,9,1
-0.0003160891,-0.0001280934,9,1
-0.0003313232,-0.0001178833,9,1
-0.0003463953,-0.0001076731,9,1
-0.0003609812,-9.227693e-05,9,1
-0.0003731361,-7.347736e-05,9,1
-0.0003844807,-5.678463e-05,9,1
-0.0003997148,-4.47918e-05,9,1
-0.0004186764,-3.733679e-05,9,1
-0.0004352071,-3.344723e-05,9,1
-0.0004444448,-3.21507e-05,9,1
-0.0004467137,-3.26369e-05,9,1
-0.0004394208,-3.069211e-05,9,1
-0.0004131662,-2.177852e-05,9,1
-0.0003582261,-9.137427e-06,9,1
-0.0002731418,5.772582e-06,9,1
-0.0001614788,1.954813e-05,9,1
-3.182657e-05,3.040651e-05,9,1
0.0001033359,4.207521e-05,9,1
0.0002307193,5.682316e-05,9,1
0.0003397893,7.837785e-05,9,1
0.0004190393,0.0001073875,9,1
0.0004619866,0.0001375317,9,1
0.0004674968,0.0001611932,9,1
0.0004417284,0.0001728619,9,1
0.0003969983,0.0001722137,9,1
0.0003472443,0.0001636242,9,1
0.0003062417,0.0001519555,9,1
0.0002850112,0.000145797,9,1
0.0002817699,0.0001521176,9,1
0.0002863077,0.0001691344,9,1
0.0002885766,0.0001897167,9,1
0.0002786906,0.0002043026,9,1
0.0002516257,0.0002091646,9,1
0.0002094887,0.0002060853,9,1
0.0001628139,0.0001976579,9,1
0.0001255389,0.0001885823,9,1
0.0001127357,0.0001814514,9,1
0.0001336421,0.0001791825,9,1
0.0001786963,0.0001803169,9,1
0.0002265056,0.0001830721,9,1
0.000252274,0.0001872858,9,1
0.000239957,0.000192796,9,1
0.0001923098,0.0001955511,9,1
0.0001211631,0.0001916615,9,1
3.802358e-05,0.0001827479,9,1
-4.171256e-05,0.0001663793,9,1
-0.0001063766,0.0001402868,9,1
-0.0001536997,0.0001090082,9,1
-0.0001878955,7.90261e-05,9,1
-0.0002123673,5.001642e-05,9,1
-0.0002318152,2.084466e-05,9,1
-0.0002509389,-8.813297e-06,9,1
-0.000271197,-3.587821e-05,9,1
-0.0002895104,-5.402952e-05,9,1
-0.0003039342,-5.986387e-05,9,1
-0.0003105789,-5.370539e-05,9,1
-0.0003052308,-4.171256e-05,9,1
-0.0002857829,-2.501983e-05,9,1
-0.0002528836,-5.409925e-06,9,1
-0.0002126914,1.857574e-05,9,1
-0.0001733096,4.35338e-05,9,1
-0.0001413827,6.395404e-05,9,1
-0.0001245279,7.724339e-05,9,1
-0.0001237176,8.534666e-05,9,1
-0.0001323071,9.101894e-05,9,1
-0.0001415448,9.750156e-05,9,1
-0.0001493239,0.0001023635,9,1
-0.0001556445,0.0001026876,9,1
-0.0001640719,9.750156e-05,9,1
-0.0001773612,8.696731e-05,9,1
-0.0001982676,7.189524e-05,9,1
-0.0002285739,5.61749e-05,9,1
-0.0002655248,4.158902e-05,9,1
-0.000303448,2.81376e-05,9,1
-0.0003292164,1.063454e-05,9,1
-0.0003287302,-1.156841e-05,9,1
-0.0002937241,-3.134038e-05,9,1
-0.0002254946,-4.090223e-05,9,1
-0.0001293899,-3.928157e-05,9,1
-2.177852e-05,-2.955766e-05,9,1
7.789165e-05,-1.724069e-05,9,1
0.0001537382,-1.156841e-05,9,1
0.0001965235,-1.578211e-05,9,1
0.0002068957,-2.7937e-05,9,1
0.0001987924,-4.462973e-05,9,1
0.0001884202,-6.504996e-05,9,1
0.0001845306,-8.611845e-05,9,1
0.0001872858,-0.0001076731,9,1
0.0001960373,-0.0001282554,9,1
0.0002145127,-0.0001486757,9,1
0.0002381743,-0.0001695821,9,1
0.0002610255,-0.0001885437,9,1
0.000274639,-0.0002050744,9,1
0.0002777182,-0.0002170672,9,1
0.0002705873,-0.000223874,9,1
0.0002540567,-0.0002198223,9,1
0.0002287745,-0.0002005366,9,1
0.0001960373,-0.000166989,9,1
0.0001610312,-0.0001263107,9,1
0.0001302388,-8.757704e-05,9,1
0.0001051186,-5.289507e-05,9,1
8.518459e-05,-2.258885e-05,9,1
6.995045e-05,3.503668e-06,9,1
6.055066e-05,2.76514e-05,9,1
5.747142e-05,4.920609e-05,9,1
6.314371e-05,6.865393e-05,9,1
7.951231e-05,8.194328e-05,9,1
0.0001046324,8.875003e-05,9,1
0.000128456,9.31258e-05,9,1
0.0001422316,9.960841e-05,9,1
0.0001443384,0.0001103047,9,1
0.0001367214,0.0001244044,9,1
0.0001232699,0.0001401247,9,1
0.000105929,0.0001539003,9,1
9.442231e-05,0.0001602208,9,1
9.490851e-05,0.0001586002,9,1
0.000110953,0.0001516314,9,1
0.0001423936,0.000145635,9,1
0.0001884202,0.0001451488,9,1
0.0002464396,0.0001503349,9,1
0.0003046211,0.000155683,9,1
0.0003446512,0.0001560072,9,1
0.0003532407,0.0001529279,9,1
0.0003328204,0.0001474177,9,1
0.0003062417,0.0001349386,9,1
0.0002948972,0.0001077117,9,1
0.0003098072,6.525056e-05,9,1
0.0003418961,1.938607e-05,9,1
0.0003715541,-1.62683e-05,9,1
0.0003744712,-3.830919e-05,9,1
0.0003311998,-4.365734e-05,9,1
0.0002464396,-3.490581e-05,9,1
0.0001435281,-2.031993e-05,9,1
4.677511e-05,-8.489166e-06,9,1
-3.377136e-05,-1.844488e-06,9,1
-9.811128e-05,-5.479652e-07,9,1
-0.0001496481,-6.058186e-06,9,1
-0.0001812508,-1.643037e-05,9,1
-0.0001823853,-2.372331e-05,9,1
-0.0001543479,-2.534396e-05,9,1
-0.0001076731,-2.161646e-05,9,1
-6.278104e-05,-1.62683e-05,9,1
-3.539201e-05,-9.947754e-06,9,1
-3.360929e-05,-1.358292e-06,9,1
-5.305713e-05,9.500085e-06,9,1
-8.239095e-05,1.97102e-05,9,1
-0.0001112386,2.538249e-05,9,1
-0.0001331174,2.068259e-05,9,1
-0.0001485136,7.879432e-06,9,1
-0.000159534,-6.382317e-06,9,1
-0.0001700683,-1.772689e-05,9,1
-0.0001836818,-2.339918e-05,9,1
-0.0001994021,-2.615429e-05,9,1
-0.0002136638,-3.069211e-05,9,1
-0.0002235498,-3.490581e-05,9,1
-0.0002340841,-3.814712e-05,9,1
-0.0002454286,-4.462973e-05,9,1
-0.0002559629,-5.2733e-05,9,1
-0.0002619593,-6.06742e-05,9,1
-0.0002626076,-6.926366e-05,9,1
-0.0002583939,-7.931171e-05,9,1
-0.0002520733,-9.373552e-05,9,1
-0.0002431597,-0.0001135075,9,1
-0.0002305186,-0.0001342519,9,1
-0.0002099363,-0.0001498101,9,1
-0.0001875713,-0.0001549962,9,1
-0.0001713648,-0.0001502963,9,1
-0.0001634236,-0.0001423551,9,1
-0.0001634236,-0.0001378173,9,1
-0.0001682856,-0.0001329553,9,1
-0.0001752544,-0.0001219349,9,1
-0.0001833576,-0.0001031353,9,1
-0.0001930815,-7.769106e-05,9,1
-0.0002079916,-4.398147e-05,9,1
-0.0002258187,-1.520357e-06,9,1
-0.0002399184,4.320967e-05,9,1
-0.0002441321,7.691926e-05,9,1
-0.0002374874,9.442231e-05,9,1
-0.0002191741,9.588091e-05,9,1
-0.0001903264,8.74535e-05,9,1
-0.0001528894,7.951231e-05,9,1
-0.0001036215,7.90261e-05,9,1
-3.117831e-05,8.810177e-05,9,1
7.789165e-05,0.0001030118,9,1
0.0002297469,0.0001179218,9,1
0.0004091532,0.0001321835,9,1
0.0005859666,0.000145635,9,1
0.0007295565,0.0001561692,9,1
0.000817234,0.000162976,9,1
0.0008410576,0.0001660552,9,1
0.0008083204,0.0001663793,9,1
0.0007383081,0.0001611932,9,1
0.0006600305,0.0001534141,9,1
0.0005924492,0.0001454729,9,1
0.0005433434,0.0001389903,9,1
0.0005136854,0.0001367214,9,1
0.0004913204,0.0001376938,9,1
0.0004639314,0.0001393144,9,1
0.0004279528,0.0001367214,9,1
0.0003752816,0.0001253768,9,1
0.0002924662,0.0001088461,9,1
0.0001731861,9.344993e-05,9,1
2.570662e-05,8.129502e-05,9,1
-0.0001245279,7.384002e-05,9,1
-0.0002504527,7.140904e-05,9,1
-0.00033813,7.643307e-05,9,1
-0.0003885323,8.631905e-05,9,1
-0.0004157593,9.798775e-05,9,1
-0.0004290486,0.000103498,9,1
-0.0004311555,9.977047e-05,9,1
-0.0004228902,8.79397e-05,9,1
-0.0004044147,7.400208e-05,9,1
-0.0003791325,6.379197e-05,9,1
-0.0003559572,6.006447e-05,9,1
-0.0003350507,6.055066e-05,9,1
-0.0003128478,6.103686e-05,9,1
-0.0002934,5.649903e-05,9,1
-0.0002781658,4.645098e-05,9,1
-0.000261149,3.526847e-05,9,1
-0.0002334358,2.424803e-05,9,1
-0.0001853024,1.209313e-05,9,1
-0.0001133454,-2.978945e-06,9,1
-1.707863e-05,-1.724069e-05,9,1
9.571884e-05,-2.583016e-05,9,1
0.0002047888,-2.809907e-05,9,1
0.0002906835,-2.84232e-05,9,1
0.0003363859,-3.101625e-05,9,1
0.0003362238,-4.05781e-05,9,1
0.0002934386,-6.0188e-05,9,1
0.0002184023,-8.82253e-05,9,1
0.0001271595,-0.0001209625,9,1
4.304761e-05,-0.0001525652,9,1
-1.270286e-05,-0.0001776853,9,1
-2.858527e-05,-0.0001875713,9,1
-2.330684e-06,-0.0001814128,9,1
6.525056e-05,-0.0001650443,9,1
0.0001709172,-0.0001434896,9,1
0.0002997591,-0.0001186936,9,1
0.0004201737,-9.2439e-05,9,1
0.0004981271,-6.699475e-05,9,1
0.0005123889,-4.916756e-05,9,1
0.0004546936,-4.074016e-05,9,1
0.0003297412,-3.911951e-05,9,1
0.0001610312,-3.733679e-05,9,1
-1.432352e-05,-2.923353e-05,9,1
-0.0001583996,-1.448558e-05,9,1
-0.0002476975,1.558884e-06,9,1
-0.0002770314,1.841368e-05,9,1
-0.0002614731,3.867184e-05,9,1
-0.0002224154,6.298164e-05,9,1
-0.0001823853,8.502253e-05,9,1
-0.0001579134,9.620504e-05,9,1
-0.0001587237,9.523264e-05,9,1
-0.0001806025,8.761557e-05,9,1
-0.0002131776,7.724339e-05,9,1
-0.0002366771,6.703327e-05,9,1
-0.000236353,5.94162e-05,9,1
-0.0002133397,5.828175e-05,9,1
-0.0001786577,6.379197e-05,9,1
-0.0001504584,7.011252e-05,9,1
-0.0001468929,6.800567e-05,9,1
-0.0001713648,5.325772e-05,9,1
-0.0002102605,3.040651e-05,9,1
-0.0002493182,6.096713e-06,9,1
-0.0002754107,-1.432352e-05,9,1
-0.0002844864,-2.826114e-05,9,1
-0.0002814071,-3.749886e-05,9,1
-0.0002747625,-4.884343e-05,9,1
-0.0002757348,-6.375344e-05,9,1
-0.0002874036,-7.947377e-05,9,1
-0.0003053928,-9.486997e-05,9,1
-0.0003196545,-0.00010978,9,1
-0.0003235441,-0.0001208004,9,1
-0.0003136581,-0.0001248521,9,1
-0.0002955068,-0.0001211246,9,1
-0.0002820554,-0.0001081593,9,1
-0.0002791382,-8.563225e-05,9,1
-0.0002799486,-5.419158e-05,9,1
-0.0002737901,-1.756482e-05,9,1
-0.0002545043,1.695509e-05,9,1
-0.0002173914,4.531652e-05,9,1
-0.0001677994,6.78436e-05,9,1
-0.0001143178,8.323981e-05,9,1
-5.824322e-05,9.280167e-05,9,1
2.855407e-06,9.766362e-05,9,1
6.897806e-05,0.0001002567,9,1
0.0001328318,0.0001026876,9,1
0.0001858272,0.0001127357,9,1
0.0002261814,0.0001300767,9,1
0.0002608634,0.0001477418,9,1
0.0003036487,0.0001582761,9,1
0.0003675024,0.0001590864,9,1
0.000458097,0.0001519555,9,1
0.0005616568,0.0001440143,9,1
0.0006550064,0.0001380179,9,1
0.0007105949,0.0001304008,9,1
0.0007141604,0.0001218114,9,1
0.0006616511,0.0001148425,9,1
0.0005579292,0.0001088461,9,1
0.0004200116,0.0001009049,9,1
0.0002735045,9.101894e-05,9,1
0.0001451488,8.145709e-05,9,1
5.471631e-05,6.962632e-05,9,1
8.365628e-06,5.552663e-05,9,1
-8.165035e-06,3.867184e-05,9,1
-1.707863e-05,1.841368e-05,9,1
-3.539201e-05,-3.14101e-06,9,1
-6.423963e-05,-2.226472e-05,9,1
-9.649064e-05,-4.025397e-05,9,1
-0.0001164247,-5.500191e-05,9,1
-0.0001065387,-6.569822e-05,9,1
-6.342931e-05,-6.861539e-05,9,1
-5.89612e-06,-6.148453e-05,9,1
4.320967e-05,-4.884343e-05,9,1
6.735741e-05,-3.733679e-05,9,1
6.557468e-05,-3.020592e-05,9,1
4.547859e-05,-2.566809e-05,9,1
1.9224e-05,-2.145439e-05,9,1
4.244267e-07,-1.562004e-05,9,1
-2.006553e-06,-9.785688e-06,9,1
3.179537e-06,-5.734056e-06,9,1
5.286387e-06,-1.520357e-06,9,1
-2.238346e-07,2.693341e-06,9,1
-1.140634e-05,5.448452e-06,9,1
-2.46957e-05,5.934648e-06,9,1
-3.441962e-05,2.207145e-06,9,1
-3.506788e-05,-5.085794e-06,9,1
-2.566809e-05,-1.25408e-05,9,1
-1.059602e-05,-1.286493e-05,9,1
5.934648e-06,-1.844488e-06,9,1
2.068259e-05,1.97102e-05,9,1
3.235129e-05,4.45062e-05,9,1
4.35338e-05,6.816773e-05,9,1
5.682316e-05,8.486046e-05,9,1
7.108491e-05,9.053275e-05,9,1
7.951231e-05,8.307774e-05,9,1
7.546067e-05,6.654708e-05,9,1
5.828175e-05,5.034055e-05,9,1
3.93201e-05,3.948217e-05,9,1
2.586868e-05,3.332369e-05,9,1
2.246531e-05,3.218923e-05,9,1
2.81376e-05,3.591673e-05,9,1
3.786152e-05,4.369587e-05,9,1
4.564065e-05,5.471631e-05,9,1
4.709924e-05,6.573675e-05,9,1
4.158902e-05,7.286763e-05,9,1
2.959619e-05,7.384002e-05,9,1
1.193106e-05,6.508849e-05,9,1
-6.868513e-06,4.709924e-05,9,1
-2.080613e-05,2.910999e-05,9,1
-2.113026e-05,1.857574e-05,9,1
-2.330684e-06,1.906194e-05,9,1
3.883391e-05,2.943412e-05,9,1
9.296373e-05,4.337174e-05,9,1
0.0001480659,5.536457e-05,9,1
0.0001949028,6.265751e-05,9,1
0.0002268297,6.78436e-05,9,1
0.0002381743,7.319176e-05,9,1
0.0002253711,7.513654e-05,9,1
0.0001932822,6.897806e-05,9,1
0.000153252,5.552663e-05,9,1
0.0001161391,3.688912e-05,9,1
9.814982e-05,1.760335e-05,9,1
0.0001122495,4.151929e-06,9,1
0.0001579519,1.072688e-06,9,1
0.0002195368,9.986281e-06,9,1
0.0002754493,2.684107e-05,9,1
0.0003073762,4.207521e-05,9,1
0.0003049452,5.179914e-05,9,1
0.0002728562,5.244739e-05,9,1
0.0002234263,4.369587e-05,9,1
0.0001696206,2.894792e-05,9,1
0.0001239182,1.419998e-05,9,1
9.409818e-05,-2.006553e-06,9,1
8.42122e-05,-1.853722e-05,9,1
9.701536e-05,-3.101625e-05,9,1
0.0001263492,-3.490581e-05,9,1
0.0001545486,-3.166451e-05,9,1
0.0001626518,-2.42095e-05,9,1
0.0001427178,-1.967167e-05,9,1
0.0001017153,-2.210265e-05,9,1
5.601284e-05,-3.21507e-05,9,1
1.59827e-05,-5.030202e-05,9,1
-1.643037e-05,-7.169464e-05,9,1
-5.257093e-05,-9.081835e-05,9,1
-0.0001029732,-0.0001075111,9,1
-0.0001637477,-0.0001238797,9,1
-0.0002191741,-0.0001400862,9,1
-0.0002519113,-0.0001556445,9,1
-0.0002549905,-0.0001660166,9,1
-0.0002305186,-0.000166827,9,1
-0.0001956746,-0.0001556445,9,1
-0.0001679614,-0.0001381414,9,1
-0.0001575893,-0.0001146419,9,1
-0.0001621271,-9.017008e-05,9,1
-0.0001759026,-6.942573e-05,9,1
-0.0001927574,-5.257093e-05,9,1
-0.0001998883,-3.928157e-05,9,1
-0.0001914609,-2.971972e-05,9,1
-0.0001702304,-2.712668e-05,9,1
-0.0001441378,-3.360929e-05,9,1
-0.0001193418,-4.608832e-05,9,1
-0.0001016767,-5.710876e-05,9,1
-0.000102325,-5.937768e-05,9,1
-0.0001225832,-5.386745e-05,9,1
-0.0001553203,-5.095028e-05,9,1
-0.0001937298,-5.483985e-05,9,1
-0.0002331117,-6.310517e-05,9,1
-0.0002664971,-7.315322e-05,9,1
-0.0002891863,-7.639453e-05,9,1
-0.0002937241,-6.537409e-05,9,1
-0.0002733039,-4.074016e-05,9,1
-0.0002316531,-9.299493e-06,9,1
-0.0001796301,2.197911e-05,9,1
-0.0001381414,4.904402e-05,9,1
-0.000122259,6.978839e-05,9,1
-0.0001310105,8.210535e-05,9,1
-0.0001504584,8.810177e-05,9,1
-0.0001618029,9.409818e-05,9,1
-0.0001491618,0.0001044704,9,1
-0.0001109144,0.0001148425,9,1
-6.099833e-05,0.0001227837,9,1
-1.837515e-05,0.0001266733,9,1
4.80019e-06,0.0001276457,9,1
1.883015e-06,0.0001299146,9,1
-2.339918e-05,0.0001372076,9,1
-6.180866e-05,0.00015309,9,1
-0.0001029732,0.0001707551,9,1
-0.0001383035,0.0001842065,9,1
-0.0001627754,0.0001906891,9,1
-0.0001770371,0.0001910133,9,1
-0.000184168,0.000190365,9,1
-0.0001778474,0.0001932822,9,1
-0.0001509446,0.0001970097,9,1
-9.973194e-05,0.0001992786,9,1
-2.761287e-05,0.0001944166,9,1
5.228533e-05,0.0001858272,9,1
0.0001229458,0.0001762653,9,1
0.0001676758,0.0001641104,9,1
0.0001837203,0.0001461212,9,1
0.0001827479,0.0001252147,9,1
0.0001770756,0.0001090082,9,1
0.0001726999,9.701536e-05,9,1
0.0001665414,8.210535e-05,9,1
0.0001534141,6.298164e-05,9,1
0.000130725,4.256141e-05,9,1
0.0001025256,2.197911e-05,9,1
7.610894e-05,3.017472e-06,9,1
5.747142e-05,-1.270286e-05,9,1
5.277153e-05,-2.210265e-05,9,1
6.087479e-05,-2.194059e-05,9,1
7.821578e-05,-1.545797e-05,9,1
0.0001000946,-7.354709e-06,9,1
0.0001219734,-5.479652e-07,9,1
0.0001373696,2.855407e-06,9,1
0.0001459591,1.558884e-06,9,1
0.000158114,-3.951337e-06,9,1
0.0001898788,-1.448558e-05,9,1
0.000250005,-2.826114e-05,9,1
0.0003276344,-4.706071e-05,9,1
0.0003984569,-7.023606e-05,9,1
0.0004355699,-9.422172e-05,9,1
0.0004229288,-0.000112211,9,1
0.0003592371,-0.0001177212,9,1
0.0002571359,-0.00010978,9,1
0.0001394765,-9.551824e-05,9,1
2.862379e-05,-8.02841e-05,9,1
-5.59743e-05,-6.829127e-05,9,1
-0.0001065387,-6.39155e-05,9,1
-0.0001227452,-6.359137e-05,9,1
-0.0001144799,-6.602235e-05,9,1
-9.843541e-05,-7.088431e-05,9,1
-8.433573e-05,-7.914964e-05,9,1
-7.363943e-05,-8.773911e-05,9,1
-6.683268e-05,-9.2439e-05,9,1
-6.780507e-05,-9.098041e-05,9,1
-8.125649e-05,-8.40116e-05,9,1
-0.0001067007,-7.282909e-05,9,1
-0.0001431655,-6.083626e-05,9,1
-0.0001815749,-5.338126e-05,9,1
-0.0002122053,-5.386745e-05,9,1
-0.0002357047,-6.278104e-05,9,1
-0.0002549905,-7.995997e-05,9,1
-0.0002733039,-9.794922e-05,9,1
-0.0002921034,-0.0001101041,9,1
-0.0003084721,-0.0001107524,9,1
-0.0003215994,-9.827335e-05,9,1
-0.0003211132,-8.109443e-05,9,1
-0.0002964792,-6.861539e-05,9,1
-0.0002442942,-6.407757e-05,9,1
-0.0001733096,-6.310517e-05,9,1
-9.211487e-05,-6.002594e-05,9,1
-9.299493e-06,-5.013995e-05,9,1
7.367795e-05,-3.328516e-05,9,1
0.0001561692,-1.497178e-05,9,1
0.0002384984,-6.382317e-06,9,1
0.0003214759,-8.651231e-06,9,1
0.0004072085,-1.432352e-05,9,1
0.0004931031,-1.853722e-05,9,1
0.0005759185,-1.691656e-05,9,1
0.0006556547,-6.544382e-06,9,1
0.0007264773,1.338965e-05,9,1
0.0007812555,4.077869e-05,9,1
0.0008149651,6.897806e-05,9,1
0.0008248511,9.150514e-05,9,1
0.0008065377,0.000103498,9,1
0.0007582422,0.0001073875,9,1
0.0006845024,0.0001072255,9,1
0.0005971491,0.000106091,9,1
0.0005097958,0.0001052807,9,1
0.000433301,0.0001009049,9,1
0.000368799,9.377406e-05,9,1
0.0003065659,8.923623e-05,9,1
0.0002328261,8.761557e-05,9,1
0.0001440143,8.826383e-05,9,1
5.034055e-05,8.810177e-05,9,1
-3.134038e-05,8.599492e-05,9,1
-8.838737e-05,8.080883e-05,9,1
-0.0001261486,7.594687e-05,9,1
-0.0001546721,7.756752e-05,9,1
-0.000184168,8.891209e-05,9,1
-0.0002217671,0.000106091,9,1
-0.0002690902,0.0001245665,9,1
-0.0003238683,0.0001393144,9,1
-0.0003736223,0.0001445005,9,1
-0.0004081422,0.0001406109,9,1
-0.000419973,0.0001341283,9,1
-0.000402632,0.0001292664,9,1
-0.0003561192,0.0001274836,9,1
-0.0002925897,0.0001278078,9,1
-0.0002340841,0.0001305629,9,1
-0.0002044261,0.0001338042,9,1
-0.0002152845,0.0001344524,9,1
-0.0002585559,0.0001338042,9,1
-0.0003160891,0.0001347766,9,1
-0.0003663294,0.000140773,9,1
-0.0004005251,0.0001535762,9,1
-0.0004157593,0.0001723757,9,1
-0.0004167317,0.0001923098,9,1
-0.0004118697,0.0002075439,9,1
-0.0004079801,0.0002158093,9,1
-0.0004053871,0.0002159713,9,1
-0.0004040906,0.0002030061,9,1
-0.0004003631,0.0001786963,9,1
-0.000390315,0.0001514693,9,1
-0.0003658432,0.0001341283,9,1
-0.0003165753,0.0001305629,9,1
-0.0002365151,0.0001365593,9,1
-0.0001303623,0.0001443384,9,1
-1.221667e-05,0.0001410971,9,1
9.118101e-05,0.0001182459,9,1
0.0001558451,7.708133e-05,9,1
0.0001756171,2.424803e-05,9,1
0.000160707,-3.26369e-05,9,1
0.0001281319,-8.563225e-05,9,1
9.523264e-05,-0.0001314967,9,1
7.173317e-05,-0.0001695821,9,1
4.969229e-05,-0.0002045882,9,1
2.635488e-05,-0.0002407288,9,1
4.151929e-06,-0.0002768693,9,1
-1.189254e-05,-0.0003052308,9,1
-1.578211e-05,-0.0003146305,9,1
-6.544382e-06,-0.0003023136,9,1
1.419998e-05,-0.0002715212,9,1
4.483033e-05,-0.000228898,9,1
7.594687e-05,-0.0001851404,9,1
9.652917e-05,-0.0001431655,9,1
9.944634e-05,-0.0001057284,9,1
9.134307e-05,-7.509801e-05,9,1
8.080883e-05,-5.240886e-05,9,1
7.092284e-05,-3.701266e-05,9,1
5.99024e-05,-2.680255e-05,9,1
5.050261e-05,-2.210265e-05,9,1
5.293359e-05,-1.740276e-05,9,1
7.740546e-05,-1.075808e-05,9,1
0.0001218114,-2.81688e-06,9,1
0.0001707551,1.072688e-06,9,1
0.0002021958,-6.176923e-08,9,1
0.0002041406,-5.89612e-06,9,1
0.0001843686,-1.416145e-05,9,1
0.000162976,-1.99958e-05,9,1
0.0001589243,-1.99958e-05,9,1
0.0001764274,-1.416145e-05,9,1
0.0002034923,5.86492e-07,9,1
0.0002227781,2.424803e-05,9,1
0.0002245608,5.163707e-05,9,1
0.0002096508,7.20573e-05,9,1
0.0001835583,8.226741e-05,9,1
0.0001548727,8.453633e-05,9,1
0.0001310491,7.90261e-05,9,1
0.0001099806,6.751948e-05,9,1
8.388807e-05,5.423012e-05,9,1
4.77475e-05,3.93201e-05,9,1
-5.479652e-07,2.246531e-05,9,1
-5.824322e-05,5.934648e-06,9,1
-0.0001229073,-6.706447e-06,9,1
-0.0001872472,-8.165035e-06,9,1
-0.0002407288,3.017472e-06,9,1
-0.0002737901,2.230325e-05,9,1
-0.0002791382,4.256141e-05,9,1
-0.0002652006,6.298164e-05,9,1
-0.0002423494,8.178122e-05,9,1
-0.0002199844,9.977047e-05,9,1
-0.0001971332,0.0001145184,9,1
-0.0001682856,0.0001253768,9,1
-0.0001329553,0.0001278078,9,1
-9.357346e-05,0.0001200286,9,1
-6.099833e-05,0.0001065772,9,1
-4.495386e-05,9.555677e-05,9,1
-4.576419e-05,9.31258e-05,9,1
-5.192267e-05,9.701536e-05,9,1
-5.257093e-05,0.0001007429,9,1
-3.798505e-05,0.0001020394,9,1
-9.137427e-06,9.831188e-05,9,1
2.100672e-05,8.696731e-05,9,1
3.964424e-05,6.978839e-05,9,1
4.288554e-05,4.758544e-05,9,1
4.061663e-05,2.230325e-05,9,1
4.742337e-05,-3.627206e-06,9,1
7.286763e-05,-2.226472e-05,9,1
0.0001190562,-3.26369e-05,9,1
0.0001889064,-3.847125e-05,9,1
0.0002799871,-4.414354e-05,9,1
0.0003840331,-5.078821e-05,9,1
0.0004887274,-6.002594e-05,9,1
0.0005825632,-7.266703e-05,9,1
0.0006509548,-8.676672e-05,9,1
0.0006804507,-9.616651e-05,9,1
0.0006601926,-9.551824e-05,9,1
0.0005747841,-8.628052e-05,9,1
0.0004300596,-6.926366e-05,9,1
0.0002571359,-5.192267e-05,9,1
9.020862e-05,-4.074016e-05,9,1
-5.078821e-05,-3.247483e-05,9,1
-0.0001609926,-2.534396e-05,9,1
-0.0002433218,-1.967167e-05,9,1
-0.000301017,-1.853722e-05,9,1
-0.0003407231,-2.145439e-05,9,1
-0.0003687603,-2.631635e-05,9,1
-0.0003886944,-2.923353e-05,9,1
-0.0003987424,-2.566809e-05,9,1
-0.0003917736,-1.902341e-05,9,1
-0.0003621157,-9.137427e-06,9,1
-0.000310741,3.665733e-06,9,1
-0.0002473734,1.371378e-05,9,1
-0.0001773612,1.727922e-05,9,1
-0.0001031353,1.322759e-05,9,1
-1.724069e-05,5.610517e-06,9,1
8.615699e-05,9.106227e-07,9,1
0.0001992786,-8.720959e-07,9,1
0.0003041349,-4.599598e-06,9,1
0.000381278,-1.286493e-05,9,1
0.0004182289,-2.437157e-05,9,1
0.0004115842,-3.879538e-05,9,1
0.0003785229,-5.548811e-05,9,1
0.0003399513,-7.509801e-05,9,1
0.0003080245,-9.973194e-05,9,1
0.0002829043,-0.0001287416,9,1
0.0002621599,-0.0001579134,9,1
0.000247412,-0.0001812508,9,1
0.0002435224,-0.0001878955,9,1
0.0002504913,-0.000169258,9,1
0.0002581083,-0.0001282554,9,1
0.0002532463,-7.299116e-05,9,1
0.0002295848,-1.383732e-05,9,1
0.000192796,4.175109e-05,9,1
0.0001545486,8.972242e-05,9,1
0.000118408,0.0001255389,9,1
8.615699e-05,0.0001493625,9,1
5.19612e-05,0.0001644345,9,1
6.744974e-06,0.000173024,9,1
-5.581224e-05,0.0001757791,9,1
-0.000127283,0.0001735102,9,1
-0.0001872472,0.0001678379,9,1
-0.000219012,0.0001626518,9,1
-0.0002188499,0.0001595726,9,1
-0.0001909747,0.0001564933,9,1
-0.0001428413,0.0001543865,9,1
-8.465986e-05,0.0001563313,9,1
-2.907146e-05,0.0001623277,9,1
1.014835e-05,0.0001692965,9,1
1.857574e-05,0.0001764274,9,1
-9.785688e-06,0.0001785342,9,1
-6.569822e-05,0.0001717275,9,1
-0.0001274451,0.0001586002,9,1
-0.000174444,0.0001483901,9,1
-0.0001974573,0.0001480659,9,1
-0.0001984297,0.000155683,9,1
-0.0001927574,0.0001634622,9,1
-0.0001984297,0.000163138,9,1
-0.0002243602,0.0001495245,9,1
-0.0002640662,0.0001265113,9,1
-0.0003044204,0.0001020394,9,1
-0.0003298647,8.550872e-05,9,1
-0.0003290543,7.659513e-05,9,1
-0.0003044204,7.286763e-05,9,1
-0.0002720074,6.703327e-05,9,1
-0.0002429977,5.471631e-05,9,1
-0.0002188499,3.397195e-05,9,1
-0.000201671,5.934648e-06,9,1
-0.0001895161,-2.356124e-05,9,1
-0.0001846542,-4.90055e-05,9,1
-0.0001883817,-6.569822e-05,9,1
-0.0002008607,-7.137051e-05,9,1
-0.0002185258,-7.039812e-05,9,1
-0.0002355427,-6.877746e-05,9,1
-0.0002506147,-6.829127e-05,9,1
-0.0002643903,-6.81292e-05,9,1
-0.0002815692,-6.893953e-05,9,1
-0.0003063652,-6.974985e-05,9,1
-0.0003358611,-6.991193e-05,9,1
-0.0003616295,-7.104638e-05,9,1
-0.0003739464,-7.785312e-05,9,1
-0.0003626019,-8.579432e-05,9,1
-0.0003199787,-9.000802e-05,9,1
-0.0002441321,-8.968389e-05,9,1
-0.0001376552,-8.384954e-05,9,1
-1.075808e-05,-7.461182e-05,9,1
0.0001122495,-6.893953e-05,9,1
0.0002013854,-7.120844e-05,9,1
0.0002362295,-8.02841e-05,9,1
0.0002192126,-9.114248e-05,9,1
0.0001683241,-9.762509e-05,9,1
0.0001064152,-0.0001010285,9,1
5.714729e-05,-0.0001018388,9,1
3.624086e-05,-9.924574e-05,9,1
4.677511e-05,-9.049421e-05,9,1
8.599492e-05,-7.412562e-05,9,1
0.0001365593,-5.386745e-05,9,1
0.0001777239,-3.441962e-05,9,1
0.0001996027,-1.562004e-05,9,1
0.0002030061,-2.238346e-07,9,1
0.0001986303,9.66215e-06,9,1
0.0001992786,9.66215e-06,9,1
0.0002141886,-3.465141e-06,9,1
0.0002478982,-2.518189e-05,9,1
0.0002961937,-4.414354e-05,9,1
0.0003456236,-4.916756e-05,9,1
0.0003791712,-3.960571e-05,9,1
0.0003775505,-2.501983e-05,9,1
0.0003323342,-1.67545e-05,9,1
0.0002493568,-1.318906e-05,9,1
0.0001441764,-9.461558e-06,9,1
3.462021e-05,2.531276e-06,9,1
-5.970181e-05,2.34377e-05,9,1
-0.0001212866,4.709924e-05,9,1
-0.0001350622,6.41161e-05,9,1
-0.0001005423,7.108491e-05,9,1
-2.631635e-05,7.027458e-05,9,1
6.589881e-05,6.946425e-05,9,1
0.000150659,7.076078e-05,9,1
0.0002090025,6.995045e-05,9,1
0.0002362295,6.622294e-05,9,1
0.0002370398,6.184718e-05,9,1
0.0002265056,5.909208e-05,9,1
0.0002193747,5.94162e-05,9,1
0.0002258573,6.055066e-05,9,1
0.0002511395,5.844381e-05,9,1
0.0003036487,5.747142e-05,9,1
0.0003932708,6.071273e-05,9,1
0.0005135234,6.703327e-05,9,1
0.000636531,7.6271e-05,9,1
0.000723074,8.777764e-05,9,1
0.0007443045,9.733949e-05,9,1
0.0006896885,0.0001051186,9,1
0.0005678153,0.0001127357,9,1
0.000406074,0.0001192183,9,1
0.0002378501,0.0001231079,9,1
8.956036e-05,0.0001232699,9,1
-2.923353e-05,0.0001172735,9,1
-0.0001253383,0.0001041462,9,1
-0.0002039399,8.74535e-05,9,1
-0.0002642282,6.865393e-05,9,1
-0.0003037722,4.969229e-05,9,1
-0.0003248407,3.397195e-05,9,1
-0.0003259751,2.197911e-05,9,1
-0.0003057169,1.144487e-05,9,1
-0.000263742,3.179537e-06,9,1
-0.000209126,-1.844488e-06,9,1
-0.0001626133,-3.627206e-06,9,1
-0.0001391138,-7.192643e-06,9,1
-0.0001436516,-1.545797e-05,9,1
-0.0001653684,-2.728874e-05,9,1
-0.0001890299,-4.106429e-05,9,1
-0.0002011848,-5.127441e-05,9,1
-0.0001969711,-5.32192e-05,9,1
-0.000176875,-4.446767e-05,9,1
-0.0001467309,-3.053005e-05,9,1
-0.0001138316,-1.691656e-05,9,1
-8.514606e-05,-6.868513e-06,9,1
-6.213279e-05,-2.006553e-06,9,1
-4.090223e-05,-8.720959e-07,9,1
-1.950961e-05,-2.492749e-06,9,1
-1.034161e-06,-1.358292e-06,9,1
5.934648e-06,3.179537e-06,9,1
-4.437533e-06,8.851824e-06,9,1
-2.874733e-05,1.436204e-05,9,1
-5.548811e-05,1.776542e-05,9,1
-7.023606e-05,1.97102e-05,9,1
-7.072225e-05,2.197911e-05,9,1
-6.310517e-05,2.748934e-05,9,1
-5.467778e-05,3.543054e-05,9,1
-4.997789e-05,4.531652e-05,9,1
-5.143648e-05,5.585077e-05,9,1
-5.159854e-05,6.427817e-05,9,1
-4.625038e-05,6.897806e-05,9,1
-3.004385e-05,6.687121e-05,9,1
-5.409925e-06,5.860588e-05,9,1
1.744129e-05,4.580272e-05,9,1
3.154097e-05,3.154097e-05,9,1
4.369587e-05,2.01964e-05,9,1
6.087479e-05,1.857574e-05,9,1
8.74535e-05,2.538249e-05,9,1
0.0001145184,3.688912e-05,9,1
0.0001287802,4.871989e-05,9,1
0.0001224596,5.536457e-05,9,1
0.0001007429,5.52025e-05,9,1
7.659513e-05,4.77475e-05,9,1
6.379197e-05,3.024445e-05,9,1
7.270556e-05,6.096713e-06,9,1
0.000106091,-1.610624e-05,9,1
0.0001579519,-3.036798e-05,9,1
0.0002208333,-3.587821e-05,9,1
0.0002854973,-3.668853e-05,9,1
0.0003357376,-3.571614e-05,9,1
0.0003577785,-3.63644e-05,9,1
0.000353889,-3.668853e-05,9,1
0.000331848,-3.555408e-05,9,1
0.000297004,-3.360929e-05,9,1
0.0002480603,-3.377136e-05,9,1
0.0001833962,-3.733679e-05,9,1
0.0001070634,-4.47918e-05,9,1
3.316162e-05,-5.386745e-05,9,1
-2.437157e-05,-5.483985e-05,9,1
-6.326724e-05,-4.560212e-05,9,1
-9.211487e-05,-3.101625e-05,9,1
-0.0001248521,-1.99958e-05,9,1
-0.0001677994,-1.853722e-05,9,1
-0.0002152845,-2.080613e-05,9,1
-0.0002598524,-1.902341e-05,9,1
-0.0002940482,-1.237873e-05,9,1
-0.0003144685,-2.978945e-06,9,1
-0.00032322,6.096713e-06,9,1
-0.000328082,1.306552e-05,9,1
-0.0003277578,2.052053e-05,9,1
-0.0003219235,2.81376e-05,9,1
-0.0003154408,3.040651e-05,9,1
-0.0003121996,2.894792e-05,9,1
-0.0003130099,2.76514e-05,9,1
-0.0003162512,2.910999e-05,9,1
-0.0003178718,3.267542e-05,9,1
-0.0003167374,3.737532e-05,9,1
-0.0003117133,4.207521e-05,9,1
-0.0003024756,4.580272e-05,9,1
-0.0002872415,4.758544e-05,9,1
-0.0002554767,4.612685e-05,9,1
-0.0002052365,4.142696e-05,9,1
-0.0001442999,3.089271e-05,9,1
-8.174268e-05,1.565857e-05,9,1
-2.696461e-05,1.883015e-06,9,1
1.954813e-05,-5.409925e-06,9,1
6.071273e-05,-6.220252e-06,9,1
9.993253e-05,-1.682422e-06,9,1
0.0001351007,8.851824e-06,9,1
0.0001576278,1.938607e-05,9,1
0.000155683,2.619281e-05,9,1
0.0001266733,3.105477e-05,9,1
8.129502e-05,3.364782e-05,9,1
3.591673e-05,3.348575e-05,9,1
9.175954e-06,3.235129e-05,9,1
9.500085e-06,3.591673e-05,9,1
3.494434e-05,4.709924e-05,9,1
7.967438e-05,6.168512e-05,9,1
0.0001323456,7.465034e-05,9,1
0.0001845306,8.340187e-05,9,1
0.0002231022,8.145709e-05,9,1
0.0002389846,7.027458e-05,9,1
0.0002337985,5.61749e-05,9,1
0.0002130541,4.693717e-05,9,1
0.0001827479,4.531652e-05,9,1
0.0001446626,5.017848e-05,9,1
9.798775e-05,5.325772e-05,9,1
4.807163e-05,4.661304e-05,9,1
1.558884e-06,2.975825e-05,9,1
-3.26369e-05,7.717366e-06,9,1
-5.192267e-05,-1.140634e-05,9,1
-5.905355e-05,-2.404744e-05,9,1
-5.856735e-05,-2.712668e-05,9,1
-5.32192e-05,-1.950961e-05,9,1
-4.625038e-05,-3.303076e-06,9,1
-4.074016e-05,1.808955e-05,9,1
-3.814712e-05,3.705119e-05,9,1
-3.879538e-05,4.888196e-05,9,1
-3.976777e-05,5.179914e-05,9,1
-4.122636e-05,4.596478e-05,9,1
-4.414354e-05,3.624086e-05,9,1
-4.80331e-05,2.862379e-05,9,1
-5.240886e-05,2.797553e-05,9,1
-5.840528e-05,3.283749e-05,9,1
-6.245691e-05,3.93201e-05,9,1
-5.953974e-05,4.758544e-05,9,1
-4.511593e-05,5.423012e-05,9,1
-1.399939e-05,5.763349e-05,9,1
3.154097e-05,5.325772e-05,9,1
7.886404e-05,4.256141e-05,9,1
0.0001137081,3.056858e-05,9,1
0.0001305629,2.441009e-05,9,1
0.000130725,2.846173e-05,9,1
0.0001205148,4.320967e-05,9,1
0.0001065772,6.362991e-05,9,1
9.344993e-05,7.659513e-05,9,1
8.453633e-05,7.562274e-05,9,1
7.853991e-05,6.071273e-05,9,1
7.448828e-05,3.867184e-05,9,1
7.221937e-05,2.052053e-05,9,1
7.043665e-05,1.160693e-05,9,1
7.027458e-05,1.241726e-05,9,1
7.481241e-05,2.230325e-05,9,1
8.858796e-05,3.543054e-05,9,1
0.0001080358,4.807163e-05,9,1
0.0001187321,5.828175e-05,9,1
0.0001083599,6.508849e-05,9,1
7.52986e-05,6.83298e-05,9,1
3.105477e-05,6.865393e-05,9,1
-7.354709e-06,6.654708e-05,9,1
-2.664048e-05,6.281957e-05,9,1
-2.501983e-05,5.844381e-05,9,1
-9.623623e-06,5.455425e-05,9,1
1.112074e-05,5.244739e-05,9,1
3.040651e-05,4.985435e-05,9,1
4.499239e-05,4.110282e-05,9,1
5.56887e-05,2.829966e-05,9,1
6.444023e-05,1.59827e-05,9,1
7.254349e-05,9.824215e-06,9,1
8.080883e-05,1.1769e-05,9,1
8.453633e-05,1.306552e-05,9,1
8.437427e-05,6.420843e-06,9,1
8.064677e-05,-8.489166e-06,9,1
7.57848e-05,-2.566809e-05,9,1
6.573675e-05,-3.830919e-05,9,1
4.612685e-05,-4.446767e-05,9,1
1.64689e-05,-4.495386e-05,9,1
-1.950961e-05,-4.462973e-05,9,1
-5.2733e-05,-4.80331e-05,9,1
-7.898758e-05,-5.565017e-05,9,1
-9.486997e-05,-6.116039e-05,9,1
-0.0001075111,-5.889148e-05,9,1
-0.0001190177,-4.916756e-05,9,1
-0.0001251762,-3.68506e-05,9,1
-0.0001237176,-2.955766e-05,9,1
-0.0001169109,-3.004385e-05,9,1
-0.0001084835,-3.63644e-05,9,1
-0.0001021629,-4.187462e-05,9,1
-0.0001003802,-4.041603e-05,9,1
-0.0001032974,-3.296103e-05,9,1
-0.000104756,-2.291298e-05,9,1
-0.0001002181,-1.173047e-05,9,1
-8.838737e-05,-1.520357e-06,9,1
-6.829127e-05,1.031041e-05,9,1
-4.414354e-05,2.424803e-05,9,1
-2.518189e-05,3.802358e-05,9,1
-1.821308e-05,4.936815e-05,9,1
-2.323711e-05,5.682316e-05,9,1
-2.745081e-05,5.860588e-05,9,1
-1.724069e-05,5.682316e-05,9,1
1.695509e-05,5.244739e-05,9,1
7.691926e-05,4.77475e-05,9,1
0.0001636242,4.256141e-05,9,1
0.0002705873,3.672706e-05,9,1
0.000388733,2.81376e-05,9,1
0.0005012064,1.889987e-05,9,1
0.0005887217,9.500085e-06,9,1
0.0006399344,5.86492e-07,9,1
0.0006503066,-5.734056e-06,9,1
0.0006211348,-8.813297e-06,9,1
0.000562305,-1.043395e-05,9,1
0.000492779,-1.221667e-05,9,1
0.0004339493,-1.691656e-05,9,1
0.0003963501,-2.080613e-05,9,1
0.0003817642,-2.129233e-05,9,1
0.0003819262,-2.177852e-05,9,1
0.0003846814,-2.291298e-05,9,1
0.000378847,-2.242678e-05,9,1
0.0003582647,-1.529591e-05,9,1
0.0003237448,-5.479652e-07,9,1
0.000277232,1.906194e-05,9,1
0.0002240746,3.60788e-05,9,1
0.0001684862,4.709924e-05,9,1
0.0001093323,5.487838e-05,9,1
4.223728e-05,5.99024e-05,9,1
-2.971972e-05,6.168512e-05,9,1
-0.000102325,6.119892e-05,9,1
-0.0001682856,5.504044e-05,9,1
-0.000216581,4.013043e-05,9,1
-0.0002455907,1.9224e-05,9,1
-0.0002593663,-2.238346e-07,9,1
-0.0002682799,-1.383732e-05,9,1
-0.0002809209,-1.99958e-05,9,1
-0.0002997205,-2.031993e-05,9,1
-0.0003287302,-1.756482e-05,9,1
-0.0003674638,-1.367526e-05,9,1
-0.0004083043,-9.461558e-06,9,1
-0.0004343968,-3.627206e-06,9,1
-0.0004366657,1.072688e-06,9,1
-0.0004168937,2.693341e-06,9,1
-0.0003851289,-2.238346e-07,9,1
-0.0003528779,-4.275467e-06,9,1
-0.0003254889,-8.489166e-06,9,1
-0.0003031239,-1.3027e-05,9,1
-0.0002888622,-2.145439e-05,9,1
-0.0002796244,-3.458168e-05,9,1
-0.0002718453,-5.176061e-05,9,1
-0.0002582318,-7.153257e-05,9,1
-0.0002373254,-8.887356e-05,9,1
-0.0002167431,-0.0001029732,9,1
-0.0002008607,-0.0001118868,9,1
-0.0001924333,-0.0001139937,9,1
-0.0001880575,-0.0001075111,9,1
-0.000176875,-9.535618e-05,9,1
-0.0001524032,-7.979791e-05,9,1
-0.0001096179,-6.229485e-05,9,1
-5.370539e-05,-4.511593e-05,9,1
3.989864e-06,-3.069211e-05,9,1
4.645098e-05,-2.064406e-05,9,1
6.265751e-05,-1.173047e-05,9,1
4.807163e-05,-3.465141e-06,9,1
9.824215e-06,3.017472e-06,9,1
-4.187462e-05,6.096713e-06,9,1
-8.806324e-05,3.827799e-06,9,1
-0.0001101041,3.017472e-06,9,1
-9.827335e-05,7.717366e-06,9,1
-5.872941e-05,1.371378e-05,9,1
-8.651231e-06,1.727922e-05,9,1
3.267542e-05,2.116879e-05,9,1
4.434413e-05,2.619281e-05,9,1
1.59827e-05,3.55926e-05,9,1
-4.560212e-05,4.790957e-05,9,1
-0.0001144799,6.022653e-05,9,1
-0.0001601823,7.076078e-05,9,1
-0.0001674752,8.032264e-05,9,1
-0.0001400862,8.972242e-05,9,1
-9.535618e-05,0.0001002567,9,1
-6.051213e-05,0.0001098185,9,1
-5.32192e-05,0.0001192183,9,1
-7.882551e-05,0.0001271595,9,1
-0.0001279313,0.0001305629,9,1
-0.0001844921,0.0001291043,9,1
-0.0002280877,0.0001260251,9,1
-0.0002478596,0.0001221355,9,1
-0.0002441321,0.0001119254,9,1
-0.0002222533,9.490851e-05,9,1
-0.000194216,7.52986e-05,9,1
-0.0001639098,6.006447e-05,9,1
-0.0001316588,5.082674e-05,9,1
-9.519411e-05,4.564065e-05,9,1
-5.64605e-05,3.786152e-05,9,1
-1.594417e-05,2.359977e-05,9,1
2.327564e-05,7.717366e-06,9,1
6.525056e-05,-4.761664e-06,9,1
0.000118408,-1.578211e-05,9,1
0.0001830721,-2.907146e-05,9,1
0.0002503292,-4.365734e-05,9,1
0.0003060797,-6.06742e-05,9,1
0.0003404375,-7.752899e-05,9,1
0.0003509718,-9.308726e-05,9,1
0.0003478926,-0.000104918,9,1
0.0003363859,-0.0001139937,9,1
0.000316938,-0.0001208004,9,1
0.0002934386,-0.0001267968,9,1
0.0002788527,-0.000137007,9,1
0.0002910076,-0.0001536997,9,1
0.00035162,-0.0001689338,9,1
0.0004749518,-0.0001710407,9,1
0.0006511169,-0.0001515928,9,1
0.0008415438,-0.0001110765,9,1
0.0009912923,-5.289507e-05,9,1
0.001057091,1.355172e-05,9,1
0.001021274,7.789165e-05,9,1
0.0008992391,0.000133318,9,1
0.0007263153,0.0001731861,9,1
0.0005431813,0.0001960373,9,1
0.0003749574,0.0002057612,9,1
0.0002271538,0.0002073819,9,1
9.361199e-05,0.0002072198,9,1
-2.680255e-05,0.0002080301,9,1
-0.0001251762,0.0002072198,9,1
-0.0001914609,0.0002060853,9,1
-0.0002193361,0.0002070577,9,1
-0.0002058847,0.0002119197,9,1
-0.0001587237,0.000217754,9,1
-8.903562e-05,0.0002211574,9,1
4.962256e-06,0.0002193747,9,1
0.0001221355,0.0002125679,9,1
0.0002477361,0.0001999268,9,1
0.0003501615,0.0001858272,9,1
0.0004021844,0.0001738343,9,1
0.0003908399,0.0001649207,9,1
0.000324393,0.0001539003,9,1
0.0002209954,0.0001396385,9,1
0.0001065772,0.0001232699,9,1
6.096713e-06,0.0001049566,9,1
-7.299116e-05,8.518459e-05,9,1
-0.0001374932,6.622294e-05,9,1
-0.0001984297,5.212327e-05,9,1
-0.0002588801,4.45062e-05,9,1
-0.0003097686,4.385793e-05,9,1
-0.0003447747,4.758544e-05,9,1
-0.0003660052,5.1475e-05,9,1
-0.0003801049,5.358185e-05,9,1
-0.0003950149,5.406805e-05,9,1
-0.0004165696,5.163707e-05,9,1
-0.0004410415,4.272347e-05,9,1
-0.0004608134,2.959619e-05,9,1
-0.0004659995,1.760335e-05,9,1
-0.0004588687,1.12828e-05,9,1
-0.0004455793,1.112074e-05,9,1
-0.00042759,1.582063e-05,9,1
-0.00039777,2.084466e-05,9,1
-0.0003514194,2.246531e-05,9,1
-0.0002958309,2.197911e-05,9,1
-0.0002459149,2.408596e-05,9,1
-0.0002144742,2.684107e-05,9,1
-0.0002036158,2.846173e-05,9,1
-0.0002084778,2.570662e-05,9,1
-0.0002167431,2.01964e-05,9,1
-0.0002162569,1.533444e-05,9,1
-0.0002000504,1.22552e-05,9,1
-0.0001729855,9.175954e-06,9,1
-0.0001412206,4.47606e-06,9,1
-0.0001131834,-5.085794e-06,9,1
-0.0001002181,-2.258885e-05,9,1
-0.0001018388,-4.560212e-05,9,1
-0.0001136696,-6.537409e-05,9,1
-0.0001284175,-7.704279e-05,9,1
-0.0001386276,-8.060823e-05,9,1
-0.0001404103,-8.02841e-05,9,1
-0.0001340898,-7.671866e-05,9,1
-0.0001190177,-6.893953e-05,9,1
-9.503204e-05,-5.889148e-05,9,1
-6.618442e-05,-4.641245e-05,9,1
-4.495386e-05,-3.26369e-05,9,1
-3.798505e-05,-2.242678e-05,9,1
-4.527799e-05,-2.113026e-05,9,1
-5.710876e-05,-2.615429e-05,9,1
-6.602235e-05,-3.069211e-05,9,1
-6.229485e-05,-2.712668e-05,9,1
-4.527799e-05,-1.578211e-05,9,1
-1.983374e-05,-3.789272e-06,9,1
4.313994e-06,1.072688e-06,9,1
2.084466e-05,-5.57199e-06,9,1
3.899597e-05,-1.918548e-05,9,1
6.800567e-05,-3.150244e-05,9,1
0.000108522,-3.63644e-05,9,1
0.0001496866,-3.425755e-05,9,1
0.0001777239,-2.7937e-05,9,1
0.0001895547,-1.772689e-05,9,1
0.0001910133,-5.57199e-06,9,1
0.0001889064,3.017472e-06,9,1
0.0001832341,1.095867e-05,9,1
0.0001746447,2.327564e-05,9,1
0.0001636242,4.239934e-05,9,1
0.0001564933,6.265751e-05,9,1
0.0001662173,7.562274e-05,9,1
0.0001968476,7.546067e-05,9,1
0.0002388225,6.46023e-05,9,1
0.0002751252,4.839576e-05,9,1
0.000292142,3.397195e-05,9,1
0.0002790148,2.473423e-05,9,1
0.0002362295,2.246531e-05,9,1
0.0001738343,2.100672e-05,9,1
0.0001033359,1.095867e-05,9,1
3.850978e-05,-7.192643e-06,9,1
-1.464765e-05,-2.550602e-05,9,1
-5.743289e-05,-3.992984e-05,9,1
-8.660465e-05,-4.722278e-05,9,1
-9.697683e-05,-5.013995e-05,9,1
-8.287715e-05,-4.965376e-05,9,1
-4.641245e-05,-4.673658e-05,9,1
4.313994e-06,-4.074016e-05,9,1
5.001642e-05,-3.312309e-05,9,1
6.914012e-05,-2.42095e-05,9,1
5.212327e-05,-1.62683e-05,9,1
4.962256e-06,-1.25408e-05,9,1
-5.386745e-05,-1.934754e-05,9,1
-0.0001092938,-3.814712e-05,9,1
-0.0001564548,-6.164659e-05,9,1
-0.0001935677,-8.239095e-05,9,1
-0.0002178775,-9.551824e-05,9,1
-0.0002274394,-0.0001039456,9,1
-0.0002251705,-0.0001118868,9,1
-0.0002110708,-0.0001208004,9,1
-0.0001859507,-0.0001318209,9,1
-0.0001530514,-0.0001430034,9,1
-0.0001149661,-0.0001538618,9,1
-6.861539e-05,-0.0001621271,9,1
-1.20546e-05,-0.0001642339,9,1
5.066468e-05,-0.0001590478,9,1
0.0001073875,-0.0001464067,9,1
0.0001410971,-0.0001285796,9,1
0.0001438522,-0.00010978,9,1
0.0001245665,-9.276313e-05,9,1
0.0001015532,-7.801519e-05,9,1
8.826383e-05,-6.48879e-05,9,1
8.939829e-05,-5.127441e-05,9,1
9.960841e-05,-3.701266e-05,9,1
0.0001091703,-2.307504e-05,9,1
0.0001169494,-1.108221e-05,9,1
0.0001292664,-3.951337e-06,9,1
0.0001543865,-4.113403e-06,9,1
0.0001942546,-1.124428e-05,9,1
0.0002415777,-2.339918e-05,9,1
0.0002864697,-3.604027e-05,9,1
0.0003195311,-4.592625e-05,9,1
0.0003324963,-5.451572e-05,9,1
0.0003203414,-6.002594e-05,9,1
0.0002856594,-5.937768e-05,9,1
0.0002381743,-4.770897e-05,9,1
0.0001921477,-2.615429e-05,9,1
0.0001564933,-2.238346e-07,9,1
0.0001286181,2.505836e-05,9,1
0.0001057669,4.758544e-05,9,1
8.486046e-05,6.622294e-05,9,1
6.78436e-05,8.080883e-05,9,1
5.666109e-05,8.988449e-05,9,1
5.179914e-05,9.426025e-05,9,1
4.693717e-05,9.68533e-05,9,1
4.110282e-05,0.0001026876,9,1
3.818565e-05,0.0001166253,9,1
3.737532e-05,0.0001347766,9,1
3.218923e-05,0.0001548727,9,1
2.149292e-05,0.0001726999,9,1
7.555301e-06,0.0001863134,9,1
-1.027188e-05,0.0001974959,9,1
-2.923353e-05,0.0002062474,9,1
-4.576419e-05,0.0002140265,9,1
-5.937768e-05,0.0002205092,9,1
-6.877746e-05,0.0002265056,9,1
-7.639453e-05,0.0002308813,9,1
-8.692878e-05,0.0002313675,9,1
-9.843541e-05,0.000227478,9,1
-0.0001099421,0.0002209954,9,1
-0.0001173971,0.0002106232,9,1
-0.0001229073,0.0001947408,9,1
-0.000132145,0.0001743205,9,1
-0.000149486,0.0001524417,9,1
-0.000176713,0.0001292664,9,1
