EMG1,EMG2,class,user
-8.773911e-05,-0.000578959,7,1
-7.623246e-05,-0.0006269303,7,1
-4.47918e-05,-0.0006716604,7,1
-1.578211e-05,-0.000708125,7,1
-8.165035e-06,-0.000730328,7,1
-3.004385e-05,-0.0007364865,7,1
-7.623246e-05,-0.0007296797,7,1
-0.0001259865,-0.0007116905,7,1
-0.0001582375,-0.0006870566,7,1
-0.0001564548,-0.0006612882,7,1
-0.0001233935,-0.0006420024,7,1
-8.465986e-05,-0.0006350336,7,1
-6.829127e-05,-0.0006455678,7,1
-8.773911e-05,-0.0006685811,7,1
-0.0001298761,-0.0006948357,7,1
-0.0001658546,-0.0007144455,7,1
-0.0001702304,-0.0007157421,7,1
-0.0001324691,-0.0006852738,7,1
-6.586029e-05,-0.0006175305,7,1
1.558884e-06,-0.0005126743,7,1
4.207521e-05,-0.000367788,7,1
4.596478e-05,-0.0001794681,7,1
2.246531e-05,4.953022e-05,7,1
-9.299493e-06,0.0003115899,7,1
-3.020592e-05,0.0005982835,7,1
-3.539201e-05,0.0009006977,7,1
-2.323711e-05,0.001210567,7,1
1.193106e-05,0.001512981,7,1
6.687121e-05,0.001777635,7,1
0.0001257009,0.001961417,7,1
0.0001691344,0.00202203,7,1
0.0001858272,0.001936945,7,1
0.0001822617,0.001715564,7,1
0.0001675138,0.001397429,7,1
0.0001480659,0.001039264,7,1
0.000120839,0.0007050846,7,1
7.918817e-05,0.0004378388,7,1
2.181705e-05,0.0002521119,7,1
-4.284701e-05,0.0001329939,7,1
-9.454585e-05,5.293359e-05,7,1
-9.989401e-05,-8.975362e-06,7,1
-2.664048e-05,-6.035007e-05,7,1
0.0001229458,-9.584238e-05,7,1
0.0003023522,-0.0001105903,7,1
0.0004422146,-9.649064e-05,7,1
0.0004950479,-5.030202e-05,7,1
0.0004585832,1.663096e-05,7,1
0.0003718782,7.853991e-05,7,1
0.0002869559,0.000113384,7,1
0.0002355812,0.0001090082,7,1
0.0002169437,7.221937e-05,7,1
0.000207706,1.987227e-05,7,1
0.0001880961,-2.534396e-05,7,1
0.0001470936,-4.090223e-05,7,1
8.956036e-05,-1.772689e-05,7,1
3.299956e-05,3.170304e-05,7,1
-5.57199e-06,7.999851e-05,7,1
-2.080613e-05,0.000101067,7,1
-1.724069e-05,7.983644e-05,7,1
-8.165035e-06,2.116879e-05,7,1
-1.844488e-06,-5.451572e-05,7,1
-5.409925e-06,-0.0001203142,7,1
-1.367526e-05,-0.0001618029,7,1
-2.129233e-05,-0.0001788198,7,1
-2.226472e-05,-0.0001775233,7,1
-1.902341e-05,-0.0001705545,7,1
-2.550602e-05,-0.0001729855,7,1
-6.197072e-05,-0.0001924333,7,1
-0.0001387897,-0.0002258187,7,1
-0.0002467252,-0.0002684419,7,1
-0.0003671397,-0.0003172236,7,1
-0.0004692408,-0.0003698948,7,1
-0.0005240189,-0.0004228902,7,1
-0.0005029504,-0.0004724821,7,1
-0.0003773498,-0.0005104054,7,1
-0.0001543479,-0.0005280706,7,1
0.0001043083,-0.0005249913,7,1
0.0003149933,-0.0005039228,7,1
0.0004093153,-0.0004689167,7,1
0.0003658818,-0.0004305072,7,1
0.0002109473,-0.0004084663,7,1
2.207145e-06,-0.000419973,7,1
-0.0001906506,-0.0004682684,7,1
-0.0003138202,-0.0005462218,7,1
-0.0003488263,-0.0006405439,7,1
-0.0003102548,-0.0007316245,7,1
-0.0002331117,-0.0008040677,7,1
-0.0001603444,-0.0008507425,7,1
-0.0001235555,-0.0008680834,7,1
-0.0001267968,-0.0008604664,7,1
-0.0001481895,-0.0008364808,7,1
-0.0001553203,-0.0008003402,7,1
-0.0001175591,-0.0007450759,7,1
-2.745081e-05,-0.0006564262,7,1
9.442231e-05,-0.0005259637,7,1
0.0002096508,-0.0003595226,7,1
0.0002749631,-0.0001712027,7,1
0.0002613496,3.688912e-05,7,1
0.0001735102,0.0002773941,7,1
4.904402e-05,0.0005626292,7,1
-6.715681e-05,0.0008830326,7,1
-0.000142031,0.001202302,7,1
-0.000161965,0.001458365,7,1
-0.0001255003,0.001588504,7,1
-3.911951e-05,0.001558846,7,1
8.080883e-05,0.001377981,7,1
0.000200413,0.001096311,7,1
0.0002856594,0.0007857933,7,1
0.0003200173,0.00051012,7,1
0.0003046211,0.0003026763,7,1
0.0002496809,0.0001618415,7,1
0.0001678379,6.735741e-05,7,1
8.178122e-05,-4.113403e-06,7,1
1.484824e-05,-6.456377e-05,7,1
-1.788895e-05,-0.0001165867,7,1
-1.351319e-05,-0.0001606685,7,1
2.424803e-05,-0.0002008607,7,1
8.194328e-05,-0.000238784,7,1
0.0001396385,-0.0002703867,7,1
0.0001791825,-0.0002956689,7,1
0.0001996027,-0.0003121996,7,1
0.0002075439,-0.0003162512,7,1
0.0002135403,-0.0003023136,7,1
0.000220023,-0.000266173,7,1
0.0002219677,-0.0002073433,7,1
0.0002065715,-0.0001324691,7,1
0.0001686482,-5.386745e-05,7,1
0.000113546,1.727922e-05,7,1
5.066468e-05,8.534666e-05,7,1
-1.173047e-05,0.0001626518,7,1
-6.39155e-05,0.0002514636,7,1
-0.0001002181,0.0003383307,7,1
-0.0001225832,0.0004004017,7,1
-0.0001404103,0.0004232529,7,1
-0.0001587237,0.0004013741,7,1
-0.0001708786,0.0003380065,7,1
-0.0001746061,0.0002453052,7,1
-0.0001707166,0.0001470936,7,1
-0.0001690959,6.314371e-05,7,1
-0.0001739578,7.717366e-06,7,1
-0.000174282,-1.399939e-05,7,1
-0.0001580754,-7.840905e-06,7,1
-0.0001258245,1.954813e-05,7,1
-8.919769e-05,6.298164e-05,7,1
-5.419158e-05,0.000115977,7,1
-8.813297e-06,0.000173024,7,1
6.233338e-05,0.0002303951,7,1
0.0001493625,0.0002859836,7,1
0.0002148369,0.0003308757,7,1
0.000225047,0.000351458,7,1
0.0001722137,0.0003357376,7,1
7.983644e-05,0.0002840388,7,1
-1.513384e-05,0.0002054371,7,1
-7.914964e-05,0.0001143563,7,1
-0.0001034594,2.052053e-05,7,1
-0.0001062146,-6.877746e-05,7,1
-0.0001112386,-0.0001515928,7,1
-0.0001339277,-0.0002250084,7,1
-0.0001818991,-0.0002833519,7,1
-0.0002598524,-0.0003196545,7,1
-0.0003617915,-0.0003339163,7,1
-0.0004687546,-0.0003335922,7,1
-0.0005460597,-0.0003288923,7,1
-0.0005595111,-0.0003245165,7,1
-0.0005005194,-0.0003170615,7,1
-0.0003909633,-0.0003050687,7,1
-0.0002645523,-0.000290969,7,1
-0.0001407345,-0.0002814071,7,1
-1.643037e-05,-0.0002797865,7,1
0.0001140322,-0.0002856209,7,1
0.0002440086,-0.0002958309,7,1
0.0003433547,-0.0003063652,7,1
0.0003773884,-0.0003224097,7,1
0.0003277964,-0.0003454229,7,1
0.0002088404,-0.0003711913,7,1
5.957827e-05,-0.0003888564,7,1
-7.33153e-05,-0.0003909633,7,1
-0.0001431655,-0.0003721637,7,1
-0.0001302002,-0.0003324577,7,1
-5.856735e-05,-0.0002749245,7,1
2.01964e-05,-0.0002053985,7,1
6.071273e-05,-0.0001251762,7,1
4.807163e-05,-3.344723e-05,7,1
-5.085794e-06,6.914012e-05,7,1
-7.363943e-05,0.0001720516,7,1
-0.0001290658,0.0002527602,7,1
-0.0001394379,0.0002973281,7,1
-7.995997e-05,0.0003034866,7,1
4.758544e-05,0.0002757735,7,1
0.0002034923,0.0002271538,7,1
0.0003286068,0.0001736723,7,1
0.0003777126,0.0001347766,7,1
0.0003440029,0.0001239182,7,1
0.0002556773,0.0001454729,7,1
0.0001600588,0.0001940925,7,1
0.0001030118,0.0002561635,7,1
0.0001098185,0.0003158036,7,1
0.0001746447,0.000363937,7,1
0.0002715597,0.000396188,7,1
0.0003655576,0.0004088291,7,1
0.0004229288,0.0003987811,7,1
0.0004143393,0.0003675024,7,1
0.0003328204,0.0003159656,7,1
0.0001914995,0.0002488706,7,1
2.522042e-05,0.0001767515,7,1
-0.0001342519,0.0001114392,7,1
-0.000271035,5.601284e-05,7,1
-0.0003771877,5.286387e-06,7,1
-0.0004437966,-4.706071e-05,7,1
-0.0004530343,-0.0001039456,7,1
-0.0003810773,-0.000159372,7,1
-0.0002251705,-0.0001994021,7,1
-2.437157e-05,-0.0002147983,7,1
0.0001524417,-0.0002100984,7,1
0.0002466017,-0.0001994021,7,1
0.0002407673,-0.0001950263,7,1
0.0001598967,-0.000204102,7,1
5.52025e-05,-0.0002246843,7,1
-2.647842e-05,-0.0002532078,7,1
-7.088431e-05,-0.0002812451,7,1
-9.017008e-05,-0.0003045825,7,1
-9.956988e-05,-0.0003167374,7,1
-0.0001020008,-0.0003110651,7,1
-9.260107e-05,-0.0002843243,7,1
-6.586029e-05,-0.0002344082,7,1
-2.113026e-05,-0.000159534,7,1
3.899597e-05,-5.629844e-05,7,1
0.0001046324,8.129502e-05,7,1
0.0001569795,0.0002509774,7,1
0.00018291,0.0004427008,7,1
0.0001756171,0.0006443101,7,1
0.0001362352,0.0008400852,7,1
7.513654e-05,0.001021274,7,1
6.90704e-06,0.001180099,7,1
-5.305713e-05,0.001303431,7,1
-8.644259e-05,0.001366636,7,1
-8.692878e-05,0.001343785,7,1
-6.083626e-05,0.001223694,7,1
-2.566809e-05,0.001017547,7,1
1.883015e-06,0.0007634282,7,1
1.355172e-05,0.0005088235,7,1
8.041497e-06,0.0002913317,7,1
-9.461558e-06,0.0001214872,7,1
-3.717473e-05,-5.734056e-06,7,1
-7.153257e-05,-9.956988e-05,7,1
-0.000107349,-0.0001671511,7,1
-0.0001387897,-0.0002170672,7,1
-0.000156941,-0.0002556388,7,1
-0.0001524032,-0.0002841623,7,1
-0.0001332795,-0.0003039342,7,1
-0.0001099421,-0.0003186821,7,1
-9.049421e-05,-0.0003316474,7,1
-8.012204e-05,-0.0003472056,7,1
-7.979791e-05,-0.0003664914,7,1
-8.968389e-05,-0.0003872358,7,1
-0.0001010285,-0.0004081422,7,1
-0.0001101041,-0.0004248349,7,1
-0.0001216107,-0.0004356933,7,1
-0.0001434896,-0.0004407173,7,1
-0.0001700683,-0.0004418518,7,1
-0.0001856265,-0.0004421759,7,1
-0.0001809267,-0.0004421759,7,1
-0.0001603444,-0.0004420138,7,1
-0.000127283,-0.0004420138,7,1
-8.239095e-05,-0.0004426621,7,1
-2.0482e-05,-0.0004452552,7,1
6.152305e-05,-0.0004465517,7,1
0.0001508211,-0.0004455793,7,1
0.0002216436,-0.0004390967,7,1
0.0002555152,-0.0004282383,7,1
0.0002457913,-0.0004168937,7,1
0.0001940925,-0.000402632,7,1
0.0001080358,-0.000382698,7,1
1.144487e-05,-0.0003551469,7,1
-5.808115e-05,-0.0003188442,7,1
-7.120844e-05,-0.0002750866,7,1
-2.664048e-05,-0.0002220912,7,1
5.19612e-05,-0.0001613168,7,1
0.0001414213,-9.827335e-05,7,1
0.0002260194,-3.668853e-05,7,1
0.0003059176,2.34377e-05,7,1
0.0003819262,8.583286e-05,7,1
0.0004401077,0.0001508211,7,1
0.0004538833,0.0002162954,7,1
0.0004088291,0.0002765838,7,1
0.0003219621,0.0003196932,7,1
0.0002302331,0.0003342791,7,1
0.0001654069,0.0003174242,7,1
0.0001370455,0.0002773941,7,1
0.000128456,0.0002303951,7,1
0.0001143563,0.0001867996,7,1
7.57848e-05,0.0001584381,7,1
1.193106e-05,0.0001590864,7,1
-6.81292e-05,0.0001914995,7,1
-0.0001486757,0.0002428742,7,1
-0.0002160948,0.0002885766,7,1
-0.0002630937,0.0003081865,7,1
-0.0002870794,0.0003025142,7,1
-0.0002908069,0.0002790148,7,1
-0.0002747625,0.0002440086,7,1
-0.0002434839,0.0002008992,7,1
-0.0002120432,0.0001504969,7,1
-0.0001985918,8.907416e-05,7,1
-0.0002104225,1.501031e-05,7,1
-0.0002392702,-6.521203e-05,7,1
-0.0002629317,-0.0001410586,7,1
-0.0002640662,-0.0002034537,7,1
-0.0002292221,-0.0002454286,7,1
-0.000144462,-0.0002682799,7,1
-3.465141e-06,-0.000276059,7,1
0.0001717275,-0.0002720074,7,1
0.0003346032,-0.0002626076,7,1
0.0004298976,-0.0002579077,7,1
0.0004245494,-0.0002653627,7,1
0.0003239069,-0.0002891863,7,1
0.0001671896,-0.0003246786,7,1
8.851824e-06,-0.0003666535,7,1
-0.0001015147,-0.000402632,7,1
-0.0001426792,-0.0004217557,7,1
-0.0001259865,-0.0004178661,7,1
-8.44978e-05,-0.0003880461,7,1
-5.402952e-05,-0.0003347266,7,1
-5.435365e-05,-0.000261311,7,1
-9.017008e-05,-0.0001750923,7,1
-0.0001405724,-8.579432e-05,7,1
-0.0001621271,-8.720959e-07,7,1
-0.0001235555,7.30297e-05,7,1
-5.467778e-05,0.0001331559,7,1
-1.562004e-05,0.0001816135,7,1
-4.187462e-05,0.0002167816,7,1
-0.0001143178,0.0002363916,7,1
-0.0001778474,0.0002419018,7,1
-0.0001919471,0.0002380122,7,1
-0.0001600202,0.0002321778,7,1
-0.0001141558,0.0002237505,7,1
-7.995997e-05,0.000207706,7,1
-5.824322e-05,0.0001808031,7,1
-3.101625e-05,0.0001490383,7,1
1.582063e-05,0.0001261871,7,1
7.400208e-05,0.000128456,7,1
0.0001137081,0.000160545,7,1
0.0001073875,0.0002143507,7,1
5.957827e-05,0.000274639,7,1
2.207145e-06,0.0003263378,7,1
-3.360929e-05,0.0003631267,7,1
-4.138842e-05,0.0003827366,7,1
-3.328516e-05,0.0003900295,7,1
-2.145439e-05,0.0003929467,7,1
-5.734056e-06,0.0003982949,7,1
2.522042e-05,0.0004023465,7,1
7.789165e-05,0.0003922984,7,1
0.00015309,0.0003589129,7,1
0.0002401191,0.0003033245,7,1
0.0003245551,0.0002359054,7,1
0.0003877606,0.0001688103,7,1
0.0004088291,0.0001143563,7,1
0.0003877606,7.951231e-05,7,1
0.0003495132,6.719535e-05,7,1
0.0003328204,7.173317e-05,7,1
0.0003537269,8.210535e-05,7,1
0.0003854917,8.712937e-05,7,1
0.0003905157,7.967438e-05,7,1
0.0003521062,6.055066e-05,7,1
0.0002738286,3.316162e-05,7,1
0.0001746447,6.258778e-06,7,1
8.275361e-05,-1.869928e-05,7,1
2.684107e-05,-3.749886e-05,7,1
1.614476e-05,-5.435365e-05,7,1
3.413401e-05,-7.526008e-05,7,1
5.034055e-05,-9.746302e-05,7,1
4.645098e-05,-0.0001130213,7,1
2.667901e-05,-0.0001185315,7,1
-1.844488e-06,-0.0001161005,7,1
-3.490581e-05,-0.0001135075,7,1
-7.785312e-05,-0.0001162626,7,1
-0.0001269589,-0.0001242038,7,1
-0.0001660166,-0.0001349001,7,1
-0.0001828714,-0.0001386276,7,1
-0.0001757406,-0.0001261486,7,1
-0.0001564548,-0.0001013526,7,1
-0.0001475412,-7.995997e-05,7,1
-0.0001715269,-8.125649e-05,7,1
-0.0002327876,-0.0001146419,7,1
-0.0003139823,-0.0001804405,7,1
-0.00038286,-0.000271035,7,1
-0.0004047388,-0.0003710293,7,1
-0.000355633,-0.0004635685,7,1
-0.0002483458,-0.0005371462,7,1
-0.0001292278,-0.0005797693,7,1
-5.046408e-05,-0.0005831727,7,1
-4.106429e-05,-0.0005496252,7,1
-9.227693e-05,-0.0004958195,7,1
-0.0001755785,-0.0004454172,7,1
-0.0002605007,-0.0004091146,7,1
-0.0003165753,-0.0003844807,7,1
-0.0003219235,-0.0003648708,7,1
-0.0002757348,-0.0003438023,7,1
-0.0001979435,-0.0003136581,7,1
-0.0001164247,-0.0002724935,7,1
-5.370539e-05,-0.0002203085,7,1
-2.258885e-05,-0.0001629374,7,1
-3.360929e-05,-0.0001050801,7,1
-8.903562e-05,-4.462973e-05,7,1
-0.0001783336,2.781346e-05,7,1
-0.000278652,0.0001151667,7,1
-0.0003572537,0.0002115956,7,1
-0.0003869116,0.0003219621,7,1
-0.0003583881,0.0004649037,7,1
-0.0002716832,0.0006571133,7,1
-0.0001344139,0.0009003736,7,1
3.445814e-05,0.001156599,7,1
0.0002078681,0.001359505,7,1
0.0003593992,0.001441348,7,1
0.000477869,0.001369715,7,1
0.0005535535,0.001156113,7,1
0.0005731634,0.0008511057,7,1
0.00052503,0.0005213025,7,1
0.0004141773,0.0002243987,7,1
0.0002725321,-3.465141e-06,7,1
0.0001477418,-0.0001532135,7,1
7.335383e-05,-0.0002373254,7,1
5.811968e-05,-0.0002742763,7,1
8.453633e-05,-0.0002818933,7,1
0.0001250527,-0.0002703867,7,1
0.0001579519,-0.0002473734,7,1
0.0001752929,-0.0002254946,7,1
0.0001723757,-0.0002126914,7,1
0.0001537382,-0.0002102605,7,1
0.0001355869,-0.0002128535,7,1
0.0001265113,-0.0002113949,7,1
0.0001250527,-0.0002019951,7,1
0.0001261871,-0.0001864369,7,1
0.000125863,-0.0001666649,7,1
0.0001226217,-0.0001439758,7,1
0.0001124116,-0.0001190177,7,1
9.231547e-05,-8.514606e-05,7,1
6.217132e-05,-3.425755e-05,7,1
2.651694e-05,3.818565e-05,7,1
-9.785688e-06,0.000128294,7,1
-4.47918e-05,0.0002206712,7,1
-8.336335e-05,0.0003013798,7,1
-0.0001295519,0.0003511338,7,1
-0.0001728234,0.0003530786,7,1
-0.0001943781,0.0003030004,7,1
-0.0001660166,0.0002125679,7,1
-7.412562e-05,0.0001056048,7,1
6.962632e-05,5.610517e-06,7,1
0.0002211574,-6.456377e-05,7,1
0.0003300653,-9.276313e-05,7,1
0.000363937,-8.417367e-05,7,1
0.0003177483,-5.662256e-05,7,1
0.0002106232,-2.728874e-05,7,1
7.756752e-05,-8.975362e-06,7,1
-5.937768e-05,-6.706447e-06,7,1
-0.0001909747,-1.448558e-05,7,1
-0.0003123616,-2.599222e-05,7,1
-0.0004123559,-3.668853e-05,7,1
-0.0004687546,-4.268495e-05,7,1
-0.0004609755,-4.349527e-05,7,1
-0.0003839945,-3.879538e-05,7,1
-0.0002545043,-3.053005e-05,7,1
-0.0001052422,-1.529591e-05,7,1
4.094075e-05,9.66215e-06,7,1
0.0001871237,4.547859e-05,7,1
0.0003289309,9.21534e-05,7,1
0.000426008,0.0001402868,7,1
0.0004303838,0.0001718896,7,1
0.0003313618,0.0001697827,7,1
0.0001650828,0.0001286181,7,1
-5.57199e-06,5.504044e-05,7,1
-0.0001248521,-3.247483e-05,7,1
-0.0001713648,-0.0001157764,7,1
-0.0001554824,-0.0001862748,7,1
-9.924574e-05,-0.0002402425,7,1
-3.198864e-05,-0.0002771934,7,1
2.570662e-05,-0.0002989102,7,1
6.41161e-05,-0.0003094444,7,1
7.52986e-05,-0.0003175477,7,1
5.876794e-05,-0.0003322956,7,1
2.651694e-05,-0.0003557951,7,1
-6.706447e-06,-0.0003833462,7,1
-3.053005e-05,-0.000405225,7,1
-4.47918e-05,-0.0004159214,7,1
-4.770897e-05,-0.0004215936,7,1
-4.187462e-05,-0.00042759,7,1
-3.539201e-05,-0.000437314,7,1
-3.490581e-05,-0.0004501171,7,1
-4.770897e-05,-0.0004624341,7,1
-7.380149e-05,-0.0004664857,7,1
-0.0001099421,-0.0004593548,7,1
-0.0001535376,-0.0004355313,7,1
-0.0001994021,-0.0003950149,7,1
-0.0002405667,-0.0003399127,7,1
-0.0002635799,-0.0002752487,7,1
-0.000258718,-0.0002109087,7,1
-0.0002222533,-0.0001541859,7,1
-0.000156941,-0.0001052422,7,1
-7.574627e-05,-5.629844e-05,7,1
2.369211e-06,-3.14101e-06,7,1
5.1475e-05,4.839576e-05,7,1
5.066468e-05,8.875003e-05,7,1
-3.951337e-06,0.0001081979,7,1
-9.308726e-05,0.0001018773,7,1
-0.0001823853,7.043665e-05,7,1
-0.0002428356,2.197911e-05,7,1
-0.0002546664,-3.004385e-05,7,1
-0.0002143121,-6.877746e-05,7,1
-0.0001412206,-8.887356e-05,7,1
-6.634648e-05,-8.82253e-05,7,1
-2.242678e-05,-7.088431e-05,7,1
-2.615429e-05,-3.847125e-05,7,1
-6.310517e-05,5.124321e-06,7,1
-9.486997e-05,5.325772e-05,7,1
-8.547019e-05,9.490851e-05,7,1
-2.647842e-05,0.000128456,7,1
6.184718e-05,0.0001579519,7,1
0.0001496866,0.0001897167,7,1
0.0002065715,0.0002253711,7,1
0.000217754,0.0002613496,7,1
0.0001845306,0.000294573,7,1
0.000123432,0.0003248792,7,1
5.763349e-05,0.0003506476,7,1
9.338019e-06,0.0003670162,7,1
-5.57199e-06,0.0003736609,7,1
2.133085e-05,0.000373823,7,1
7.951231e-05,0.0003710679,7,1
0.0001462832,0.0003731747,7,1
0.0002023578,0.000383709,7,1
0.0002427121,0.0003968363,7,1
0.0002728562,0.0004004017,7,1
0.0002905214,0.0003882468,7,1
0.0002876042,0.0003642611,7,1
0.0002626462,0.0003342791,7,1
0.0002213195,0.0003059176,7,1
0.0001726999,0.000282256,7,1
0.0001240803,0.0002629703,7,1
8.372601e-05,0.0002422259,7,1
6.071273e-05,0.0002187264,7,1
6.492643e-05,0.0001950649,7,1
9.296373e-05,0.0001761032,7,1
0.0001193804,0.0001650828,7,1
0.0001122495,0.0001602208,7,1
5.795762e-05,0.0001550348,7,1
-3.231277e-05,0.0001440143,7,1
-0.0001319829,0.0001271595,7,1
-0.0002146363,0.0001086841,7,1
-0.0002655248,9.26396e-05,7,1
-0.0002874036,8.04847e-05,7,1
-0.0002896725,6.962632e-05,7,1
-0.000278652,6.055066e-05,7,1
-0.0002545043,5.682316e-05,7,1
-0.0002109087,5.844381e-05,7,1
-0.000144462,6.071273e-05,7,1
-6.116039e-05,5.682316e-05,7,1
2.505836e-05,4.239934e-05,7,1
9.020862e-05,2.100672e-05,7,1
0.0001151667,4.244267e-07,7,1
9.896015e-05,-1.886135e-05,7,1
5.406805e-05,-3.782299e-05,7,1
-1.520357e-06,-5.305713e-05,7,1
-5.402952e-05,-6.132246e-05,7,1
-9.049421e-05,-6.245691e-05,7,1
-0.0001013526,-6.261898e-05,7,1
-8.628052e-05,-6.926366e-05,7,1
-5.937768e-05,-8.417367e-05,7,1
-4.025397e-05,-0.0001067007,7,1
-3.944364e-05,-0.0001350622,7,1
-5.483985e-05,-0.0001652063,7,1
-7.60704e-05,-0.0001922712,7,1
-9.438378e-05,-0.0002120432,7,1
-0.0001026491,-0.0002194982,7,1
-9.535618e-05,-0.00021415,7,1
-7.590833e-05,-0.000201509,7,1
-5.451572e-05,-0.0001906506,7,1
-4.171256e-05,-0.0001862748,7,1
-3.944364e-05,-0.0001877334,7,1
-3.766092e-05,-0.0001904885,7,1
-2.971972e-05,-0.0001878955,7,1
-1.367526e-05,-0.0001827094,7,1
7.879432e-06,-0.0001812508,7,1
2.651694e-05,-0.0001878955,7,1
3.753739e-05,-0.0002031296,7,1
4.272347e-05,-0.0002230636,7,1
5.374392e-05,-0.0002444563,7,1
8.79397e-05,-0.0002652006,7,1
0.0001469315,-0.0002840002,7,1
0.0002072198,-0.0002982619,7,1
0.0002456293,-0.0003099306,7,1
0.0002590807,-0.0003199787,7,1
0.0002688046,-0.0003259751,7,1
0.000294573,-0.0003251648,7,1
0.0003240689,-0.000310903,7,1
0.0003321722,-0.0002773555,7,1
0.0003047831,-0.0002261429,7,1
0.0002491947,-0.0001652063,7,1
0.0001840444,-0.0001052422,7,1
0.0001287802,-5.840528e-05,7,1
9.928428e-05,-3.522994e-05,7,1
0.0001018773,-3.68506e-05,7,1
0.0001229458,-5.548811e-05,7,1
0.0001310491,-7.493595e-05,7,1
9.847395e-05,-8.012204e-05,7,1
1.889987e-05,-6.326724e-05,7,1
-9.081835e-05,-2.015787e-05,7,1
-0.0002042641,5.390598e-05,7,1
-0.0002982619,0.0001553589,7,1
-0.0003553089,0.0002777182,7,1
-0.0003559572,0.0004098015,7,1
-0.0002870794,0.000537347,7,1
-0.0001481895,0.0006525755,7,1
3.964424e-05,0.0007551629,7,1
0.0002501671,0.0008511057,7,1
0.000453235,0.0009520725,7,1
0.0006013628,0.001056767,7,1
0.0006444722,0.001146065,7,1
0.0005605224,0.00118804,7,1
0.0003798194,0.001164054,7,1
0.0001667035,0.001072649,7,1
-1.092015e-05,0.0009292212,7,1
-0.0001143178,0.0007569456,7,1
-0.0001430034,0.0005804563,7,1
-0.0001178833,0.0004195254,7,1
-6.083626e-05,0.0002858215,7,1
8.365628e-06,0.0001749688,7,1
6.622294e-05,7.497447e-05,7,1
8.74535e-05,-2.745081e-05,7,1
5.471631e-05,-0.0001365208,7,1
-1.983374e-05,-0.0002428356,7,1
-0.0001021629,-0.0003353749,7,1
-0.0001598582,-0.0004074939,7,1
-0.0001796301,-0.0004608134,7,1
-0.0001746061,-0.0005016539,7,1
-0.0001699062,-0.0005340669,7,1
-0.0001937298,-0.0005554595,7,1
-0.000256287,-0.0005625904,7,1
-0.0003379679,-0.0005530285,7,1
-0.0004029561,-0.0005311498,7,1
-0.0004245108,-0.0004998712,7,1
-0.0003985804,-0.0004591928,7,1
-0.0003374817,-0.0004107352,7,1
-0.0002650386,-0.0003585502,7,1
-0.0002128535,-0.0003029619,7,1
-0.0002159328,-0.0002391081,7,1
-0.0002836761,-0.0001571031,7,1
-0.0003898288,-5.22468e-05,7,1
-0.0004865818,7.270556e-05,7,1
-0.0005240189,0.0002143507,7,1
-0.0004677822,0.0003692851,7,1
-0.00030831,0.0005307022,7,1
-6.294311e-05,0.0006870955,7,1
0.0002205092,0.0008105893,7,1
0.0004707381,0.0008634226,7,1
0.0006329655,0.0008152892,7,1
0.0006866092,0.0006627856,7,1
0.0006449584,0.00043087,7,1
0.0005392918,0.0001673517,7,1
0.0003989431,-7.995997e-05,7,1
0.0002496809,-0.0002765452,7,1
0.0001077117,-0.0004084663,7,1
-1.934754e-05,-0.0004825302,7,1
-0.0001230693,-0.0005209396,7,1
-0.0001874093,-0.0005386047,7,1
-0.0001940539,-0.000546546,7,1
-0.0001426792,-0.0005475183,7,1
-4.689865e-05,-0.0005475183,7,1
6.395404e-05,-0.0005543251,7,1
0.0001586002,-0.0005744212,7,1
0.0002196988,-0.0006024585,7,1
0.0002417397,-0.0006296854,7,1
0.0002273159,-0.0006491333,7,1
0.0001817755,-0.0006625847,7,1
0.000113384,-0.0006703638,7,1
3.672706e-05,-0.0006710121,7,1
-3.020592e-05,-0.0006619364,7,1
-6.974985e-05,-0.0006403818,7,1
-7.169464e-05,-0.0006026206,7,1
-3.733679e-05,-0.0005486528,7,1
1.938607e-05,-0.0004792889,7,1
7.643307e-05,-0.0004008493,7,1
0.000110953,-0.0003203028,7,1
0.0001124116,-0.0002441321,7,1
8.550872e-05,-0.0001754164,7,1
4.985435e-05,-0.0001206384,7,1
1.744129e-05,-8.303922e-05,7,1
-1.464765e-05,-6.245691e-05,7,1
-5.354332e-05,-5.22468e-05,7,1
-0.0001041077,-3.733679e-05,7,1
-0.0001614788,1.558884e-06,7,1
-0.0002086398,8.178122e-05,7,1
-0.0002258187,0.0002060853,7,1
-0.0002034537,0.0003642611,7,1
-0.0001525652,0.0005344298,7,1
-8.854943e-05,0.0006922815,7,1
-1.934754e-05,0.0008177201,7,1
5.017848e-05,0.0008937289,7,1
0.0001051186,0.0009105837,7,1
0.000121001,0.0008665019,7,1
7.465034e-05,0.0007738004,7,1
-3.976777e-05,0.0006517651,7,1
-0.0002032917,0.0005195198,7,1
-0.0003757291,0.0003934329,7,1
-0.0005139708,0.0002775562,7,1
-0.0005834968,0.0001696206,7,1
-0.0005744212,6.768154e-05,7,1
-0.0004865818,-2.161646e-05,7,1
-0.000318196,-8.984595e-05,7,1
-7.542214e-05,-0.0001323071,7,1
0.0002046267,-0.0001536997,7,1
0.0004525868,-0.0001580754,7,1
0.0005955285,-0.0001439758,7,1
0.0006005525,-0.0001081593,7,1
0.0004895377,-5.159854e-05,7,1
0.0003174242,1.322759e-05,7,1
0.0001423936,7.286763e-05,7,1
2.369211e-06,0.0001137081,7,1
-8.190475e-05,0.0001328318,7,1
-0.0001125351,0.0001320215,7,1
-0.0001024871,0.0001174356,7,1
-7.201877e-05,8.858796e-05,7,1
-4.268495e-05,3.510641e-05,7,1
-2.242678e-05,-5.402952e-05,7,1
-3.951337e-06,-0.0001720131,7,1
2.278944e-05,-0.0002979378,7,1
6.006447e-05,-0.000407656,7,1
9.944634e-05,-0.0004899852,7,1
0.0001300767,-0.0005463839,7,1
0.0001435281,-0.0005849554,7,1
0.0001347766,-0.0006188271,7,1
0.0001078737,-0.00065594,7,1
7.57848e-05,-0.0006872186,7,1
5.633696e-05,-0.0007019666,7,1
5.698522e-05,-0.000700508,7,1
6.346784e-05,-0.0006988873,7,1
5.99024e-05,-0.0007176869,7,1
3.494434e-05,-0.0007708443,7,1
-1.189254e-05,-0.0008562527,7,1
-6.829127e-05,-0.0009530057,7,1
-0.0001130213,-0.001027394,7,1
-0.0001282554,-0.001049597,7,1
-0.0001088076,-0.001004543,7,1
-6.132246e-05,-0.0008943381,7,1
-1.682422e-06,-0.0007334072,7,1
4.645098e-05,-0.0005423322,7,1
5.763349e-05,-0.0003344025,7,1
1.97102e-05,-9.859748e-05,7,1
-6.06742e-05,0.0001926339,7,1
-0.0001603444,0.0005637637,7,1
-0.0002434839,0.001020626,7,1
-0.0002789762,0.001527729,7,1
-0.0002546664,0.002014899,7,1
-0.0001856265,0.002408233,7,1
-0.0001057284,0.002645985,7,1
-4.106429e-05,0.002687959,7,1
8.689758e-06,0.002521194,7,1
5.714729e-05,0.002174858,7,1
0.00010366,0.001714591,7,1
0.0001385041,0.001221263,7,1
0.0001551968,0.0007665075,7,1
0.0001637863,0.0003989431,7,1
0.0001688103,0.0001415833,7,1
0.000170431,-5.409925e-06,7,1
0.0001684862,-5.176061e-05,7,1
0.0001586002,-1.351319e-05,7,1
0.0001341283,9.328786e-05,7,1
0.0001020394,0.000254867,7,1
8.777764e-05,0.0004464283,7,1
0.0001103047,0.0006347483,7,1
0.0001644345,0.0007908173,7,1
0.0002143507,0.0009045873,7,1
0.0002239125,0.0009867544,7,1
0.0001835583,0.001057091,7,1
0.0001128978,0.001124186,7,1
5.034055e-05,0.001170213,7,1
1.64689e-05,0.001165351,7,1
1.160693e-05,0.001084156,7,1
2.100672e-05,0.0009235489,7,1
2.39239e-05,0.0006929298,7,1
6.096713e-06,0.0004201737,7,1
-2.501983e-05,0.0001433661,7,1
-5.532604e-05,-0.0001020008,7,1
-7.542214e-05,-0.0002977757,7,1
-7.995997e-05,-0.0004413656,7,1
-6.748094e-05,-0.0005368221,7,1
-3.587821e-05,-0.0005907898,7,1
7.393236e-06,-0.0006167202,7,1
4.758544e-05,-0.0006327647,7,1
7.092284e-05,-0.0006554538,7,1
6.670914e-05,-0.000688191,7,1
3.170304e-05,-0.0007298418,7,1
-3.036798e-05,-0.0007713305,7,1
-0.0001060525,-0.0008043919,7,1
-0.0001814128,-0.0008291878,7,1
-0.0002434839,-0.0008476633,7,1
-0.0002827037,-0.0008616009,7,1
-0.0002925897,-0.00086938,7,1
-0.0002754107,-0.0008698662,7,1
-0.000238946,-0.0008637077,7,1
-0.000191623,-0.0008541459,7,1
-0.0001376552,-0.0008432875,7,1
-8.660465e-05,-0.0008363187,7,1
-5.889148e-05,-0.0008332395,7,1
-6.958779e-05,-0.0008299981,7,1
-0.0001225832,-0.0008236776,7,1
-0.0001977815,-0.0008107124,7,1
-0.0002598524,-0.0007940196,7,1
-0.0002737901,-0.0007740856,7,1
-0.000233922,-0.0007507482,7,1
-0.0001596961,-0.0007264384,7,1
-7.55842e-05,-0.0007066664,7,1
1.072688e-06,-0.0006891634,7,1
6.055066e-05,-0.0006685811,7,1
9.409818e-05,-0.0006442713,7,1
9.863601e-05,-0.0006157478,7,1
8.388807e-05,-0.0005843072,7,1
6.589881e-05,-0.0005504355,7,1
6.103686e-05,-0.0005152673,7,1
7.853991e-05,-0.0004838267,7,1
0.0001098185,-0.0004570859,7,1
0.0001352628,-0.0004332623,7,1
0.0001448246,-0.0004121938,7,1
0.0001425557,-0.000395177,7,1
0.0001472556,-0.0003784843,7,1
0.000185503,-0.0003549848,7,1
0.0002686426,-0.0003214373,7,1
0.0003767402,-0.00027849,7,1
0.0004717105,-0.0002308428,7,1
0.0005182233,-0.0001844921,7,1
0.0005073649,-0.0001383035,7,1
0.0004488593,-9.276313e-05,7,1
0.0003671783,-4.462973e-05,7,1
0.0002864697,4.151929e-06,7,1
0.0002235884,5.098881e-05,7,1
0.0001811273,9.21534e-05,7,1
0.0001543865,0.0001244044,7,1
0.0001367214,0.0001495245,7,1
0.0001250527,0.0001761032,7,1
0.0001164632,0.0002106232,7,1
0.0001107909,0.0002511395,7,1
0.0001094944,0.0002908455,7,1
0.0001039842,0.0003229345,7,1
8.372601e-05,0.0003446512,7,1
4.515445e-05,0.0003587509,7,1
-5.57199e-06,0.0003676645,7,1
-6.035007e-05,0.0003723644,7,1
-0.0001183694,0.000373823,7,1
-0.0001828714,0.0003769022,7,1
-0.0002514251,0.0003835469,7,1
-0.0003178718,0.0003913261,7,1
-0.0003799429,0.0003950536,7,1
-0.0004381243,0.0003924605,7,1
-0.0004882024,0.000386302,7,1
-0.000519481,0.0003778746,7,1
-0.0005186707,0.0003684748,7,1
-0.0004783165,0.0003581026,7,1
-0.0004083043,0.000351458,7,1
-0.0003222476,0.0003550234,7,1
-0.0002143121,0.0003720403,7,1
-7.574627e-05,0.0003982949,7,1
9.134307e-05,0.0004232529,7,1
0.0002655633,0.0004394595,7,1
0.0004115842,0.0004430249,7,1
0.0004905101,0.0004436732,7,1
0.0004764104,0.0004519385,7,1
0.0003581026,0.0004726828,7,1
0.0001461212,0.0004992616,7,1
-0.0001164247,0.0005183853,7,1
-0.0003624398,0.0005162785,7,1
-0.0005374703,0.0004825689,7,1
-0.0006191512,0.0004172565,7,1
-0.0006024585,0.0003331446,7,1
-0.0004862577,0.0002472499,7,1
-0.0002694143,0.0001757791,7,1
2.619281e-05,0.0001263492,7,1
0.00033671,9.944634e-05,7,1
0.0005807805,9.037068e-05,7,1
0.0007052467,8.988449e-05,7,1
0.0006968193,9.134307e-05,7,1
0.0005882355,8.729144e-05,7,1
0.0004289252,7.270556e-05,7,1
0.0002637806,4.855783e-05,7,1
0.0001229458,1.954813e-05,7,1
1.744129e-05,-4.275467e-06,7,1
-5.451572e-05,-1.918548e-05,7,1
-9.843541e-05,-2.583016e-05,7,1
-0.0001212866,-2.728874e-05,7,1
-0.0001332795,-2.712668e-05,7,1
-0.0001412206,-2.826114e-05,7,1
-0.0001439758,-2.955766e-05,7,1
-0.0001396,-2.955766e-05,7,1
-0.0001306864,-2.939559e-05,7,1
-0.000122097,-3.296103e-05,7,1
-0.0001211246,-3.782299e-05,7,1
-0.0001331174,-4.527799e-05,7,1
-0.0001572651,-5.548811e-05,7,1
-0.0001901644,-6.602235e-05,7,1
-0.0002230636,-7.55842e-05,7,1
-0.0002452666,-8.563225e-05,7,1
-0.0002489941,-0.0001015147,7,1
-0.0002285739,-0.0001206384,7,1
-0.0001865989,-0.0001358725,7,1
-0.0001319829,-0.0001394379,7,1
-7.914964e-05,-0.0001269589,7,1
-3.928157e-05,-0.000102325,7,1
-1.286493e-05,-7.55842e-05,7,1
5.124321e-06,-5.078821e-05,7,1
1.841368e-05,-2.777494e-05,7,1
3.18651e-05,-9.137427e-06,7,1
4.790957e-05,-8.720959e-07,7,1
6.265751e-05,-6.544382e-06,7,1
7.270556e-05,-2.210265e-05,7,1
7.416415e-05,-3.668853e-05,7,1
6.573675e-05,-4.236082e-05,7,1
4.953022e-05,-3.652646e-05,7,1
2.554455e-05,-1.99958e-05,7,1
-1.520357e-06,4.962256e-06,7,1
-2.177852e-05,3.397195e-05,7,1
-2.372331e-05,6.703327e-05,7,1
-5.479652e-07,0.0001023635,7,1
4.434413e-05,0.0001448246,7,1
9.31258e-05,0.0001983062,7,1
0.0001231079,0.0002660495,7,1
0.0001128978,0.0003461098,7,1
4.855783e-05,0.0004261701,7,1
-6.035007e-05,0.0004955341,7,1
-0.0001802784,0.000542209,7,1
-0.0002715212,0.0005567948,7,1
-0.0003057169,0.0005287575,7,1
-0.0002720074,0.0004579349,7,1
-0.0001799543,0.0003558337,7,1
-5.451572e-05,0.0002406053,7,1
7.367795e-05,0.0001305629,7,1
0.0001819376,3.899597e-05,7,1
0.0002602152,-3.166451e-05,7,1
0.0003154794,-8.644259e-05,7,1
0.0003650715,-0.0001334415,7,1
0.0004232529,-0.0001747682,7,1
0.0004862963,-0.0002078295,7,1
0.0005345919,-0.000228898,7,1
0.0005514466,-0.0002429977,7,1
0.0005357263,-0.0002567732,7,1
0.0004918066,-0.0002763831,7,1
0.0004263322,-0.0003050687,7,1
0.000339303,-0.0003413713,7,1
0.0002365536,-0.0003786463,7,1
0.0001312112,-0.0004036044,7,1
4.223728e-05,-0.0004065215,7,1
-1.464765e-05,-0.0003799429,7,1
-3.733679e-05,-0.0003224097,7,1
-3.377136e-05,-0.0002298704,7,1
-2.210265e-05,-0.0001076731,7,1
-1.788895e-05,2.76514e-05,7,1
-3.020592e-05,0.0001526038,7,1
-5.289507e-05,0.0002475741,7,1
-8.109443e-05,0.0002940868,7,1
-0.000112373,0.0002817699,7,1
-0.0001574272,0.0002124059,7,1
-0.0002274394,0.0001041462,7,1
-0.0003190063,-5.57199e-06,7,1
-0.0004108973,-7.526008e-05,7,1
-0.0004703753,-7.963584e-05,7,1
-0.000474589,-2.664048e-05,7,1
-0.0004256453,4.466826e-05,7,1
-0.0003449367,9.523264e-05,7,1
-0.0002624455,0.0001030118,7,1
-0.0002028055,6.622294e-05,7,1
-0.0001716889,-1.682422e-06,7,1
-0.0001603444,-7.801519e-05,7,1
-0.0001548341,-0.0001363587,7,1
-0.0001477033,-0.0001622891,7,1
-0.0001392759,-0.0001632615,7,1
-0.0001337657,-0.0001528894,7,1
-0.0001302002,-0.0001442999,7,1
-0.0001263107,-0.0001498101,7,1
-0.0001167488,-0.0001807646,7,1
-9.956988e-05,-0.0002407288,7,1
-7.056019e-05,-0.0003292164,7,1
-3.360929e-05,-0.0004365036,7,1
2.04508e-06,-0.0005436288,7,1
2.943412e-05,-0.0006249856,7,1
5.212327e-05,-0.000658371,7,1
8.113296e-05,-0.0006338991,7,1
0.0001198666,-0.0005564319,7,1
0.0001548727,-0.0004429862,7,1
0.0001660552,-0.0003144685,7,1
0.0001425557,-0.0001883817,7,1
9.63671e-05,-6.423963e-05,7,1
5.358185e-05,7.594687e-05,7,1
4.013043e-05,0.0002490327,7,1
6.119892e-05,0.0004598797,7,1
0.0001033359,0.0006833679,7,1
0.0001501728,0.0008689329,7,1
0.0001793446,0.000960824,7,1
0.0001752929,0.0009344073,7,1
0.0001419075,0.0008110755,7,1
9.490851e-05,0.0006441481,7,1
5.374392e-05,0.0004921307,7,1
3.251336e-05,0.0003905157,7,1
5.001642e-05,0.0003474063,7,1
0.0001231079,0.0003527545,7,1
0.0002538946,0.0003851676,7,1
0.0004068843,0.0004240633,7,1
0.0005224369,0.0004512903,7,1
0.000547233,0.0004564763,7,1
0.0004704139,0.0004371906,7,1
0.0003295791,0.0003953777,7,1
0.0001777239,0.0003294171,7,1
5.56887e-05,0.0002464396,7,1
-1.448558e-05,0.0001720516,7,1
-3.425755e-05,0.0001231079,7,1
-2.534396e-05,0.0001018773,7,1
-1.318906e-05,9.377406e-05,7,1
-1.399939e-05,7.659513e-05,7,1
-2.988179e-05,3.656499e-05,7,1
-5.451572e-05,-2.907146e-05,7,1
-8.093236e-05,-0.0001089697,7,1
-0.0001031353,-0.0001878955,7,1
-0.0001182074,-0.0002527216,7,1
-0.0001279313,-0.0003016653,7,1
-0.000134738,-0.0003452609,7,1
-0.0001415448,-0.0003914495,7,1
-0.0001493239,-0.0004386105,7,1
-0.0001562927,-0.0004802613,7,1
-0.0001543479,-0.0005099192,7,1
-0.0001368449,-0.0005277464,7,1
-0.0001031353,-0.000541846,7,1
-6.699475e-05,-0.0005578905,7,1
-4.738484e-05,-0.0005734488,7,1
-5.435365e-05,-0.0005854416,7,1
-8.287715e-05,-0.0005898174,7,1
-0.0001180453,-0.0005834968,7,1
-0.0001502963,-0.0005729626,7,1
-0.000184168,-0.0005666421,7,1
-0.0002332737,-0.0005672903,7,1
-0.0003053928,-0.0005695592,7,1
-0.0003870737,-0.0005668041,7,1
-0.0004518998,-0.000549139,7,1
-0.0004781544,-0.0004993849,7,1
-0.000464703,-0.0004044147,7,1
-0.0004118697,-0.000273628,7,1
-0.0003203028,-0.0001410586,7,1
-0.0001994021,-4.722278e-05,7,1
-8.320128e-05,-1.934754e-05,7,1
-6.176923e-08,-6.197072e-05,7,1
4.418206e-05,-0.0001598582,7,1
6.816773e-05,-0.0002898345,7,1
0.0001023635,-0.0004246728,7,1
0.0001642725,-0.0005450874,7,1
0.0002365536,-0.0006421645,7,1
0.0002803113,-0.0007165525,7,1
0.0002670219,-0.0007710064,7,1
0.0001996027,-0.0008111986,7,1
0.0001130598,-0.000842153,7,1
4.564065e-05,-0.000861925,7,1
1.22552e-05,-0.0008656525,7,1
-7.354709e-06,-0.0008515528,7,1
-4.138842e-05,-0.0008115227,7,1
-9.843541e-05,-0.0007338934,7,1
-0.0001574272,-0.0006058619,7,1
-0.0001812508,-0.0004292107,7,1
-0.0001314967,-0.0002182017,7,1
2.369211e-06,2.369211e-06,7,1
0.000195389,0.0002185644,7,1
0.0004055878,0.000426008,7,1
0.0005828873,0.0006358828,7,1
0.0006866092,0.0008796292,7,1
0.0006974676,0.001193226,7,1
0.0006347483,0.00157327,7,1
0.0005379952,0.001964335,7,1
0.000450642,0.002283118,7,1
0.0003916502,0.002457177,7,1
0.0003522683,0.00244486,7,1
0.0003156415,0.002251192,7,1
0.0002658874,0.001921873,7,1
0.0001997648,0.001525623,7,1
0.0001274836,0.001131479,7,1
6.136099e-05,0.0007926,7,1
1.306552e-05,0.0005331332,7,1
-1.043395e-05,0.0003503235,7,1
-1.173047e-05,0.0002292607,7,1
2.693341e-06,0.0001540623,7,1
2.603075e-05,0.0001067393,7,1
5.179914e-05,7.789165e-05,7,1
7.238143e-05,6.573675e-05,7,1
8.259155e-05,6.525056e-05,7,1
7.254349e-05,7.108491e-05,7,1
2.959619e-05,7.659513e-05,7,1
-4.673658e-05,7.52986e-05,7,1
-0.0001425172,6.46023e-05,7,1
-0.000236353,4.35338e-05,7,1
-0.0003113892,1.565857e-05,7,1
-0.0003561192,-1.67545e-05,7,1
-0.000370381,-5.532604e-05,7,1
-0.0003622777,-9.859748e-05,7,1
-0.0003415334,-0.0001451102,7,1
-0.0003199787,-0.0001921092,7,1
-0.0003143064,-0.0002376495,7,1
-0.0003353749,-0.0002830278,7,1
-0.0003775118,-0.0003309991,7,1
-0.0004243487,-0.0003849669,7,1
-0.0004585445,-0.0004403932,7,1
-0.0004682684,-0.0004906334,7,1
-0.0004525481,-0.0005321222,7,1
-0.0004170558,-0.0005653456,7,1
-0.000367788,-0.000591276,7,1
-0.0003052308,-0.0006131548,7,1
-0.0002241981,-0.0006366542,7,1
-0.0001276072,-0.0006664743,7,1
-2.712668e-05,-0.0007019666,7,1
6.087479e-05,-0.0007397278,7,1
0.0001263492,-0.0007732753,7,1
0.0001722137,-0.00079483,7,1
0.0002047888,-0.0007945059,7,1
0.0002243987,-0.0007573929,7,1
0.0002235884,-0.0006697156,7,1
0.0001999268,-0.0005222362,7,1
0.0001641104,-0.0003125237,7,1
0.0001354248,-4.787104e-05,7,1
0.0001278078,0.0002537325,7,1
0.0001412592,0.0005657084,7,1
0.0001594105,0.0008626123,7,1
0.0001579519,0.001115921,7,1
0.0001245665,0.001295003,7,1
6.670914e-05,0.00137555,7,1
-6.544382e-06,0.001347026,7,1
-9.033215e-05,0.001227584,7,1
-0.0001765509,0.001055956,7,1
-0.0002575835,0.0008674743,7,1
-0.0003217614,0.0006804507,7,1
-0.000355633,0.0004990995,7,1
-0.000345585,0.0003237448,7,1
-0.0002840002,0.0001501728,7,1
-0.000181737,-2.177852e-05,7,1
-6.407757e-05,-0.00018433,7,1
4.904402e-05,-0.0003238683,7,1
0.0001524417,-0.0004301831,7,1
0.00024255,-0.0005026262,7,1
0.0003080245,-0.0005505976,7,1
0.000331686,-0.000581552,7,1
0.0003049452,-0.0005972724,7,1
0.0002271538,-0.0005987309,7,1
0.000115977,-0.0005896553,7,1
1.558884e-06,-0.0005731247,7,1
-8.82253e-05,-0.0005499493,7,1
-0.0001311726,-0.0005199672,7,1
-0.000114804,-0.0004828543,7,1
-4.80331e-05,-0.000434883,7,1
4.239934e-05,-0.0003713534,7,1
0.0001229458,-0.0002937241,7,1
0.0001652449,-0.0002002124,7,1
0.0001620036,-8.806324e-05,7,1
0.000133318,4.871989e-05,7,1
0.0001101427,0.0002044647,7,1
0.0001188942,0.000359075,7,1
0.0001660552,0.0004859722,7,1
0.0002329882,0.0005636016,7,1
0.0002942489,0.0005780254,7,1
0.0003286068,0.0005292437,7,1
0.0003311998,0.0004313562,7,1
0.0003089969,0.0003059176,7,1
0.0002744769,0.0001793446,7,1
0.000237526,7.367795e-05,7,1
0.0002013854,4.313994e-06,7,1
0.000160707,-2.89094e-05,7,1
0.000113546,-3.68506e-05,7,1
5.925414e-05,-2.89094e-05,7,1
-1.196227e-06,-1.513384e-05,7,1
-6.780507e-05,-5.085794e-06,7,1
-0.0001332795,-5.734056e-06,7,1
-0.0001911368,-1.497178e-05,7,1
-0.0002251705,-2.874733e-05,7,1
-0.0002084778,-3.879538e-05,7,1
-0.0001261486,-4.171256e-05,7,1
2.207145e-06,-4.138842e-05,7,1
0.0001198666,-4.155049e-05,7,1
0.0001722137,-4.722278e-05,7,1
0.0001428799,-6.06742e-05,7,1
5.811968e-05,-7.947377e-05,7,1
-3.441962e-05,-9.973194e-05,7,1
-0.0001010285,-0.0001125351,7,1
-0.0001381414,-0.0001130213,7,1
-0.0001635857,-0.0001054042,7,1
-0.0002023193,-0.0001003802,7,1
-0.000266011,-0.0001039456,7,1
-0.0003421817,-0.0001162626,7,1
-0.0003980942,-0.0001319829,7,1
-0.0004010113,-0.0001472171,7,1
-0.000343154,-0.0001582375,7,1
-0.0002455907,-0.0001639098,7,1
-0.0001425172,-0.0001679614,7,1
-6.06742e-05,-0.0001762268,7,1
-4.275467e-06,-0.0001922712,7,1
3.202716e-05,-0.0002149604,7,1
5.017848e-05,-0.0002405667,7,1
4.953022e-05,-0.0002605007,7,1
3.380988e-05,-0.0002707109,7,1
1.193106e-05,-0.0002700626,7,1
-8.975362e-06,-0.0002645523,7,1
-2.145439e-05,-0.0002572594,7,1
-2.031993e-05,-0.0002459149,7,1
-7.840905e-06,-0.0002297083,7,1
1.322759e-05,-0.0002094502,7,1
3.93201e-05,-0.0001870851,7,1
6.83298e-05,-0.0001653684,7,1
0.0001000946,-0.0001441378,7,1
0.0001287802,-0.0001206384,7,1
0.0001438522,-9.211487e-05,7,1
0.000130887,-6.116039e-05,7,1
7.853991e-05,-3.182657e-05,7,1
-1.140634e-05,-8.165035e-06,7,1
-0.000122097,1.031041e-05,7,1
-0.0002292221,2.927205e-05,7,1
-0.0003006929,5.244739e-05,7,1
-0.0003057169,7.772959e-05,7,1
-0.0002329496,0.0001012291,7,1
-0.0001112386,0.0001185701,7,1
2.693341e-06,0.0001269974,7,1
6.217132e-05,0.0001253768,7,1
5.876794e-05,0.0001201907,7,1
3.105477e-05,0.0001224596,7,1
2.894792e-05,0.0001388282,7,1
8.388807e-05,0.0001684862,7,1
0.0001902029,0.0001994406,7,1
0.0003122381,0.0002196988,7,1
0.0003992672,0.0002242366,7,1
0.0004104497,0.0002122438,7,1
0.0003282826,0.0001890685,7,1
0.0001769136,0.0001574657,7,1
9.338019e-06,0.000120839,7,1
-0.00010978,8.307774e-05,7,1
-0.0001327933,4.790957e-05,7,1
-5.808115e-05,2.246531e-05,7,1
5.925414e-05,1.112074e-05,7,1
0.0001380179,1.841368e-05,7,1
0.0001312112,4.434413e-05,7,1
5.050261e-05,8.04847e-05,7,1
-5.370539e-05,0.000121001,7,1
-0.0001292278,0.0001584381,7,1
-0.0001366828,0.0001921477,7,1
-5.856735e-05,0.0002205092,7,1
9.053275e-05,0.0002389846,7,1
0.0002723701,0.0002441707,7,1
0.0004427008,0.0002334744,7,1
0.0005689497,0.0002135403,7,1
0.0006269692,0.000192796,7,1
0.0006128695,0.0001775618,7,1
0.0005415607,0.0001692965,7,1
0.0004389733,0.0001663793,7,1
0.0003376824,0.0001717275,7,1
0.0002715597,0.0001851789,7,1
0.0002654013,0.0002070577,7,1
0.00030689,0.0002373639,7,1
0.0003491891,0.0002712356,7,1
0.0003431926,0.0003065659,7,1
0.0002709115,0.0003401134,7,1
0.0001466074,0.0003678266,7,1
6.90704e-06,0.0003811159,7,1
-0.0001149661,0.0003752816,7,1
-0.0001994021,0.00035162,7,1
-0.0002429977,0.0003161277,7,1
-0.0002541802,0.000274801,7,1
-0.000246401,0.0002282883,7,1
-0.0002373254,0.0001722137,7,1
-0.0002423494,0.0001043083,7,1
-0.0002679557,2.748934e-05,7,1
-0.0003078238,-4.868137e-05,7,1
-0.0003481781,-0.000112373,7,1
-0.0003763774,-0.0001572651,7,1
-0.0003865875,-0.0001840059,7,1
-0.000360333,-0.0001925954,7,1
-0.0002742763,-0.0001862748,7,1
-0.0001293899,-0.0001697442,7,1
3.170304e-05,-0.0001536997,7,1
0.0001440143,-0.0001462447,7,1
0.0001712413,-0.0001530514,7,1
0.000123432,-0.0001784957,7,1
4.077869e-05,-0.0002194982,7,1
-4.47918e-05,-0.0002713591,7,1
-0.0001245279,-0.0003241924,7,1
-0.0001938919,-0.0003648708,7,1
-0.0002501286,-0.0003895047,7,1
-0.0002851347,-0.0004008493,7,1
-0.0002916173,-0.0004089525,7,1
-0.0002677937,-0.0004198109,7,1
-0.0002219292,-0.0004321279,7,1
-0.0001703924,-0.0004452552,7,1
-0.0001285796,-0.0004583824,7,1
-0.0001062146,-0.0004640547,7,1
-0.0001057284,-0.0004510895,7,1
-0.0001255003,-0.0004078181,7,1
-0.0001590478,-0.0003322956,7,1
-0.0002008607,-0.0002298704,7,1
-0.0002436459,-0.0001071869,7,1
-0.0002746004,2.441009e-05,7,1
-0.0002742763,0.0001553589,7,1
-0.000228898,0.0002780424,7,1
-0.0001447861,0.0003854917,7,1
-4.673658e-05,0.000467983,7,1
3.753739e-05,0.0005185474,7,1
8.631905e-05,0.0005482053,7,1
8.891209e-05,0.0005692738,7,1
4.580272e-05,0.0005843459,7,1
-3.085418e-05,0.0005887217,7,1
-0.000117235,0.0005786736,7,1
-0.0001853024,0.000552419,7,1
-0.0002232257,0.0005078511,7,1
-0.0002256567,0.0004388112,7,1
-0.0001979435,0.0003422202,7,1
-0.0001574272,0.0002205092,7,1
-0.0001235555,7.90261e-05,7,1
-0.0001042698,-7.931171e-05,7,1
-7.995997e-05,-0.0002439701,7,1
-1.20546e-05,-0.0003940425,7,1
0.0001175977,-0.0005027883,7,1
0.0002827423,-0.0005601594,7,1
0.0004290873,-0.0005724764,7,1
0.0005141716,-0.0005595111,7,1
0.0005318367,-0.0005413599,7,1
0.0005174129,-0.000529205,7,1
0.0004992616,-0.0005303394,7,1
0.0004806241,-0.0005439529,7,1
0.000443349,-0.0005653456,7,1
0.0003676645,-0.0005851175,7,1
0.0002441707,-0.0005922483,7,1
7.140904e-05,-0.0005753936,7,1
-0.000134576,-0.0005228845,7,1
-0.0003403989,-0.0004245108,7,1
-0.0005008436,-0.0002744383,7,1
-0.0005744212,-7.493595e-05,7,1
-0.0005347152,0.0001608691,7,1
-0.0003830221,0.0004222805,7,1
-0.0001493239,0.000705895,7,1
0.000105929,0.00100912,7,1
0.0003067279,0.00131672,7,1
0.0003979707,0.001588504,7,1
0.0003736609,0.00176467,7,1
0.0002715597,0.001798379,7,1
0.000145797,0.001684447,7,1
4.35338e-05,0.001458852,7,1
-1.529591e-05,0.001174751,7,1
-3.749886e-05,0.0008853014,7,1
-3.992984e-05,0.000629076,7,1
-4.090223e-05,0.0004253598,7,1
-5.727083e-05,0.0002712356,7,1
-9.227693e-05,0.0001488763,7,1
-0.0001430034,4.531652e-05,7,1
-0.0002036158,-4.47918e-05,7,1
-0.0002723315,-0.0001310105,7,1
-0.0003439643,-0.0002316531,7,1
-0.0004071698,-0.0003587123,7,1
-0.0004457413,-0.0005082985,7,1
-0.0004486585,-0.0006620985,7,1
-0.0004092767,-0.0008063366,7,1
-0.0003326198,-0.0009353406,7,1
-0.000231329,-0.001046031,7,1
-0.0001323071,-0.001139543,7,1
-5.662256e-05,-0.00121782,7,1
9.106227e-07,-0.001285564,7,1
6.427817e-05,-0.001348769,7,1
0.0001475797,-0.001409868,7,1
0.0002269918,-0.001463998,7,1
0.0002545429,-0.001503704,7,1
0.0001947408,-0.001523152,7,1
5.504044e-05,-0.001512617,7,1
-0.0001261486,-0.001464646,7,1
-0.0002943724,-0.001386206,7,1
-0.0003924218,-0.001288157,7,1
-0.0003760533,-0.001171956,7,1
-0.0002237119,-0.001025611,7,1
4.142696e-05,-0.0008324291,7,1
0.0003418961,-0.0005794452,7,1
0.0005801322,-0.0002559629,7,1
0.0006942263,0.000135749,7,1
0.0006819093,0.0005600362,7,1
0.0005898562,0.0009558,7,1
0.0004717105,0.001255945,7,1
0.0003608578,0.001417363,7,1
0.0002684805,0.001431625,7,1
0.0001902029,0.001326444,7,1
0.0001169494,0.001156923,7,1
5.633696e-05,0.0009886993,7,1
2.197911e-05,0.0008802774,7,1
1.22552e-05,0.0008679605,7,1
1.727922e-05,0.0009676307,7,1
3.397195e-05,0.001169402,7,1
6.46023e-05,0.001433569,7,1
9.896015e-05,0.001693037,7,1
0.0001192183,0.001876657,7,1
0.0001107909,0.001935325,7,1
8.615699e-05,0.001863368,7,1
7.432621e-05,0.00168704,7,1
0.0001009049,0.0014454,7,1
0.0001616794,0.00117864,7,1
0.0002203471,0.0009169042,7,1
0.0002407673,0.0006772094,7,1
0.0002195368,0.0004673347,7,1
0.0001819376,0.0002936006,7,1
0.0001553589,0.0001571416,7,1
0.0001427178,5.909208e-05,7,1
0.000128456,-2.006553e-06,7,1
9.879808e-05,-4.05781e-05,7,1
5.795762e-05,-7.720486e-05,7,1
1.64689e-05,-0.0001295519,7,1
-1.853722e-05,-0.0001998883,7,1
-4.868137e-05,-0.00027849,7,1
-7.752899e-05,-0.0003543365,7,1
-0.0001015147,-0.0004194868,7,1
-0.0001086455,-0.0004711856,7,1
-8.741498e-05,-0.0005099192,7,1
-3.425755e-05,-0.0005429805,7,1
4.677511e-05,-0.0005802555,7,1
0.0001351007,-0.0006267683,7,1
0.0001968476,-0.000678143,7,1
0.0001958752,-0.0007233592,7,1
0.0001158149,-0.0007522068,7,1
-3.555408e-05,-0.0007614446,7,1
-0.0002331117,-0.0007596618,7,1
-0.0004296969,-0.0007609584,7,1
-0.0005617801,-0.00077522,7,1
-0.0005834968,-0.0008061745,7,1
-0.0004946851,-0.0008551183,7,1
-0.0003309991,-0.0009147583,7,1
-0.0001396,-0.0009732639,7,1
4.645098e-05,-0.001017184,7,1
0.0002185644,-0.001029825,7,1
0.0003628026,-0.0009940083,7,1
0.0004674968,-0.0009040619,7,1
0.0005243817,-0.0007654962,7,1
0.0005292437,-0.0005948414,7,1
0.0004825689,-0.0004147869,7,1
0.0003952156,-0.000238784,7,1
0.0002816078,-6.521203e-05,7,1
0.0001594105,0.0001122495,7,1
5.19612e-05,0.0003000832,7,1
-2.745081e-05,0.0004882411,7,1
-8.628052e-05,0.0006404206,7,1
-0.0001400862,0.0007091364,7,1
-0.0002044261,0.0006655407,7,1
-0.0002818933,0.0005193577,7,1
-0.0003548227,0.0003166139,7,1
-0.0004036044,0.0001096565,7,1
-0.000407656,-6.618442e-05,7,1
-0.0003720016,-0.0001948643,7,1
-0.0003193304,-0.000276059,7,1
-0.0002663351,-0.0003194925,7,1
-0.0002225774,-0.0003378059,7,1
-0.000196647,-0.0003387782,7,1
-0.0001943781,-0.0003295405,7,1
-0.0002157707,-0.0003147926,7,1
-0.0002533699,-0.0002982619,7,1
-0.0002917793,-0.0002822175,7,1
-0.0003164132,-0.0002682799,7,1
-0.000325813,-0.0002514251,7,1
-0.0003305129,-0.0002254946,7,1
-0.000342992,-0.0001857886,7,1
-0.000367788,-0.000134576,7,1
-0.0003948528,-8.239095e-05,7,1
-0.0003987424,-3.749886e-05,7,1
-0.0003561192,-6.058186e-06,7,1
-0.0002629317,8.527692e-06,7,1
-0.0001417068,8.851824e-06,7,1
-2.84232e-05,-7.100305e-07,7,1
4.953022e-05,-8.165035e-06,7,1
8.486046e-05,-4.599598e-06,7,1
8.356394e-05,1.063454e-05,7,1
7.140904e-05,2.878586e-05,7,1
9.150514e-05,4.207521e-05,7,1
0.0001798307,4.45062e-05,7,1
0.000336548,2.910999e-05,7,1
0.0005230852,-1.682422e-06,7,1
0.0006791542,-3.604027e-05,7,1
0.0007494906,-6.586029e-05,7,1
0.0007122156,-9.065628e-05,7,1
0.0005879114,-0.0001144799,7,1
0.0004224426,-0.0001339277,7,1
0.0002577842,-0.0001402483,7,1
0.0001156529,-0.0001214487,7,1
8.203562e-06,-7.056019e-05,7,1
-5.386745e-05,7.23117e-06,7,1
-6.180866e-05,0.0001015532,7,1
-1.934754e-05,0.0001966855,7,1
6.265751e-05,0.0002738286,7,1
0.0001746447,0.0003209897,7,1
0.0003101313,0.0003362238,7,1
0.0004511282,0.0003269861,7,1
0.0005546879,0.0003059176,7,1
0.0005704083,0.0002837146,7,1
0.0004767345,0.0002676702,7,1
0.0003065659,0.0002624841,7,1
0.0001279698,0.0002713977,7,1
-3.627206e-06,0.0002939248,7,1
-6.991193e-05,0.0003255275,7,1
-8.352541e-05,0.0003629646,7,1
-7.218083e-05,0.0004057499,7,1
-6.423963e-05,0.0004519385,7,1
-7.931171e-05,0.0004986133,7,1
-0.0001175591,0.0005402642,7,1
-0.0001681235,0.0005687877,7,1
-0.0002149604,0.0005783495,7,1
-0.0002455907,0.0005639257,7,1
-0.0002522354,0.0005255162,7,1
-0.0002337599,0.0004731691,7,1
-0.0001964849,0.0004167703,7,1
-0.0001533756,0.0003657197,7,1
-0.0001219349,0.000321638,7,1
-0.0001162626,0.0002816078,7,1
-0.000144462,0.0002428742,7,1
-0.0002084778,0.0002060853,7,1
-0.0003019894,0.0001714034,7,1
-0.0004060354,0.0001375317,7,1
-0.0005000332,0.0001030118,7,1
-0.0005651835,6.83298e-05,7,1
-0.0005860899,3.705119e-05,7,1
-0.0005577285,9.824215e-06,7,1
-0.000484475,-1.416145e-05,7,1
-0.0003831841,-3.377136e-05,7,1
-0.0002770314,-4.981582e-05,7,1
-0.0002003745,-6.375344e-05,7,1
-0.0001747682,-7.315322e-05,7,1
-0.0001908126,-7.509801e-05,7,1
-0.0002136638,-7.396356e-05,7,1
-0.0002099363,-8.02841e-05,7,1
-0.0001647201,-0.0001034594,7,1
-8.82253e-05,-0.0001483515,7,1
-2.492749e-06,-0.0002102605,7,1
6.897806e-05,-0.0002744383,7,1
0.0001137081,-0.0003298647,7,1
0.0001316974,-0.0003739464,7,1
0.0001281319,-0.0004083043,7,1
0.0001125736,-0.0004322899,7,1
9.993253e-05,-0.0004434724,7,1
0.0001043083,-0.0004378002,7,1
0.0001299146,-0.0004152731,7,1
0.0001723757,-0.0003796187,7,1
0.0002208333,-0.0003293785,7,1
0.0002631324,-0.0002668213,7,1
0.0002897111,-0.0001925954,7,1
0.0003004074,-0.0001107524,7,1
0.0002937627,-3.279896e-05,7,1
0.0002675081,2.39239e-05,7,1
0.0002188885,4.904402e-05,7,1
0.0001492004,4.758544e-05,7,1
6.233338e-05,3.494434e-05,7,1
-2.647842e-05,2.829966e-05,7,1
-8.773911e-05,4.385793e-05,7,1
-9.405965e-05,8.988449e-05,7,1
-4.932962e-05,0.0001733481,7,1
1.257933e-05,0.0002924662,7,1
5.19612e-05,0.0004401077,7,1
5.212327e-05,0.0006049282,7,1
2.489629e-05,0.0007733142,7,1
6.096713e-06,0.000928573,7,1
3.170304e-05,0.001049474,7,1
0.0001088461,0.001117704,7,1
0.0002141886,0.001122565,7,1
0.0003057555,0.001057253,7,1
0.0003443271,0.0009253316,7,1
0.0003198552,0.0007470596,7,1
0.0002527602,0.0005499881,7,1
0.0001827479,0.0003585888,7,1
0.0001425557,0.0001937684,7,1
0.0001409351,6.573675e-05,7,1
0.0001676758,-2.404744e-05,7,1
0.0001979821,-8.514606e-05,7,1
0.0002124059,-0.0001331174,7,1
0.0002068957,-0.0001789819,7,1
0.0001887444,-0.0002250084,7,1
0.000170431,-0.0002721694,7,1
0.0001522796,-0.0003206269,7,1
0.0001321835,-0.0003661673,7,1
0.0001091703,-0.0004031182,7,1
7.837785e-05,-0.0004204592,7,1
2.797553e-05,-0.000417542,7,1
-3.960571e-05,-0.000395339,7,1
-0.0001024871,-0.0003557951,7,1
-0.000134576,-0.0002989102,7,1
-0.0001208004,-0.0002245222,7,1
-6.132246e-05,-0.000134738,7,1
3.397195e-05,-3.150244e-05,7,1
0.0001419075,7.772959e-05,7,1
0.0002299089,0.0001895547,7,1
0.0002679943,0.0003028383,7,1
0.000242388,0.0004015361,7,1
0.0001589243,0.0004550177,7,1
3.915804e-05,0.0004271425,7,1
-8.158062e-05,0.0003013798,7,1
-0.000176875,9.377406e-05,7,1
-0.0002404046,-0.0001522411,7,1
-0.0002838381,-0.0003919357,7,1
-0.000333106,-0.0005958138,7,1
-0.0003969597,-0.000752693,7,1
-0.000447362,-0.0008653284,7,1
-0.0004416897,-0.0009528436,7,1
-0.0003598467,-0.001036956,7,1
-0.0002157707,-0.001128198,7,1
-4.560212e-05,-0.001226896,7,1
0.0001056048,-0.001329646,7,1
0.0002012234,-0.00142964,7,1
0.000217592,-0.001523476,7,1
0.000155683,-0.001600294,7,1
4.223728e-05,-0.00163838,7,1
-8.174268e-05,-0.001610667,7,1
-0.0001844921,-0.001496573,7,1
-0.0002491561,-0.001292046,7,1
-0.0002768693,-0.001005677,7,1
-0.0002807589,-0.0006497815,7,1
-0.0002739521,-0.0002311669,7,1
-0.0002605007,0.0002527602,7,1
-0.0002395943,0.0008133444,7,1
-0.0002021572,0.001454314,7,1
-0.0001353863,0.002131911,7,1
-3.409549e-05,0.002738038,7,1
8.210535e-05,0.003135101,7,1
0.0001764274,0.003212407,7,1
0.0002162954,0.002933976,7,1
0.0001931201,0.002359614,7,1
0.0001305629,0.0016227,7,1
7.027458e-05,0.0008789809,7,1
3.753739e-05,0.000252274,7,1
4.288554e-05,-0.0001945401,7,1
8.307774e-05,-0.0004710235,7,1
0.0001417454,-0.0006248235,7,1
0.0001950649,-0.0007063423,7,1
0.000222616,-0.0007505861,7,1
0.000220023,-0.000777489,7,1
0.0001992786,-0.0007919128,7,1
0.0001722137,-0.0007956403,7,1
0.0001453108,-0.0007961266,7,1
0.0001237561,-0.0007919128,7,1
0.0001104668,-0.0007758683,7,1
0.0001031738,-0.000742969,7,1
0.0001018773,-0.0006883531,7,1
0.000111115,-0.0006134789,7,1
0.0001227837,-0.000514295,7,1
0.0001211631,-0.0003807532,7,1
9.409818e-05,-0.0002003745,7,1
3.802358e-05,3.429608e-05,7,1
-4.171256e-05,0.0003208276,7,1
-0.0001355484,0.0006428516,7,1
-0.0002230636,0.0009786512,7,1
-0.0002705488,0.001306348,7,1
-0.0002493182,0.001603576,7,1
-0.0001514308,0.001832737,7,1
-2.978945e-06,0.00194667,7,1
0.0001446626,0.001906963,7,1
0.0002487085,0.001712322,7,1
0.0002974902,0.00139597,7,1
0.0003015418,0.001013333,7,1
0.0002791768,0.0006344241,7,1
0.0002372019,0.0003174242,7,1
0.0001744826,9.020862e-05,7,1
9.717743e-05,-5.030202e-05,7,1
2.116879e-05,-0.0001255003,7,1
-3.474375e-05,-0.0001575893,7,1
-5.613637e-05,-0.0001671511,7,1
-4.155049e-05,-0.0001736337,7,1
-6.868513e-06,-0.0001885437,7,1
2.635488e-05,-0.0002199844,7,1
3.656499e-05,-0.0002647144,7,1
1.063454e-05,-0.0003146305,7,1
-4.949169e-05,-0.0003587123,7,1
-0.0001245279,-0.000390315,7,1
-0.0001922712,-0.000410249,7,1
-0.0002442942,-0.0004280762,7,1
-0.000281083,-0.0004489826,7,1
-0.0002922655,-0.0004786406,7,1
-0.0002614731,-0.0005204534,7,1
-0.0001888679,-0.0005685869,7,1
-0.0001107524,-0.0006150996,7,1
-7.801519e-05,-0.000655778,7,1
-0.0001203142,-0.0006915944,7,1
-0.0002263049,-0.0007256281,7,1
-0.0003595226,-0.000760148,7,1
-0.0004818819,-0.0007956403,7,1
-0.0005486528,-0.0008304843,7,1
-0.0005125122,-0.0008593319,7,1
-0.0003394265,-0.0008802384,7,1
-5.483985e-05,-0.0008923933,7,1
0.0002504913,-0.0008930415,7,1
0.0004715484,-0.0008761868,7,1
0.0005530673,-0.0008390738,7,1
0.0005072028,-0.0007870508,7,1
0.0003752816,-0.0007313004,7,1
0.0001983062,-0.0006797637,7,1
7.555301e-06,-0.0006332509,7,1
-0.0001755785,-0.0005856037,7,1
-0.0003321336,-0.0005337428,7,1
-0.0004437966,-0.000477182,7,1
-0.0005052193,-0.000419973,7,1
-0.00051705,-0.0003694086,7,1
-0.0004823681,-0.0003386162,7,1
-0.0004143007,-0.0003369955,7,1
-0.0003220855,-0.0003609812,7,1
-0.0002096122,-0.0003909633,7,1
-6.748094e-05,-0.0004086284,7,1
0.0001145184,-0.000405063,7,1
0.0003109416,-0.0003807532,7,1
0.0004684692,-0.0003425058,7,1
0.0005396159,-0.0002989102,7,1
0.0005042856,-0.000258718,7,1
0.0003879227,-0.0002287359,7,1
0.0002453052,-0.0002138259,7,1
0.0001232699,-0.0002105846,7,1
4.45062e-05,-0.0002026434,7,1
1.290346e-05,-0.0001707166,7,1
2.554455e-05,-0.0001007043,7,1
7.173317e-05,9.986281e-06,7,1
0.0001373696,0.0001516314,7,1
0.0002078681,0.000302028,7,1
0.0002692908,0.0004461041,7,1
0.0003064038,0.0005760806,7,1
0.0003073762,0.000690823,7,1
0.0002783665,0.0007885484,7,1
0.0002372019,0.000866826,7,1
0.0002000889,0.000923873,7,1
0.0001814514,0.000953369,7,1
0.000185341,0.0009462381,7,1
0.0002060853,0.0009005356,7,1
0.0002297469,0.0008284165,7,1
0.000242388,0.0007509492,7,1
0.0002344468,0.0006838542,7,1
0.0002078681,0.0006282657,7,1
0.0001675138,0.0005747841,7,1
0.0001274836,0.0005123889,7,1
9.150514e-05,0.0004384871,7,1
5.730935e-05,0.0003559958,7,1
2.262738e-05,0.0002670219,7,1
-1.399939e-05,0.0001741585,7,1
-5.840528e-05,8.291568e-05,7,1
-0.0001131834,1.234753e-06,7,1
-0.0001776853,-6.002594e-05,7,1
-0.0002386219,-9.114248e-05,7,1
-0.0002776796,-8.287715e-05,7,1
-0.0002878898,-2.356124e-05,7,1
-0.0002734659,8.291568e-05,7,1
-0.000246401,0.0002193747,7,1
-0.0002170672,0.0003712299,7,1
-0.0001903264,0.000534754,7,1
-0.0001673132,0.0007099467,7,1
-0.0001472171,0.0008880566,7,1
-0.0001344139,0.001035374,7,1
-0.0001292278,0.001103604,7,1
-0.0001355484,0.001059684,7,1
-0.0001583996,0.0009143112,7,1
-0.0001901644,0.0007141604,7,1
-0.0002070192,0.0005204921,7,1
-0.0001938919,0.0003775505,7,1
-0.0001640719,0.0002983005,7,1
-0.0001514308,0.0002681563,7,1
-0.000174444,0.0002632944,7,1
-0.000216581,0.0002579462,7,1
-0.0002405667,0.0002404432,7,1
-0.0002149604,0.0002146748,7,1
-0.0001349001,0.0001803169,7,1
-3.539201e-05,0.0001328318,7,1
3.478228e-05,6.249545e-05,7,1
4.499239e-05,-2.988179e-05,7,1
-5.57199e-06,-0.000129714,7,1
-8.579432e-05,-0.0002305186,7,1
-0.0001436516,-0.0003347266,7,1
-0.0001436516,-0.0004540067,7,1
-8.692878e-05,-0.0005992171,7,1
-6.220252e-06,-0.0007637134,7,1
6.184718e-05,-0.0009155686,7,1
9.847395e-05,-0.00101459,7,1
0.0001033359,-0.001035821,7,1
8.405014e-05,-0.0009727777,7,1
5.601284e-05,-0.0008410186,7,1
3.753739e-05,-0.0006620985,7,1
4.466826e-05,-0.0004533584,7,1
8.858796e-05,-0.0002160948,7,1
0.0001686482,6.233338e-05,7,1
0.0002655633,0.0003916502,7,1
0.0003545372,0.0007514353,7,1
0.0004062361,0.001077673,7,1
0.000406074,0.001295003,7,1
0.0003582647,0.001347188,7,1
0.0002829043,0.001222074,7,1
0.0002030061,0.0009558,7,1
0.0001412592,0.000616759,7,1
0.0001078737,0.0002778803,7,1
0.000101067,-8.165035e-06,7,1
0.0001091703,-0.0002133397,7,1
0.0001125736,-0.0003340784,7,1
0.0001020394,-0.0003890185,7,1
8.340187e-05,-0.0004047388,7,1
6.881599e-05,-0.0004032803,7,1
5.99024e-05,-0.0003969597,7,1
5.698522e-05,-0.0003914495,7,1
5.99024e-05,-0.0003857772,7,1
6.362991e-05,-0.0003741085,7,1
7.076078e-05,-0.0003569296,7,1
7.935024e-05,-0.0003365093,7,1
8.583286e-05,-0.0003162512,7,1
8.291568e-05,-0.0002982619,7,1
6.703327e-05,-0.000283514,7,1
3.526847e-05,-0.000266011,7,1
-7.192643e-06,-0.0002420253,7,1
-4.835724e-05,-0.0002122053,7,1
-7.218083e-05,-0.0001849783,7,1
-6.780507e-05,-0.0001661787,7,1
-3.668853e-05,-0.0001611547,7,1
9.824215e-06,-0.0001648822,7,1
5.779555e-05,-0.0001702304,7,1
9.409818e-05,-0.0001703924,7,1
0.0001015532,-0.000161965,7,1
6.946425e-05,-0.0001468929,7,1
1.002961e-07,-0.000129714,7,1
-8.773911e-05,-0.0001143178,7,1
-0.0001697442,-0.0001020008,7,1
-0.0002222533,-8.806324e-05,7,1
-0.0002402425,-6.877746e-05,7,1
-0.0002384598,-4.722278e-05,7,1
-0.000246239,-2.955766e-05,7,1
-0.0002836761,-1.772689e-05,7,1
-0.0003441264,-1.173047e-05,7,1
-0.0004006872,-7.192643e-06,7,1
-0.0004134903,-7.100305e-07,7,1
-0.0003543365,7.393236e-06,7,1
-0.0002381357,1.22552e-05,7,1
-0.0001118868,7.393236e-06,7,1
-2.242678e-05,-8.813297e-06,7,1
1.160693e-05,-3.020592e-05,7,1
7.717366e-06,-4.90055e-05,7,1
-5.479652e-07,-6.456377e-05,7,1
1.257933e-05,-7.509801e-05,7,1
4.953022e-05,-8.40116e-05,7,1
9.020862e-05,-9.535618e-05,7,1
0.0001075496,-0.000107349,7,1
8.631905e-05,-0.0001173971,7,1
3.18651e-05,-0.0001253383,7,1
-4.009191e-05,-0.0001311726,7,1
-0.0001141558,-0.0001365208,7,1
-0.0001733096,-0.0001417068,7,1
-0.0001951884,-0.0001451102,7,1
-0.0001622891,-0.000147055,7,1
-7.736692e-05,-0.000147055,7,1
2.165498e-05,-0.0001455964,7,1
8.84259e-05,-0.000144462,7,1
9.361199e-05,-0.0001483515,7,1
3.98063e-05,-0.0001574272,7,1
-4.511593e-05,-0.0001674752,7,1
-0.0001232314,-0.0001731475,7,1
-0.0001603444,-0.0001695821,7,1
-0.0001402483,-0.0001622891,7,1
-7.720486e-05,-0.0001574272,7,1
-1.358292e-06,-0.0001527273,7,1
5.974033e-05,-0.0001467309,7,1
9.458438e-05,-0.0001349001,7,1
0.0001124116,-0.0001143178,7,1
0.0001289422,-8.871149e-05,7,1
0.0001634622,-6.261898e-05,7,1
0.0002148369,-4.47918e-05,7,1
0.0002594049,-4.398147e-05,7,1
0.0002613496,-6.083626e-05,7,1
0.0001939304,-8.660465e-05,7,1
5.828175e-05,-0.0001135075,7,1
-0.0001110765,-0.0001319829,7,1
-0.0002567732,-0.0001363587,7,1
-0.0003361852,-0.0001209625,7,1
-0.0003436402,-8.611845e-05,7,1
-0.0002955068,-3.733679e-05,7,1
-0.0002028055,1.59827e-05,7,1
-6.602235e-05,6.573675e-05,7,1
0.0001046324,0.0001000946,7,1
0.0002806354,0.000113546,7,1
0.0004380009,0.0001049566,7,1
0.0005614947,7.52986e-05,7,1
0.0006376655,3.154097e-05,7,1
0.0006475514,-1.67545e-05,7,1
0.0005755944,-5.986387e-05,7,1
0.0004201737,-9.017008e-05,7,1
0.0002093267,-0.0001078352,7,1
-7.678839e-06,-0.0001151281,7,1
-0.0001765509,-0.0001130213,7,1
-0.0002444563,-0.0001058904,7,1
-0.0001697442,-0.0001032974,7,1
6.03886e-05,-0.0001139937,7,1
0.0004054258,-0.0001402483,7,1
0.0007762314,-0.0001731475,7,1
0.001061953,-0.0001972953,7,1
0.001187392,-0.0001981056,7,1
0.001140879,-0.0001783336,7,1
0.0009694134,-0.0001551583,7,1
0.0007409012,-0.0001485136,7,1
0.0005141716,-0.0001648822,7,1
0.0003227724,-0.0001906506,7,1
0.0001686482,-0.0002071812,7,1
3.073064e-05,-0.0001968091,7,1
-0.0001099421,-0.0001431655,7,1
-0.0002556388,-3.085418e-05,7,1
-0.0003932322,0.000145635,7,1
-0.0005068399,0.0003709058,7,1
-0.0005828486,0.0006190279,7,1
-0.0006175305,0.0008600192,7,1
-0.0006078067,0.001073946,7,1
-0.000561456,0.001263562,7,1
-0.0004935506,0.001449776,7,1
-0.0004178661,0.00165803,7,1
-0.0003465574,0.001895619,7,1
-0.0002877277,0.002128507,7,1
-0.0002501286,0.002289115,7,1
-0.0002439701,0.002309859,7,1
-0.0002737901,0.002161407,7,1
-0.0003379679,0.001866933,7,1
-0.0004181903,0.001488023,7,1
-0.000482044,0.001101983,7,1
-0.0004992229,0.0007697488,7,1
-0.0004648651,0.0005193577,7,1
-0.00039777,0.0003487029,7,1
-0.0003272716,0.000235095,7,1
-0.0002827037,0.0001477418,7,1
-0.0002822175,6.152305e-05,7,1
-0.000325651,-3.63644e-05,7,1
-0.0003919357,-0.0001488377,7,1
-0.0004510895,-0.0002632558,7,1
-0.0004755614,-0.0003635742,7,1
-0.0004554653,-0.0004408794,7,1
-0.0004068457,-0.0004961436,7,1
-0.0003650328,-0.0005361738,7,1
-0.0003585502,-0.0005695592,7,1
-0.0003807532,-0.000603755,7,1
-0.0003922598,-0.0006449196,7,1
-0.00035304,-0.0006914323,7,1
-0.000253694,-0.0007390795,7,1
-9.973194e-05,-0.00077992,7,1
9.701536e-05,-0.0008027712,7,1
0.0003153174,-0.000802285,7,1
0.0005136854,-0.0007841337,7,1
0.0006481997,-0.0007590136,7,1
0.0006976296,-0.0007387554,7,1
0.0006733199,-0.0007266005,7,1
0.0006052523,-0.0007175248,7,1
0.0005230852,-0.0007063423,7,1
0.0004397836,-0.0006911082,7,1
0.0003551855,-0.0006753879,7,1
0.0002670219,-0.0006642053,7,1
0.000178048,-0.0006591813,7,1
9.328786e-05,-0.0006562641,7,1
1.889987e-05,-0.000650916,7,1
-4.009191e-05,-0.0006426507,7,1
-8.433573e-05,-0.0006330888,7,1
-0.000122097,-0.0006251476,7,1
-0.0001699062,-0.0006155858,7,1
-0.000228898,-0.0005964621,7,1
-0.0002825416,-0.0005638869,7,1
-0.0003130099,-0.0005198052,7,1
-0.0003055549,-0.0004708614,7,1
-0.000251101,-0.0004220798,7,1
-0.0001556445,-0.0003741085,7,1
-4.300908e-05,-0.000328244,7,1
6.055066e-05,-0.0002848105,7,1
0.0001354248,-0.000246239,7,1
0.0001756171,-0.000216419,7,1
0.0001900409,-0.0001959987,7,1
0.0001958752,-0.0001844921,7,1
0.000222616,-0.0001760647,7,1
0.0002911697,-0.0001642339,7,1
0.0003832228,-0.0001423551,7,1
0.0004478869,-0.0001084835,7,1
0.0004446456,-7.072225e-05,7,1
0.000383709,-3.782299e-05,7,1
0.0003140208,-1.221667e-05,7,1
0.0002807975,1.338965e-05,7,1
0.000294573,4.72613e-05,7,1
0.0003289309,9.361199e-05,7,1
0.0003579406,0.0001393144,7,1
0.0003707437,0.000162976,7,1
0.0003756057,0.0001540623,7,1
0.0003720403,0.0001143563,7,1
0.0003474063,5.698522e-05,7,1
0.0002901973,-3.14101e-06,7,1
0.0002064095,-5.727083e-05,7,1
0.0001205148,-0.0001138316,7,1
5.115087e-05,-0.0001914609,7,1
2.623614e-07,-0.0002899966,7,1
-4.317115e-05,-0.0003865875,7,1
-9.260107e-05,-0.0004515757,7,1
-0.0001562927,-0.0004734545,7,1
-0.0002332737,-0.0004565997,7,1
-0.000318196,-0.0004084663,7,1
-0.0003971218,-0.0003314853,7,1
-0.0004541688,-0.0002277635,7,1
-0.0004744269,-0.0001076731,7,1
-0.0004489826,-1.844488e-06,7,1
-0.0003791325,4.223728e-05,7,1
-0.0002734659,-1.124428e-05,7,1
-0.0001438137,-0.0001656925,7,1
-6.220252e-06,-0.0003781601,7,1
0.0001182459,-0.0005684248,7,1
0.0001924718,-0.0006546435,7,1
0.0001726999,-0.0005980827,7,1
4.612685e-05,-0.0004065215,7,1
-0.0001530514,-0.0001162626,7,1
-0.0003548227,0.0002444948,7,1
-0.0004940368,0.0006650545,7,1
-0.0005408737,0.001153682,7,1
-0.0005084606,0.001715888,7,1
-0.0004381243,0.002327525,7,1
-0.000365519,0.002922145,7,1
-0.0003057169,0.003397811,7,1
-0.0002577456,0.003642207,7,1
-0.000213988,0.003579002,7,1
-0.0001673132,0.003214838,7,1
-0.0001086455,0.002643391,7,1
-4.009191e-05,0.001991238,7,1
2.149292e-05,0.001371822,7,1
5.309566e-05,0.0008554814,7,1
4.191315e-05,0.0004662003,7,1
-5.89612e-06,0.0001936063,7,1
-6.699475e-05,3.179537e-06,7,1
-0.0001149661,-0.0001353863,7,1
-0.0001365208,-0.0002394322,7,1
-0.000134576,-0.0003115513,7,1
-0.0001177212,-0.0003491504,7,1
-9.19528e-05,-0.0003588744,7,1
-6.537409e-05,-0.0003656811,7,1
-5.143648e-05,-0.0003997148,7,1
-5.402952e-05,-0.0004779923,7,1
-6.180866e-05,-0.0005974344,7,1
-4.673658e-05,-0.0007418346,7,1
9.824215e-06,-0.0008888278,7,1
0.0001026876,-0.001019615,7,1
0.0002086784,-0.001125281,7,1
0.0002961937,-0.001205179,7,1
0.000339303,-0.00125704,7,1
0.0003311998,-0.001270816,7,1
0.0002859836,-0.001239537,7,1
0.0002281262,-0.00115656,7,1
0.0001761032,-0.001024639,7,1
0.0001436902,-0.0008575493,7,1
0.0001443384,-0.0006706879,7,1
0.000205275,-0.0004684305,7,1
0.0003373583,-0.0002417012,7,1
0.000502827,1.079661e-05,7,1
0.0006279415,0.0002563256,7,1
0.0006465791,0.0004315182,7,1
0.0005396159,0.0004788414,7,1
0.0003435168,0.0003854917,7,1
0.0001242423,0.0001981441,7,1
-5.22468e-05,-4.599598e-06,7,1
-0.0001391138,-0.0001600202,7,1
-0.0001152902,-0.0002381357,7,1
2.693341e-06,-0.0002331117,7,1
0.0001564933,-0.0001606685,7,1
0.0002762596,-4.949169e-05,7,1
0.0003260137,7.189524e-05,7,1
0.0003201794,0.0001840444,7,1
0.0002924662,0.000282094,7,1
0.0002725321,0.0003660439,7,1
0.0002654013,0.0004264942,7,1
0.0002582704,0.0004464283,7,1
0.0002386605,0.0004128807,7,1
0.0002096508,0.0003277964,7,1
0.0001846927,0.0002034923,7,1
0.0001718896,6.03886e-05,7,1
0.0001642725,-7.882551e-05,7,1
0.0001462832,-0.0001922712,7,1
0.0001075496,-0.0002669833,7,1
5.228533e-05,-0.0002979378,7,1
-6.706447e-06,-0.0002852967,7,1
-5.824322e-05,-0.0002378116,7,1
-0.0001018388,-0.00016942,7,1
-0.0001475412,-9.811128e-05,7,1
-0.0002042641,-4.236082e-05,7,1
-0.0002694143,-2.031993e-05,7,1
-0.0003272716,-3.847125e-05,7,1
-0.0003624398,-9.033215e-05,7,1
-0.00036795,-0.0001582375,7,1
-0.0003528779,-0.0002332737,7,1
-0.0003321336,-0.0003141443,7,1
-0.0003167374,-0.0003990665,7,1
-0.0003126857,-0.0004841508,7,1
-0.0003191683,-0.0005616181,7,1
-0.0003308371,-0.000618503,7,1
-0.0003340784,-0.0006429748,7,1
-0.0003154408,-0.0006329267,7,1
-0.0002723315,-0.0005992171,7,1
-0.0002169052,-0.0005604835,7,1
-0.0001690959,-0.0005253154,7,1
-0.0001350622,-0.0004974402,7,1
-0.0001068628,-0.0004750752,7,1
-7.542214e-05,-0.0004554653,7,1
-4.106429e-05,-0.0004337485,7,1
-1.99958e-05,-0.0004074939,7,1
-2.647842e-05,-0.0003765395,7,1
-5.937768e-05,-0.0003402368,7,1
-0.0001020008,-0.0002940482,7,1
-0.0001310105,-0.0002347323,7,1
-0.0001344139,-0.0001590478,7,1
-0.0001180453,-6.81292e-05,7,1
-9.2439e-05,3.024445e-05,7,1
-6.132246e-05,0.0001218114,7,1
-2.712668e-05,0.0001897167,7,1
3.017472e-06,0.0002232643,7,1
2.538249e-05,0.0002216436,7,1
3.850978e-05,0.0001931201,7,1
4.402e-05,0.0001441764,7,1
4.369587e-05,7.870197e-05,7,1
3.672706e-05,4.962256e-06,7,1
2.522042e-05,-6.699475e-05,7,1
1.987227e-05,-0.0001308485,7,1
3.040651e-05,-0.0001838438,7,1
5.811968e-05,-0.000231329,7,1
9.555677e-05,-0.0002796244,7,1
0.0001328318,-0.000333268,7,1
0.0001490383,-0.0003859393,7,1
0.0001219734,-0.0004332623,7,1
4.094075e-05,-0.0004781544,7,1
-8.206682e-05,-0.0005227224,7,1
-0.000216419,-0.00056648,7,1
-0.0003201407,-0.0006024585,7,1
-0.0003575778,-0.0006129927,7,1
-0.0003121996,-0.0005732867,7,1
-0.0001890299,-0.0004609755,7,1
-1.886135e-05,-0.0002703867,7,1
0.0001443384,-1.869928e-05,7,1
0.0002475741,0.0002662116,7,1
0.0002618358,0.0005678153,7,1
0.0001955511,0.0008904876,7,1
8.729144e-05,0.001245411,7,1
-1.351319e-05,0.001626265,7,1
-7.412562e-05,0.001996099,7,1
-7.947377e-05,0.002289763,7,1
-2.064406e-05,0.002438378,7,1
9.085688e-05,0.002398672,7,1
0.0002198609,0.002167727,7,1
0.0003187208,0.001796921,7,1
0.0003671783,0.001365664,7,1
0.0003793332,0.0009536931,7,1
0.0003958639,0.0006182176,7,1
0.0004449697,0.0003827366,7,1
0.0005217887,0.0002409294,7,1
0.0005864528,0.0001636242,7,1
0.0006031455,0.0001205148,7,1
0.0005590637,8.907416e-05,7,1
0.0004640934,5.666109e-05,7,1
0.0003347652,1.582063e-05,7,1
0.0001974959,-3.166451e-05,7,1
8.080883e-05,-8.044617e-05,7,1
2.623614e-07,-0.0001219349,7,1
-4.738484e-05,-0.0001533756,7,1
-7.55842e-05,-0.0001749302,7,1
-0.0001107524,-0.0001895161,7,1
-0.00018433,-0.0001987538,7,1
-0.0003066893,-0.0002053985,7,1
-0.0004609755,-0.0002117191,7,1
-0.000611048,-0.0002230636,7,1
-0.000715418,-0.0002412149,7,1
-0.0007471828,-0.0002603387,7,1
-0.000700508,-0.0002666592,7,1
-0.0005867381,-0.0002485079,7,1
-0.0004410415,-0.000196647,7,1
-0.0003091203,-0.0001133454,7,1
-0.0002207947,-1.367526e-05,7,1
-0.0001812508,7.57848e-05,7,1
-0.0001802784,0.0001253768,7,1
-0.0002028055,0.000113384,7,1
-0.0002156086,4.013043e-05,7,1
-0.0001733096,-7.60704e-05,7,1
-5.240886e-05,-0.0001998883,7,1
0.0001300767,-0.0002997205,7,1
0.0003260137,-0.0003616295,7,1
0.0004945617,-0.0003929081,7,1
0.000616597,-0.0004089525,7,1
0.0006785059,-0.0004181903,7,1
0.0006657028,-0.0004188385,7,1
0.000577215,-0.0004104111,7,1
0.0004305459,-0.0003912874,7,1
0.0002589186,-0.0003613053,7,1
8.939829e-05,-0.0003230579,7,1
-5.64605e-05,-0.0002815692,7,1
-0.0001541859,-0.0002400805,7,1
-0.0001783336,-0.0002023193,7,1
-0.0001225832,-0.0001763888,7,1
-1.562004e-05,-0.0001687718,7,1
8.875003e-05,-0.000184168,7,1
0.0001410971,-0.0002177155,7,1
0.0001279698,-0.0002601766,7,1
7.270556e-05,-0.0002997205,7,1
1.808955e-05,-0.0003241924,7,1
-2.330684e-06,-0.0003290543,7,1
1.695509e-05,-0.0003147926,7,1
4.969229e-05,-0.0002864312,7,1
7.20573e-05,-0.0002472114,7,1
7.497447e-05,-0.0002028055,7,1
6.298164e-05,-0.0001632615,7,1
4.061663e-05,-0.0001365208,7,1
1.22552e-05,-0.0001229073,7,1
-1.578211e-05,-0.0001235555,7,1
-3.733679e-05,-0.0001410586,7,1
-5.386745e-05,-0.000166827,7,1
-6.764301e-05,-0.0001861127,7,1
-7.914964e-05,-0.0001947022,7,1
-8.773911e-05,-0.0001968091,7,1
-9.049421e-05,-0.0001982676,7,1
-9.276313e-05,-0.0001976194,7,1
-0.0001029732,-0.0001935677,7,1
-0.0001310105,-0.0001925954,7,1
-0.000176713,-0.0002039399,7,1
-0.000226467,-0.0002353806,7,1
-0.0002528836,-0.0002874036,7,1
-0.0002344082,-0.0003528779,7,1
-0.0001776853,-0.0004123559,7,1
-0.0001190177,-0.0004402311,7,1
-0.0001034594,-0.0004154351,7,1
-0.0001455964,-0.0003264613,7,1
-0.0002276015,-0.0001820611,7,1
-0.0003102548,-5.479652e-07,7,1
-0.0003624398,0.0002051129,7,1
-0.0003697327,0.0004229288,7,1
-0.0003314853,0.0006477135,7,1
-0.0002554767,0.0008652053,7,1
-0.0001554824,0.001040236,7,1
-4.90055e-05,0.00111981,7,1
4.628891e-05,0.001071191,7,1
0.0001188942,0.0009073424,7,1
0.0001620036,0.000683692,7,1
0.0001798307,0.0004684692,7,1
0.0001833962,0.0003114278,7,1
0.0001799928,0.0002299089,7,1
0.0001634622,0.0002106232,7,1
0.0001197045,0.0002308813,7,1
5.390598e-05,0.0002743149,7,1
1.501031e-05,0.0003310377,7,1
6.217132e-05,0.0003987811,7,1
0.0002075439,0.0004734932,7,1
0.0003999155,0.0005430193,7,1
0.0005460985,0.0005788357,7,1
0.0005700842,0.0005517708,7,1
0.0004566384,0.0004474007,7,1
0.0002550291,0.0002710735,7,1
4.434413e-05,5.163707e-05,7,1
-0.000117235,-0.0001750923,7,1
-0.0002092881,-0.0003794566,7,1
-0.000246239,-0.0005410357,7,1
-0.0002496423,-0.0006444334,7,1
-0.0002381357,-0.0006838153,7,1
-0.0002186879,-0.0006643674,7,1
-0.0001925954,-0.0005943552,7,1
-0.0001601823,-0.0004812336,7,1
-0.0001188556,-0.000333268,7,1
-7.201877e-05,-0.0001587237,7,1
-2.534396e-05,3.60788e-05,7,1
1.322759e-05,0.0002482223,7,1
3.332369e-05,0.0004713863,7,1
3.154097e-05,0.000688554,7,1
9.66215e-06,0.0008642329,7,1
-2.809907e-05,0.0009604999,7,1
-7.169464e-05,0.0009517483,7,1
-0.0001036215,0.0008426782,7,1
-0.0001084835,0.0006626236,7,1
-7.412562e-05,0.0004517764,7,1
2.531276e-06,0.0002504913,7,1
0.000108522,8.550872e-05,7,1
0.0002159713,-3.134038e-05,7,1
0.0002927903,-0.0001081593,7,1
0.0003196932,-0.000161965,7,1
0.0002997591,-0.0002102605,7,1
0.0002456293,-0.0002617972,7,1
0.0001723757,-0.0003156029,7,1
9.912221e-05,-0.0003708672,7,1
4.337174e-05,-0.0004248349,7,1
1.274139e-05,-0.0004729683,7,1
3.341602e-06,-0.0005152673,7,1
1.883015e-06,-0.000544115,7,1
-1.25408e-05,-0.0005562698,7,1
-5.500191e-05,-0.0005575664,7,1
-0.0001253383,-0.0005630766,7,1
-0.0002055606,-0.0005891691,7,1
-0.0002695764,-0.000640868,7,1
-0.0002930758,-0.0007163903,7,1
-0.0002653627,-0.0008124951,7,1
-0.0001951884,-0.0009252926,7,1
-0.0001024871,-0.001039062,7,1
-3.789272e-06,-0.001129981,7,1
8.956036e-05,-0.001179573,7,1
0.0001598967,-0.001188,7,1
0.0001890685,-0.001171146,7,1
0.0001649207,-0.00114716,7,1
0.0001033359,-0.001120743,7,1
4.35338e-05,-0.001074393,7,1
1.873781e-05,-0.0009719674,7,1
3.883391e-05,-0.0007787855,7,1
8.988449e-05,-0.0004825302,7,1
0.0001461212,-0.0001114006,7,1
0.0001765894,0.0002833905,7,1
0.0001644345,0.0006598685,7,1
0.0001124116,0.001017547,7,1
4.239934e-05,0.001375874,7,1
-2.583016e-05,0.001748463,7,1
-7.461182e-05,0.002109384,7,1
-9.017008e-05,0.002395916,7,1
-6.39155e-05,0.002536266,7,1
-7.678839e-06,0.00248327,7,1
5.811968e-05,0.002233364,7,1
0.0001086841,0.00183922,7,1
0.0001229458,0.001382843,7,1
8.583286e-05,0.0009572586,7,1
-6.868513e-06,0.0006391241,7,1
-0.0001386276,0.0004634451,7,1
-0.0002758969,0.0004222805,7,1
-0.0003870737,0.0004846757,7,1
-0.0004431483,0.0006151384,7,1
-0.0004143007,0.0007867657,7,1
-0.0002867553,0.0009639032,7,1
-7.785312e-05,0.00108837,7,1
0.000168162,0.001108952,7,1
0.0003901916,0.001007337,7,1
0.0005392918,0.0008026481,7,1
0.0005914768,0.0005358884,7,1
0.0005514466,0.0002495189,7,1
0.0004389733,-2.501983e-05,7,1
0.0002811216,-0.0002655248,7,1
0.0001172735,-0.00046211,7,1
-2.437157e-05,-0.0006170443,7,1
-0.0001302002,-0.0007387554,7,1
-0.0001940539,-0.0008372911,7,1
-0.000213988,-0.0009173513,7,1
-0.0001869231,-0.0009789361,7,1
-0.000114804,-0.001020425,7,1
-1.643037e-05,-0.00104279,7,1
7.254349e-05,-0.001050731,7,1
0.0001156529,-0.001052028,7,1
0.00010366,-0.001057214,7,1
5.1475e-05,-0.001073906,7,1
-1.707863e-05,-0.001101133,7,1
-7.623246e-05,-0.001132088,7,1
-9.827335e-05,-0.001153967,7,1
-7.218083e-05,-0.001156884,7,1
-2.42095e-05,-0.001135977,7,1
-6.176923e-08,-0.001093354,7,1
-2.955766e-05,-0.001038252,7,1
-0.0001128592,-0.000978774,7,1
-0.0002371633,-0.0009228616,7,1
-0.0003745947,-0.000871811,7,1
-0.0004859335,-0.0008236776,7,1
-0.0005181845,-0.000772465,7,1
-0.0004353692,-0.0007099077,7,1
-0.0002465631,-0.0006351956,7,1
-5.89612e-06,-0.000554001,7,1
0.0002148369,-0.0004766958,7,1
0.0003577785,-0.0004133283,7,1
0.0004059119,-0.000365357,7,1
0.0003772264,-0.0003259751,7,1
0.0003057555,-0.0002836761,7,1
0.0002265056,-0.0002331117,7,1
0.0001702689,-0.0001710407,7,1
0.0001551968,-9.211487e-05,7,1
0.0001799928,2.531276e-06,7,1
0.0002196988,0.0001081979,7,1
0.0002453052,0.0002172679,7,1
0.0002365536,0.0003203414,7,1
0.0001961994,0.0004055878,7,1
0.0001402868,0.0004647417,7,1
8.826383e-05,0.000495372,7,1
5.115087e-05,0.0004997478,7,1
2.829966e-05,0.0004867825,7,1
1.808955e-05,0.0004683071,7,1
1.290346e-05,0.0004576108,7,1
4.80019e-06,0.0004634451,7,1
-5.57199e-06,0.0004832171,7,1
-2.064406e-05,0.0005057442,7,1
-4.203669e-05,0.0005195198,7,1
-7.801519e-05,0.0005211404,7,1
-0.0001392759,0.0005089855,7,1
-0.0002232257,0.0004809482,7,1
-0.0003013411,0.0004349216,7,1
-0.0003345645,0.0003743092,7,1
-0.000301017,0.0003086727,7,1
-0.0002198223,0.0002495189,7,1
-0.0001344139,0.0002039785,7,1
-8.255302e-05,0.0001772377,7,1
-7.493595e-05,0.0001728619,7,1
-9.454585e-05,0.0001900409,7,1
-0.0001201522,0.0002255332,7,1
-0.0001360346,0.0002751252,7,1
-0.0001318209,0.0003371962,7,1
-0.0001031353,0.000416122,7,1
-5.905355e-05,0.0005036374,7,1
-8.327101e-06,0.0005673291,7,1
3.737532e-05,0.0005658705,7,1
6.622294e-05,0.0004832171,7,1
6.978839e-05,0.0003311998,7,1
4.499239e-05,0.0001352628,7,1
-2.978945e-06,-8.660465e-05,7,1
-5.970181e-05,-0.0003204649,7,1
-0.0001104282,-0.0005502735,7,1
-0.0001501342,-0.0007658203,7,1
-0.000186761,-0.0009570573,7,1
-0.0002326255,-0.001116368,7,1
-0.0002942103,-0.001240347,7,1
-0.0003640605,-0.001328997,7,1
-0.0004243487,-0.001393823,7,1
-0.0004551412,-0.001447305,7,1
-0.0004381243,-0.001481177,7,1
-0.0003574158,-0.001463025,7,1
-0.0002081536,-0.001358817,7,1
1.396819e-06,-0.001155749,7,1
0.0002334744,-0.0008659766,7,1
0.0004237391,-0.0005061917,7,1
0.0005055821,-7.979791e-05,7,1
0.0004569625,0.0004336251,7,1
0.0003235827,0.00105077,7,1
0.0001919856,0.001757701,7,1
0.0001292664,0.002494777,7,1
0.0001459591,0.003167514,7,1
0.0002072198,0.003670083,7,1
0.000267346,0.003919342,7,1
0.0002979764,0.003899408,7,1
0.000299435,0.003657928,7,1
0.0002795009,0.00327383,7,1
0.0002378501,0.002817937,7,1
0.0001615174,0.002329794,7,1
4.126489e-05,0.001822365,7,1
-0.0001135075,0.00131283,7,1
-0.0002809209,0.0008383025,7,1
-0.0004345588,0.0004402698,7,1
-0.000554163,0.0001477418,7,1
-0.0006253097,-3.798505e-05,7,1
-0.0006197995,-0.0001384655,7,1
-0.0004961436,-0.0001880575,7,1
-0.0002287359,-0.0002217671,7,1
0.0001321835,-0.0002598524,7,1
0.0004684692,-0.0003112272,7,1
0.0006767232,-0.0003776739,7,1
0.0007274497,-0.0004564377,7,1
0.0006606788,-0.0005395772,7,1
0.0005507984,-0.000623527,7,1
0.0004503179,-0.0006975908,7,1
0.0003666921,-0.0007559343,7,1
0.0002832284,-0.0007953162,7,1
0.0001918236,-0.0008193018,7,1
0.0001017153,-0.000837129,7,1
2.846173e-05,-0.0008616009,7,1
-1.318906e-05,-0.000891745,7,1
-2.291298e-05,-0.0009188099,7,1
-1.529591e-05,-0.0009359888,7,1
-9.947754e-06,-0.0009444162,7,1
-1.3027e-05,-0.000946361,7,1
-2.388537e-05,-0.000943768,7,1
-4.608832e-05,-0.0009369612,7,1
-8.465986e-05,-0.0009251304,7,1
-0.0001358725,-0.0009098963,7,1
-0.0001765509,-0.0008899623,7,1
-0.0001723372,-0.0008624112,7,1
-0.000104756,-0.0008244879,7,1
2.295151e-05,-0.0007744097,7,1
0.0001785342,-0.0007191455,7,1
0.000316938,-0.0006700397,7,1
0.0004057499,-0.0006314681,7,1
0.0004402698,-0.0005982448,7,1
0.0004409181,-0.0005630766,7,1
0.0004313562,-0.0005246671,7,1
0.0004224426,-0.0004909576,7,1
0.0004101256,-0.0004651892,7,1
0.0003858158,-0.0004442827,7,1
0.0003464339,-0.0004246728,7,1
0.0002892249,-0.0004011734,7,1
0.0002132162,-0.0003734602,7,1
0.0001175977,-0.0003428299,7,1
2.531276e-06,-0.0003139823,7,1
-0.0001258245,-0.0002890242,7,1
-0.0002412149,-0.0002635799,7,1
-0.0003170615,-0.000231491,7,1
-0.0003462333,-0.0001883817,7,1
-0.0003365093,-0.0001373311,7,1
-0.0002942103,-8.352541e-05,7,1
-0.000221605,-3.717473e-05,7,1
-0.0001337657,-6.868513e-06,7,1
-5.889148e-05,1.234753e-06,7,1
-2.145439e-05,-1.545797e-05,7,1
-2.356124e-05,-5.046408e-05,7,1
-4.916756e-05,-9.179074e-05,7,1
-7.542214e-05,-0.0001261486,7,1
-8.368748e-05,-0.0001451102,7,1
-7.266703e-05,-0.0001468929,7,1
-6.180866e-05,-0.0001357104,7,1
-7.137051e-05,-0.0001182074,7,1
-0.0001075111,-0.0001008664,7,1
-0.0001682856,-8.854943e-05,7,1
-0.000243808,-8.190475e-05,7,1
-0.0003186821,-8.044617e-05,7,1
-0.0003799429,-7.931171e-05,7,1
-0.0004246728,-7.33153e-05,7,1
-0.0004632444,-6.229485e-05,7,1
-0.0005008436,-5.078821e-05,7,1
-0.0005196431,-4.317115e-05,7,1
-0.0004972781,-4.414354e-05,7,1
-0.0004287245,-5.078821e-05,7,1
-0.000325813,-5.581224e-05,7,1
-0.000221605,-4.949169e-05,7,1
-0.0001561307,-2.583016e-05,7,1
-0.0001541859,1.063454e-05,7,1
-0.0002029675,4.969229e-05,7,1
-0.0002548284,8.356394e-05,7,1
-0.0002480217,0.0001077117,7,1
-0.0001473791,0.0001231079,7,1
2.829966e-05,0.0001334801,7,1
0.00021273,0.0001373696,7,1
0.0003277964,0.0001305629,7,1
0.0003260137,0.0001137081,7,1
0.000215161,9.458438e-05,7,1
4.45062e-05,8.583286e-05,7,1
-0.0001219349,9.847395e-05,7,1
-0.0002358668,0.0001310491,7,1
-0.0002796244,0.0001726999,7,1
-0.0002558008,0.0002114335,7,1
-0.0001771992,0.0002394708,7,1
-6.504996e-05,0.0002563256,7,1
5.309566e-05,0.0002658874,7,1
0.0001527658,0.0002717218,7,1
0.0002179161,0.0002741528,7,1
0.0002470879,0.0002757735,7,1
0.0002448189,0.0002754493,7,1
0.0002132162,0.0002767458,7,1
0.0001563313,0.0002858215,7,1
8.680524e-05,0.000304297,7,1
2.522042e-05,0.0003303894,7,1
-2.113026e-05,0.0003530786,7,1
-6.148453e-05,0.000356644,7,1
-9.19528e-05,0.0003363859,7,1
-7.898758e-05,0.0002987867,7,1
7.879432e-06,0.0002602152,7,1
0.0001569795,0.0002316917,7,1
0.0003180725,0.0002159713,7,1
0.0004349216,0.0002039785,7,1
0.0004752759,0.0001892305,7,1
0.0004495075,0.000163138,7,1
0.0003908399,0.000118408,7,1
0.0003297412,5.666109e-05,7,1
0.0002864697,-9.299493e-06,7,1
0.0002749631,-6.407757e-05,7,1
0.0003015418,-9.730096e-05,7,1
0.0003524304,-0.0001101041,7,1
0.0003916502,-0.0001062146,7,1
0.0003824125,-8.854943e-05,7,1
0.0003065659,-6.099833e-05,7,1
0.0001686482,-2.550602e-05,7,1
-1.844488e-06,2.359977e-05,7,1
-0.0001637477,9.101894e-05,7,1
-0.0002789762,0.0001733481,7,1
-0.0003295405,0.0002645909,7,1
-0.0003259751,0.0003629646,7,1
-0.0002997205,0.0004741415,7,1
-0.0002841623,0.0006049282,7,1
-0.0003018274,0.0007512733,7,1
-0.0003575778,0.0008937289,7,1
-0.0004378002,0.000995344,7,1
-0.0005139708,0.001022571,7,1
-0.0005478425,0.000975734,7,1
-0.000512026,0.000879143,7,1
-0.0004170558,0.000752894,7,1
-0.0003117133,0.000596987,7,1
-0.0002429977,0.0003969983,7,1
-0.0002340841,0.0001571416,7,1
-0.0002733039,-9.66527e-05,7,1
-0.0003188442,-0.0003316474,7,1
-0.0003121996,-0.000539253,7,1
-0.0002183637,-0.0007288694,7,1
-5.32192e-05,-0.0009061688,7,1
0.0001312112,-0.001064831,7,1
0.0002762596,-0.001188973,7,1
0.0003499994,-0.001258175,7,1
0.0003525924,-0.001256554,7,1
0.0003002453,-0.001188487,7,1
0.0002169437,-0.001081523,7,1
0.0001355869,-0.0009604607,7,1
8.275361e-05,-0.0008175191,7,1
6.849186e-05,-0.0006121824,7,1
8.664318e-05,-0.0003055549,7,1
0.000123432,9.847395e-05,7,1
0.0001600588,0.0005459364,7,1
0.0001856651,0.0009627688,7,1
0.0002010613,0.001295489,7,1
0.0002214815,0.001544422,7,1
0.0002584324,0.00176159,7,1
0.0002971661,0.002000962,7,1
0.0003125623,0.002260267,7,1
0.0002942489,0.002475005,7,1
0.0002516257,0.002538535,7,1
0.0002067336,0.002368203,7,1
0.0001796687,0.001958338,7,1
0.0001746447,0.001384139,7,1
0.000180479,0.0007626179,7,1
0.0001871237,0.0002111094,7,1
0.0001924718,-0.0001932436,7,1
0.0001979821,-0.0004308313,7,1
0.0002161334,-0.0005290429,7,1
0.0002655633,-0.0005309877,7,1
0.0003410858,-0.0004838267,7,1
0.0004068843,-0.0004212695,7,1
0.0004303838,-0.0003591985,7,1
0.0004044533,-0.0003039342,7,1
0.0003512959,-0.0002634179,7,1
0.0002947351,-0.0002402425,7,1
0.0002543808,-0.0002329496,7,1
0.0002467637,-0.0002329496,7,1
0.0002833905,-0.0002321393,7,1
0.0003508097,-0.0002263049,7,1
0.0004190393,-0.000224036,7,1
0.000453235,-0.000243808,7,1
0.0004303838,-0.0003019894,7,1
0.0003519442,-0.0004018217,7,1
0.0002384984,-0.0005313118,7,1
0.0001172735,-0.0006714982,7,1
1.160693e-05,-0.0008006644,7,1
-6.586029e-05,-0.0009030896,7,1
-0.0001101041,-0.0009671054,7,1
-0.0001350622,-0.0009875257,7,1
-0.0001645581,-0.0009688881,7,1
-0.0002287359,-0.0009261029,7,1
-0.0003402368,-0.0008779695,7,1
-0.0004925782,-0.0008423151,7,1
-0.0006703638,-0.0008265948,7,1
-0.0008381014,-0.0008238396,7,1
-0.0009476576,-0.0008249741,7,1
-0.0009526816,-0.0008220569,7,1
-0.0008359946,-0.0008052022,7,1
-0.0006288751,-0.0007637134,7,1
-0.0003964735,-0.0006891634,7,1
-0.000209126,-0.0005802555,7,1
-0.0001076731,-0.0004384484,7,1
-9.29252e-05,-0.0002715212,7,1
-0.0001389517,-9.568031e-05,7,1
-0.0002078295,6.703327e-05,7,1
-0.0002718453,0.0001916615,7,1
-0.0003130099,0.0002611876,7,1
-0.0003243544,0.0002636185,7,1
-0.0003076617,0.0001932822,7,1
-0.0002746004,5.293359e-05,7,1
-0.0002382978,-0.0001399241,7,1
-0.0002092881,-0.0003541745,7,1
-0.0001912988,-0.0005562698,7,1
-0.0001854645,-0.0007222248,7,1
-0.0001854645,-0.0008457185,7,1
-0.000174282,-0.0009372854,7,1
-0.0001342519,-0.001009242,7,1
-6.942573e-05,-0.001072448,7,1
-1.156841e-05,-0.001124957,7,1
1.22552e-05,-0.001151536,7,1
6.420843e-06,-0.00113306,7,1
6.90704e-06,-0.001059158,7,1
5.050261e-05,-0.0009343682,7,1
0.000145635,-0.0007740856,7,1
0.0002642668,-0.0005925725,7,1
0.000356482,-0.0003916115,7,1
0.0003867882,-0.0001695821,7,1
0.0003556717,6.735741e-05,7,1
0.0002819319,0.0002971661,7,1
0.0001911753,0.0004858102,7,1
9.960841e-05,0.0005958526,7,1
1.792748e-05,0.0006076833,7,1
-4.495386e-05,0.0005321609,7,1
-7.704279e-05,0.0004038051,7,1
-6.91016e-05,0.0002654013,7,1
-2.0482e-05,0.0001587623,7,1
5.179914e-05,0.0001132219,7,1
0.0001158149,0.0001360731,7,1
0.0001462832,0.0001924718,7,1
0.0001367214,0.0002260194,7,1
0.0001041462,0.0002021958,7,1
6.800567e-05,0.0001300767,7,1
4.709924e-05,5.99024e-05,7,1
5.358185e-05,4.72613e-05,7,1
7.659513e-05,0.0001219734,7,1
8.74535e-05,0.0002882525,7,1
5.893001e-05,0.0005435055,7,1
-2.064406e-05,0.0008906497,7,1
-0.000134738,0.001332764,7,1
-0.0002402425,0.001848944,7,1
-0.0002862691,0.002375172,7,1
-0.0002442942,0.002813885,7,1
-0.0001162626,0.003071085,7,1
6.703327e-05,0.003091505,7,1
0.0002538946,0.002877091,7,1
0.0003934329,0.002487646,7,1
0.0004577728,0.002010199,7,1
0.000440756,0.001525461,7,1
0.0003589129,0.00108529,7,1
0.0002440086,0.0007198326,7,1
0.0001279698,0.0004373526,7,1
2.846173e-05,0.000235095,7,1
-3.992984e-05,9.847395e-05,7,1
-6.861539e-05,1.063454e-05,7,1
-4.949169e-05,-4.544006e-05,7,1
1.436204e-05,-8.433573e-05,7,1
9.879808e-05,-0.0001193418,7,1
0.0001728619,-0.0001554824,7,1
0.0002099749,-0.0001948643,7,1
0.0002059233,-0.0002379736,7,1
0.0001736723,-0.0002827037,7,1
0.000125863,-0.0003295405,7,1
6.362991e-05,-0.000377836,7,1
-1.075808e-05,-0.0004227281,7,1
-9.098041e-05,-0.0004611376,7,1
-0.0001682856,-0.0004906334,7,1
-0.0002295462,-0.0005126743,7,1
-0.0002566112,-0.0005301774,7,1
-0.0002400805,-0.0005457356,7,1
-0.0001844921,-0.0005645352,7,1
-0.000102325,-0.0005881967,7,1
5.86492e-07,-0.0006165582,7,1
0.0001248906,-0.0006470265,7,1
0.0002631324,-0.0006736051,7,1
0.0003905157,-0.0006909461,7,1
0.0004739794,-0.0006984011,7,1
0.0004887274,-0.0006966184,7,1
0.0004305459,-0.0006893255,7,1
0.0003179104,-0.0006768464,7,1
0.0001801549,-0.0006651777,7,1
4.110282e-05,-0.0006575607,7,1
-8.854943e-05,-0.000653347,7,1
-0.0002104225,-0.0006551297,7,1
-0.0003219235,-0.0006638812,7,1
-0.0004130042,-0.0006797637,7,1
-0.0004658375,-0.0006953219,7,1
-0.0004609755,-0.0007040734,7,1
-0.0003995528,-0.0007061802,7,1
-0.0003060411,-0.0007042355,7,1
-0.0002125294,-0.0006993735,7,1
-0.0001399241,-0.0006951598,7,1
-9.049421e-05,-0.0006922426,7,1
-4.738484e-05,-0.0006857601,7,1
6.258778e-06,-0.0006711741,7,1
8.226741e-05,-0.0006463782,7,1
0.0001790204,-0.0006155858,7,1
0.0002777182,-0.0005805797,7,1
0.0003508097,-0.0005424943,7,1
0.0003793332,-0.0005023021,7,1
0.0003587509,-0.0004587066,7,1
0.0002955454,-0.0004128421,7,1
0.0002059233,-0.0003648708,7,1
0.0001093323,-0.0003130099,7,1
2.100672e-05,-0.0002577456,7,1
-5.565017e-05,-0.0001994021,7,1
-0.0001199901,-0.000142031,7,1
-0.0001673132,-8.692878e-05,7,1
-0.0001968091,-3.198864e-05,7,1
-0.0002253326,2.829966e-05,7,1
-0.0002797865,0.0001004187,7,1
-0.0003810773,0.0001814514,7,1
-0.0005199672,0.000262322,7,1
-0.0006603158,0.0003370341,7,1
-0.000752855,0.0004073705,7,1
-0.0007648479,0.0004783552,7,1
-0.0006949978,0.0005535535,7,1
-0.000556756,0.0006331276,7,1
-0.000365519,0.0007068674,7,1
-0.0001428413,0.0007644006,7,1
7.886404e-05,0.0007971379,7,1
0.0002634565,0.0008063756,7,1
0.0003832228,0.0007981102,7,1
0.0004307079,0.000777528,7,1
0.0004179048,0.0007376599,7,1
0.0003684748,0.000673644,7,1
0.0003128864,0.0005875872,7,1
0.0002817699,0.0004898618,7,1
0.0002866318,0.000393757,7,1
0.000319369,0.0003156415,7,1
0.0003621543,0.0002639427,7,1
0.0003982949,0.0002407673,7,1
0.0004140152,0.0002443328,7,1
0.00040105,0.0002636185,7,1
0.0003621543,0.000282094,7,1
0.0003096451,0.0002913317,7,1
0.0002551911,0.0002906835,7,1
0.0002049509,0.0002833905,7,1
0.0001592484,0.0002704253,7,1
0.0001120874,0.0002511395,7,1
5.471631e-05,0.0002271538,7,1
-1.432352e-05,0.0001981441,7,1
-8.433573e-05,0.0001675138,7,1
-0.0001358725,0.0001396385,7,1
-0.0001562927,0.000120839,7,1
-0.0001480274,0.0001140322,7,1
-0.0001190177,0.0001171115,7,1
-8.773911e-05,0.0001250527,7,1
-6.926366e-05,0.0001321835,7,1
-7.412562e-05,0.0001354248,7,1
-0.0001083214,0.0001339663,7,1
-0.0001757406,0.0001252147,7,1
-0.0002673075,0.0001081979,7,1
-0.0003651949,8.567078e-05,7,1
-0.0004541688,6.46023e-05,7,1
-0.0005222362,5.163707e-05,7,1
-0.0005661559,4.77475e-05,7,1
-0.0005804176,4.920609e-05,7,1
-0.0005671282,4.807163e-05,7,1
-0.0005379565,3.899597e-05,7,1
-0.0005091089,2.39239e-05,7,1
-0.0004878783,1.144487e-05,7,1
-0.0004643789,1.241726e-05,7,1
-0.0004097628,2.748934e-05,7,1
-0.0002968033,4.888196e-05,7,1
-0.0001319829,6.78436e-05,7,1
4.434413e-05,7.594687e-05,7,1
0.0001795066,6.573675e-05,7,1
0.0002530843,3.235129e-05,7,1
0.0002940868,-1.869928e-05,7,1
0.0003397893,-7.65566e-05,7,1
0.0003890571,-0.0001361966,7,1
0.0004188772,-0.0001934057,7,1
0.000416122,-0.0002425115,7,1
0.0003858158,-0.0002788141,7,1
0.0003373583,-0.0003120375,7,1
0.0002756114,-0.0003540124,7,1
0.0002128921,-0.0004087905,7,1
0.0001642725,-0.0004629203,7,1
0.0001422316,-0.0005050572,7,1
0.0001459591,-0.00053666,7,1
0.0001586002,-0.0005598353,7,1
0.0001504969,-0.0005762039,7,1
0.0001026876,-0.0005847933,7,1
1.873781e-05,-0.0005867381,7,1
-7.444975e-05,-0.0005870623,7,1
-0.0001421931,-0.000591276,7,1
-0.0001608306,-0.0006039171,7,1
-0.0001311726,-0.0006222305,7,1
-7.380149e-05,-0.0006394094,7,1
-4.437533e-06,-0.000640868,7,1
6.573675e-05,-0.0006069963,7,1
0.0001300767,-0.0005258016,7,1
0.0001819376,-0.0003974459,7,1
0.000225047,-0.0002332737,7,1
0.0002611876,-4.949169e-05,7,1
0.0002927903,0.0001401247,7,1
0.0003166139,0.0003311998,7,1
0.0003218,0.0005308643,7,1
0.0003007315,0.0007464114,7,1
0.0002443328,0.0009673066,7,1
0.0001521176,0.001160327,7,1
3.867184e-05,0.001279931,7,1
-6.764301e-05,0.001286576,7,1
-0.0001381414,0.001171023,7,1
-0.0001530514,0.0009619584,7,1
-0.0001152902,0.0007190223,7,1
-4.835724e-05,0.0005065545,7,1
2.149292e-05,0.000368799,7,1
7.708133e-05,0.0003154794,7,1
0.000115977,0.0003180725,7,1
0.000140773,0.0003425444,7,1
0.0001623277,0.0003584268,7,1
0.0001874478,0.0003474063,7,1
0.0002117576,0.0003060797,7,1
0.0002222919,0.0002384984,7,1
0.0002094887,0.0001501728,7,1
0.0001712413,4.77475e-05,7,1
0.0001218114,-5.953974e-05,7,1
8.129502e-05,-0.0001608306,7,1
6.476436e-05,-0.0002499665,7,1
7.708133e-05,-0.0003253268,7,1
0.0001138702,-0.0003869116,7,1
0.0001621656,-0.0004267797,7,1
0.0002033302,-0.0004413656,7,1
0.0002166196,-0.0004382863,7,1
0.0001900409,-0.0004248349,7,1
0.0001232699,-0.000402632,7,1
2.554455e-05,-0.0003648708,7,1
-7.866345e-05,-0.0003144685,7,1
-0.000156941,-0.0002624455,7,1
-0.0001865989,-0.0002222533,7,1
-0.000174282,-0.0001972953,7,1
-0.000144624,-0.0001801163,7,1
-0.0001303623,-0.0001530514,7,1
-0.000159372,-9.535618e-05,7,1
-0.0002391081,1.144487e-05,7,1
-0.0003462333,0.0001749688,7,1
-0.000449955,0.000386302,7,1
-0.00052175,0.000634262,7,1
-0.0005552975,0.0009091251,7,1
-0.0005535148,0.00119744,7,1
-0.0005236948,0.001470196,7,1
-0.0004705373,0.001663378,7,1
-0.0003974459,0.001699357,7,1
-0.0003005308,0.001531457,7,1
-0.0001695821,0.001176047,7,1
-4.113403e-06,0.0007089743,7,1
0.0001782101,0.0002406053,7,1
0.0003478926,-0.0001366828,7,1
0.0004618245,-0.0003770257,7,1
0.0004801379,-0.0004852853,7,1
0.0003908399,-0.0004954954,7,1
0.0002297469,-0.000457248,7,1
6.362991e-05,-0.0004128421,7,1
-3.798505e-05,-0.0003914495,7,1
-3.847125e-05,-0.0004057112,7,1
4.580272e-05,-0.000457248,7,1
0.0001684862,-0.0005358497,7,1
0.0002843629,-0.0006228787,7,1
0.0003697714,-0.0006953219,7,1
0.000425846,-0.0007340555,7,1
0.0004626348,-0.0007335693,7,1
0.0004906721,-0.0007048837,7,1
0.0005072028,-0.0006646916,7,1
0.0005026649,-0.0006298475,7,1
0.0004721967,-0.0006073205,7,1
0.0004133669,-0.0005948414,7,1
0.0003287688,-0.0005846313,7,1
0.0002247229,-0.000571504,7,1
0.0001192183,-0.000551732,7,1
3.526847e-05,-0.0005319601,7,1
-1.140634e-05,-0.0005311498,7,1
-1.788895e-05,-0.000571342,7,1
2.04508e-06,-0.000653185,7,1
3.170304e-05,-0.0007578791,7,1
5.406805e-05,-0.0008533355,7,1
6.055066e-05,-0.000916379,7,1
4.904402e-05,-0.0009405267,7,1
2.278944e-05,-0.000938906,7,1
-1.351319e-05,-0.0009282097,7,1
-6.0188e-05,-0.0009183238,7,1
-0.0001235555,-0.000911517,7,1
-0.0002126914,-0.0009064929,7,1
-0.0003297026,-0.0008979035,7,1
-0.0004609755,-0.0008789418,7,1
-0.0005796073,-0.0008340498,7,1
-0.0006622606,-0.0007395657,7,1
-0.0007009942,-0.000573935,7,1
-0.0006990494,-0.0003288923,7,1
-0.0006603158,-1.67545e-05,7,1
-0.0005859278,0.0003360618,7,1
-0.0004797751,0.0007024916,7,1
-0.0003559572,0.001073297,7,1
-0.0002392702,0.001458527,7,1
-0.0001566169,0.001854454,7,1
-0.0001173971,0.002219913,7,1
-0.0001152902,0.002481811,7,1
-0.0001306864,0.002568517,7,1
-0.000142031,0.002437567,7,1
-0.0001326312,0.002104036,7,1
-9.260107e-05,0.001640203,7,1
-1.724069e-05,0.001141851,7,1
7.90261e-05,0.0006947125,7,1
0.000160545,0.0003530786,7,1
0.000195227,0.0001279698,7,1
0.0001786963,-4.113403e-06,7,1
0.0001263492,-7.898758e-05,7,1
7.335383e-05,-0.0001276072,7,1
6.719535e-05,-0.0001639098,7,1
0.000135749,-0.0001875713,7,1
0.0002595669,-0.0002003745,7,1
0.0003717161,-0.0002104225,7,1
0.0003974845,-0.0002282497,7,1
0.0003055935,-0.0002669833,7,1
0.0001279698,-0.000330675,7,1
-6.796714e-05,-0.0004165696,7,1
-0.0002266291,-0.0005117019,7,1
-0.0003206269,-0.0005971103,7,1
-0.0003454229,-0.0006523746,7,1
-0.0003172236,-0.0006640433,7,1
-0.0002632558,-0.0006392473,7,1
-0.0002029675,-0.0005941931,7,1
-0.000144624,-0.000544115,7,1
-8.190475e-05,-0.0004967919,7,1
-2.080613e-05,-0.0004551412,7,1
1.954813e-05,-0.0004185144,7,1
2.068259e-05,-0.0003789705,7,1
-2.064406e-05,-0.0003211132,7,1
-8.660465e-05,-0.0002310048,7,1
-0.0001532135,-9.616651e-05,7,1
-0.0001938919,9.733949e-05,7,1
-0.0001953505,0.0003606957,7,1
-0.0001645581,0.0006849886,7,1
-0.0001131834,0.001033267,7,1
-4.349527e-05,0.001334547,7,1
4.045456e-05,0.001513792,7,1
0.0001255389,0.00152384,7,1
0.0001931201,0.001371498,7,1
0.0002307193,0.001110248,7,1
0.0002346088,0.0008151271,7,1
0.0002054371,0.0005516087,7,1
0.0001534141,0.0003563199,7,1
9.085688e-05,0.0002316917,7,1
2.748934e-05,0.000160707,7,1
-2.080613e-05,0.000111115,7,1
-3.863332e-05,5.066468e-05,7,1
-2.015787e-05,-3.441962e-05,7,1
2.133085e-05,-0.0001386276,7,1
6.103686e-05,-0.0002535319,7,1
7.967438e-05,-0.0003682741,7,1
8.016057e-05,-0.0004708614,7,1
7.837785e-05,-0.0005489769,7,1
9.555677e-05,-0.0006016482,7,1
0.0001490383,-0.0006363301,7,1
0.0002289366,-0.0006629088,7,1
0.0002989488,-0.0006924047,7,1
0.0003232586,-0.000730328,7,1
0.0002851732,-0.0007748959,7,1
0.0001940925,-0.0008207604,7,1
8.437427e-05,-0.0008546321,7,1
-5.89612e-06,-0.0008583596,7,1
-5.2733e-05,-0.0008214086,7,1
-4.770897e-05,-0.0007484793,7,1
-1.196227e-06,-0.0006577228,7,1
6.930219e-05,-0.0005836589,7,1
0.0001513072,-0.0005544871,7,1
0.0002363916,-0.0005698834,7,1
0.0003209897,-0.0005998655,7,1
0.0003952156,-0.0006099135,7,1
0.0004342734,-0.0005778245,7,1
0.0004182289,-0.0005000332,7,1
0.000349027,-0.0003851289,7,1
0.0002433604,-0.0002381357,7,1
0.0001216493,-6.342931e-05,7,1
1.063454e-05,0.0001398006,7,1
-6.893953e-05,0.0003747954,7,1
-0.0001079973,0.0006363689,7,1
-0.0001114006,0.0008995633,7,1
-0.0001078352,0.001122403,7,1
-0.0001326312,0.001253676,7,1
-0.0002088019,0.001264373,7,1
-0.0003147926,0.001155627,7,1
-0.0003922598,0.0009580689,7,1
-0.0003783222,0.0007224257,7,1
-0.0002425115,0.0004973168,7,1
-6.382317e-06,0.000319207,7,1
0.0002621599,0.000202682,7,1
0.0004824068,0.0001404489,7,1
0.0005913147,0.0001069013,7,1
0.0005715428,7.740546e-05,7,1
0.0004448076,3.899597e-05,7,1
0.0002592428,-8.651231e-06,7,1
6.962632e-05,-5.710876e-05,7,1
-8.790117e-05,-9.762509e-05,7,1
-0.00019924,-0.0001261486,7,1
-0.0002669833,-0.0001410586,7,1
-0.000301017,-0.0001426792,7,1
-0.0003096065,-0.0001311726,7,1
-0.0002946965,-0.0001109144,7,1
-0.0002580697,-8.838737e-05,7,1
-0.0002084778,-6.521203e-05,7,1
-0.0001603444,-4.446767e-05,7,1
-0.0001306864,-3.668853e-05,7,1
-0.0001256624,-5.2733e-05,7,1
-0.0001383035,-9.341139e-05,7,1
-0.0001580754,-0.0001499722,7,1
-0.0001737958,-0.0002060468,7,1
-0.0001885437,-0.0002421874,7,1
-0.0002143121,-0.0002509389,7,1
-0.0002535319,-0.000238946,7,1
-0.000290969,-0.0002178775,7,1
-0.0002998826,-0.0001976194,7,1
-0.0002564491,-0.0001827094,7,1
-0.0001564548,-0.00016942,7,1
-2.064406e-05,-0.0001509446,7,1
0.000110953,-0.0001233935,7,1
0.0001966855,-9.211487e-05,7,1
0.0002067336,-6.91016e-05,7,1
0.0001488763,-6.586029e-05,7,1
5.390598e-05,-8.40116e-05,7,1
-3.604027e-05,-0.0001185315,7,1
-8.741498e-05,-0.0001598582,7,1
-8.611845e-05,-0.0001984297,7,1
-4.203669e-05,-0.0002274394,7,1
1.987227e-05,-0.0002415391,7,1
6.589881e-05,-0.0002408908,7,1
7.335383e-05,-0.0002297083,7,1
3.543054e-05,-0.0002183637,7,1
-3.26369e-05,-0.000216581,7,1
-0.0001070249,-0.0002220912,7,1
-0.0001673132,-0.0002284118,7,1
-0.0001951884,-0.0002310048,7,1
-0.0001820611,-0.0002263049,7,1
-0.0001289037,-0.000211557,7,1
-4.43056e-05,-0.0001854645,7,1
5.795762e-05,-0.0001488377,7,1
0.0001589243,-0.0001099421,7,1
0.0002360674,-7.55842e-05,7,1
0.0002749631,-5.111234e-05,7,1
0.0002765838,-3.555408e-05,7,1
0.0002495189,-2.437157e-05,7,1
0.0002039785,-1.20546e-05,7,1
0.0001516314,5.610517e-06,7,1
0.0001002567,2.651694e-05,7,1
5.795762e-05,5.115087e-05,7,1
2.781346e-05,7.724339e-05,7,1
9.175954e-06,0.0001073875,7,1
4.313994e-06,0.0001446626,7,1
1.533444e-05,0.0001869616,7,1
4.369587e-05,0.0002273159,7,1
8.664318e-05,0.0002641047,7,1
0.000130725,0.0002983005,7,1
0.0001501728,0.0003303894,7,1
0.0001203528,0.0003593992,7,1
4.045456e-05,0.0003856538,7,1
-6.310517e-05,0.0004166082,7,1
-0.0001481895,0.0004621486,7,1
-0.0001806025,0.0005266506,7,1
-0.0001533756,0.0006059006,7,1
-8.611845e-05,0.0006828817,7,1
-1.691656e-05,0.0007374978,7,1
1.9224e-05,0.0007600249,7,1
1.063454e-05,0.0007493285,7,1
-3.490581e-05,0.0007136742,7,1
-0.0001031353,0.0006652166,7,1
-0.0001721751,0.000616759,7,1
-0.0002113949,0.0005710566,7,1
-0.0001947022,0.0005279472,7,1
-0.0001195039,0.0004835413,7,1
-9.947754e-06,0.0004323286,7,1
8.907416e-05,0.0003705817,7,1
0.0001375317,0.0003004074,7,1
0.0001222976,0.0002268297,7,1
5.94162e-05,0.0001577899,7,1
-1.448558e-05,9.474644e-05,7,1
-6.44017e-05,3.834771e-05,7,1
-7.574627e-05,-8.813297e-06,7,1
-6.180866e-05,-3.928157e-05,7,1
-5.192267e-05,-5.240886e-05,7,1
-6.602235e-05,-5.32192e-05,7,1
-0.0001020008,-5.127441e-05,7,1
-0.0001452723,-5.921561e-05,7,1
-0.0001788198,-8.125649e-05,7,1
-0.0001958367,-0.0001114006,7,1
-0.0002028055,-0.0001391138,7,1
-0.0002110708,-0.0001567789,7,1
-0.0002156086,-0.0001676373,7,1
-0.00019924,-0.0001757406,7,1
-0.0001399241,-0.000189192,7,1
-3.944364e-05,-0.0002118811,7,1
8.097089e-05,-0.0002457528,7,1
0.0001994406,-0.0002878898,7,1
0.0002965178,-0.0003329439,7,1
0.0003576164,-0.0003784843,7,1
0.0003665301,-0.0004293727,7,1
0.0003253654,-0.0004943609,7,1
0.0002535705,-0.000581552,7,1
0.0001739964,-0.0006864083,7,1
0.0001062531,-0.0007956403,7,1
5.56887e-05,-0.0008979035,7,1
1.954813e-05,-0.0009953048,7,1
-7.678839e-06,-0.001096596,7,1
-2.809907e-05,-0.001199831,7,1
-4.365734e-05,-0.001296422,7,1
-5.305713e-05,-0.001381992,7,1
-5.905355e-05,-0.001456219,7,1
-6.375344e-05,-0.001520721,7,1
-6.667062e-05,-0.001569988,7,1
-6.310517e-05,-0.001589922,7,1
-4.754691e-05,-0.001553944,7,1
-2.09682e-05,-0.001437581,7,1
7.069105e-06,-0.001232244,7,1
2.992031e-05,-0.0009478196,7,1
4.337174e-05,-0.0005954896,7,1
4.693717e-05,-0.0001776853,7,1
4.207521e-05,0.0003151553,7,1
2.862379e-05,0.0008851394,7,1
1.014835e-05,0.00150974,7,1
-3.951337e-06,0.002122025,7,1
-6.176923e-08,0.002631885,7,1
3.786152e-05,0.002968334,7,1
0.000121001,0.003101553,7,1
0.0002457913,0.003057309,7,1
0.0003778746,0.002890056,7,1
0.0004652279,0.002647119,7,1
0.0004721967,0.002353779,7,1
0.0003994293,0.002019761,7,1
0.0002843629,0.001671644,7,1
0.0001748067,0.001349781,7,1
0.0001041462,0.001085939,7,1
7.918817e-05,0.0008838429,7,1
8.680524e-05,0.0007229118,7,1
0.0001093323,0.0005781874,7,1
0.0001362352,0.000433301,7,1
0.0001618415,0.0002931144,7,1
0.0001803169,0.0001726999,7,1
0.0001850168,8.259155e-05,7,1
0.0001759412,2.246531e-05,7,1
0.0001524417,-1.108221e-05,7,1
0.0001122495,-2.501983e-05,7,1
6.589881e-05,-3.101625e-05,7,1
3.056858e-05,-4.349527e-05,7,1
1.776542e-05,-7.623246e-05,7,1
2.295151e-05,-0.0001306864,7,1
3.251336e-05,-0.0002031296,7,1
2.992031e-05,-0.0002877277,7,1
-5.479652e-07,-0.0003736223,7,1
-6.407757e-05,-0.0004514136,7,1
-0.000149486,-0.0005152673,7,1
-0.0002350565,-0.0005612939,7,1
-0.0003026377,-0.0005930586,7,1
-0.0003376438,-0.0006149375,7,1
-0.0003345645,-0.0006262821,7,1
-0.0003002067,-0.000623689,7,1
-0.0002551526,-0.0006125065,7,1
-0.0002188499,-0.0005995413,7,1
-0.0001953505,-0.0005903036,7,1
-0.0001760647,-0.0005877105,7,1
-0.0001564548,-0.0005925725,7,1
-0.0001457585,-0.0006044033,7,1
-0.0001624512,-0.0006206098,7,1
-0.0002209568,-0.0006342233,7,1
-0.0003131719,-0.000640868,7,1
-0.0004086284,-0.000643461,7,1
-0.0004687546,-0.0006489712,7,1
-0.0004700511,-0.000668257,7,1
-0.0004091146,-0.0007001839,7,1
-0.0003049066,-0.0007350279,7,1
-0.0001919471,-0.0007648479,7,1
-9.924574e-05,-0.0007896438,7,1
-3.814712e-05,-0.0008128192,7,1
2.207145e-06,-0.0008334015,7,1
3.834771e-05,-0.0008478253,7,1
6.735741e-05,-0.0008565768,7,1
7.108491e-05,-0.0008612768,7,1
3.235129e-05,-0.0008593319,7,1
-4.155049e-05,-0.0008431255,7,1
-0.0001136696,-0.0008052022,7,1
-0.0001374932,-0.0007439415,7,1
-8.433573e-05,-0.0006651777,7,1
3.640293e-05,-0.0005809038,7,1
0.0001715654,-0.0005035987,7,1
0.0002535705,-0.0004462276,7,1
0.0002608634,-0.0004071698,7,1
0.0002286124,-0.0003752429,7,1
0.0002038164,-0.0003350507,7,1
0.0002064095,-0.000276059,7,1
0.0002198609,-0.0001951884,7,1
0.000222616,-9.454585e-05,7,1
0.0002067336,2.149292e-05,7,1
0.0001814514,0.0001422316,7,1
0.0001568175,0.0002540567,7,1
0.0001410971,0.0003394651,7,1
0.0001312112,0.0003918123,7,1
0.0001203528,0.000413529,7,1
0.0001044704,0.0004093153,7,1
8.405014e-05,0.0003848434,7,1
6.362991e-05,0.0003498373,7,1
5.358185e-05,0.0003190449,7,1
5.811968e-05,0.0002966799,7,1
6.622294e-05,0.0002752873,7,1
7.011252e-05,0.0002448189,7,1
6.314371e-05,0.0002051129,7,1
5.001642e-05,0.0001676758,7,1
3.624086e-05,0.0001414213,7,1
2.992031e-05,0.0001313732,7,1
3.413401e-05,0.0001402868,7,1
4.304761e-05,0.000170431,7,1
5.082674e-05,0.0002214815,7,1
5.309566e-05,0.0002830664,7,1
4.790957e-05,0.0003418961,7,1
3.364782e-05,0.0003880847,7,1
6.096713e-06,0.0004216323,7,1
-3.441962e-05,0.0004436732,7,1
-7.60704e-05,0.0004615004,7,1
-0.0001041077,0.0004799758,7,1
-0.0001169109,0.0005020167,7,1
-0.0001230693,0.0005332953,7,1
-0.0001363587,0.0005762426,7,1
-0.0001652063,0.0006285898,7,1
-0.0002023193,0.0006892023,7,1
-0.0002220912,0.0007477079,7,1
-0.0001937298,0.0007864416,7,1
-0.0001173971,0.0007885484,7,1
-2.031993e-05,0.0007499768,7,1
6.087479e-05,0.0006809369,7,1
0.0001078737,0.000591963,7,1
0.0001227837,0.0004874308,7,1
0.0001145184,0.0003692851,7,1
9.150514e-05,0.0002430362,7,1
5.795762e-05,0.0001156529,7,1
1.031041e-05,-2.006553e-06,7,1
-5.743289e-05,-9.470791e-05,7,1
-0.0001483515,-0.0001543479,7,1
-0.0002553146,-0.0001846542,7,1
-0.0003621157,-0.0001984297,7,1
-0.0004437966,-0.0002123673,7,1
-0.0004580583,-0.0002457528,7,1
-0.0003750809,-0.0003042584,7,1
-0.0001977815,-0.0003823738,7,1
2.781346e-05,-0.0004750752,7,1
0.0002268297,-0.0005770142,7,1
0.0003352514,-0.0006821946,7,1
0.000339303,-0.0007812165,7,1
0.0002764217,-0.0008630594,7,1
0.0001989545,-0.0009160548,7,1
0.0001396385,-0.0009353406,7,1
9.814982e-05,-0.0009277235,7,1
5.974033e-05,-0.0009045482,7,1
1.436204e-05,-0.0008753765,7,1
-3.960571e-05,-0.0008434496,7,1
-8.854943e-05,-0.000804878,7,1
-0.0001104282,-0.0007497758,7,1
-8.498399e-05,-0.0006739292,7,1
-3.789272e-06,-0.0005752315,7,1
0.000105929,-0.0004402311,7,1
0.0001957132,-0.0002470493,7,1
0.0002284504,2.846173e-05,7,1
0.000202682,0.0003969983,7,1
0.0001436902,0.000834575,7,1
8.032264e-05,0.00128139,7,1
3.105477e-05,0.001666134,7,1
-2.168618e-06,0.00194748,7,1
-1.837515e-05,0.002126401,7,1
-1.869928e-05,0.002233688,7,1
-8.813297e-06,0.002294301,7,1
3.827799e-06,0.00230208,7,1
1.419998e-05,0.002229312,7,1
1.938607e-05,0.002055092,7,1
2.262738e-05,0.001786062,7,1
1.889987e-05,0.001460148,7,1
9.500085e-06,0.001132775,7,1
1.558884e-06,0.0008454334,7,1
-2.168618e-06,0.0006159487,7,1
1.720949e-06,0.0004394595,7,1
7.23117e-06,0.0003004074,7,1
6.096713e-06,0.0001764274,7,1
-9.137427e-06,5.828175e-05,7,1
-3.68506e-05,-5.22468e-05,7,1
-6.942573e-05,-0.0001504584,7,1
-9.29252e-05,-0.0002365151,7,1
-0.0001032974,-0.0003120375,7,1
-0.0001062146,-0.0003788084,7,1
-0.0001058904,-0.0004412035,7,1
-9.600444e-05,-0.0005003574,7,1
-6.715681e-05,-0.0005578905,7,1
-1.610624e-05,-0.0006081308,7,1
5.423012e-05,-0.0006479988,7,1
0.000133318,-0.0006774947,7,1
0.0002047888,-0.0006972667,7,1
0.0002540567,-0.0007066664,7,1
0.0002712356,-0.000707963,7,1
0.0002495189,-0.0007027769,7,1
0.0001945787,-0.0006932151,7,1
0.0001197045,-0.0006821946,7,1
4.531652e-05,-0.0006718224,7,1
-1.318906e-05,-0.0006616123,7,1
-4.965376e-05,-0.0006504298,7,1
-6.342931e-05,-0.0006342233,7,1
-5.419158e-05,-0.0006074825,7,1
-2.46957e-05,-0.00056648,7,1
1.954813e-05,-0.0005121881,7,1
6.751948e-05,-0.0004494688,7,1
0.0001104668,-0.0003882082,7,1
0.0001363972,-0.0003368335,7,1
0.0001363972,-0.0003027998,7,1
0.0001056048,-0.0002901587,7,1
5.909208e-05,-0.0002904828,7,1
1.54965e-05,-0.0002882139,7,1
-1.934754e-05,-0.0002744383,7,1
-4.268495e-05,-0.000251101,7,1
-4.462973e-05,-0.0002222533,7,1
-1.529591e-05,-0.0001914609,7,1
4.304761e-05,-0.000166827,7,1
0.0001148425,-0.0001554824,7,1
0.0001820997,-0.0001637477,7,1
0.0002346088,-0.0001882196,7,1
0.0002660495,-0.0002206326,7,1
0.0002814457,-0.0002519113,7,1
0.000287118,-0.0002750866,7,1
0.0002757735,-0.0002880518,7,1
0.0002378501,-0.0002883759,7,1
0.0001735102,-0.0002763831,7,1
8.664318e-05,-0.0002554767,7,1
-1.270286e-05,-0.0002324634,7,1
-0.0001128592,-0.0002154466,7,1
-0.000204102,-0.0002107467,7,1
-0.0002817312,-0.0002169052,7,1
-0.0003416954,-0.0002245222,7,1
-0.0003755671,-0.0002287359,7,1
-0.000380267,-0.0002306807,7,1
-0.0003645466,-0.0002319772,7,1
-0.0003420196,-0.0002323013,7,1
-0.0003219235,-0.0002277635,7,1
-0.000310903,-0.0002186879,7,1
-0.0003055549,-0.0002063709,7,1
-0.0002869174,-0.0001895161,7,1
-0.0002326255,-0.000166827,7,1
-0.0001353863,-0.0001340898,7,1
-1.416145e-05,-9.405965e-05,7,1
9.069481e-05,-5.386745e-05,7,1
0.0001419075,-2.226472e-05,7,1
0.000130887,-7.516774e-06,7,1
7.772959e-05,-6.544382e-06,7,1
5.124321e-06,-1.480971e-05,7,1
-6.278104e-05,-3.198864e-05,7,1
-0.0001010285,-5.386745e-05,7,1
-9.470791e-05,-7.088431e-05,7,1
-4.706071e-05,-7.590833e-05,7,1
1.630683e-05,-6.602235e-05,7,1
6.995045e-05,-4.317115e-05,7,1
0.0001030118,-1.075808e-05,7,1
0.0001195424,2.295151e-05,7,1
0.0001219734,4.304761e-05,7,1
0.0001119254,3.494434e-05,7,1
9.020862e-05,-3.627206e-06,7,1
6.703327e-05,-6.407757e-05,7,1
6.200925e-05,-0.0001300382,7,1
9.101894e-05,-0.0001919471,7,1
0.0001574657,-0.0002491561,7,1
0.0002459534,-0.0003050687,7,1
0.0003248792,-0.0003585502,7,1
0.0003619922,-0.0004061974,7,1
0.0003410858,-0.000447362,7,1
0.0002720459,-0.00047702,7,1
0.0001759412,-0.0004907955,7,1
7.886404e-05,-0.0004849611,7,1
9.824215e-06,-0.0004476861,7,1
-1.270286e-05,-0.0003616295,7,1
5.934648e-06,-0.0002157707,7,1
3.656499e-05,-1.318906e-05,7,1
4.483033e-05,0.0002303951,7,1
7.069105e-06,0.0004950479,7,1
-7.752899e-05,0.0007806072,7,1
-0.0001976194,0.001100687,7,1
-0.0003214373,0.001467117,7,1
-0.0004099249,0.001857209,7,1
-0.0004327761,0.002215051,7,1
-0.0003791325,0.002463336,7,1
-0.000263742,0.002535942,7,1
-0.0001185315,0.002403858,7,1
2.311357e-05,0.002093339,7,1
0.0001380179,0.001681368,7,1
0.0002171058,0.001264373,7,1
0.0002568118,0.0009185249,7,1
0.0002543808,0.0006751026,7,1
0.0002010613,0.0005235714,7,1
9.669123e-05,0.0004303838,7,1
-4.041603e-05,0.0003662059,7,1
-0.0001771992,0.0003140208,7,1
-0.000278652,0.0002636185,7,1
-0.0003224097,0.000210137,7,1
-0.0003045825,0.0001542244,7,1
-0.0002348944,9.993253e-05,7,1
-0.0001310105,5.001642e-05,7,1
-3.312309e-05,4.151929e-06,7,1
8.689758e-06,-3.539201e-05,7,1
-3.101625e-05,-7.056019e-05,7,1
-0.0001302002,-0.0001067007,7,1
-0.0002348944,-0.0001489998,7,1
-0.0002992343,-0.000201509,7,1
-0.0003144685,-0.0002639041,7,1
-0.0003047445,-0.0003311612,7,1
-0.0003039342,-0.0003958252,7,1
-0.0003262992,-0.0004489826,7,1
-0.0003544986,-0.00048723,7,1
-0.0003465574,-0.0005134846,7,1
-0.0002684419,-0.0005387668,7,1
-0.0001201522,-0.0005726385,7,1
6.119892e-05,-0.0006175305,7,1
0.0002216436,-0.0006702017,7,1
0.0003162898,-0.0007243316,7,1
0.0003256896,-0.0007719788,7,1
0.0002645909,-0.0008105503,7,1
0.0001709172,-0.0008400462,7,1
8.210535e-05,-0.00085447,7,1
1.760335e-05,-0.000849446,7,1
-2.145439e-05,-0.0008265948,7,1
-4.511593e-05,-0.0007888335,7,1
-6.197072e-05,-0.0007398899,7,1
-7.072225e-05,-0.000683167,7,1
-6.81292e-05,-0.0006201236,7,1
-5.759496e-05,-0.0005475183,7,1
-4.884343e-05,-0.0004637306,7,1
-5.062615e-05,-0.0003650328,7,1
-7.120844e-05,-0.0002481838,7,1
-0.0001052422,-0.0001157764,7,1
-0.000132145,2.084466e-05,7,1
-0.0001324691,0.0001430419,7,1
-0.0001013526,0.0002318537,7,1
-4.981582e-05,0.000274801,7,1
3.989864e-06,0.0002760976,7,1
4.418206e-05,0.0002542187,7,1
6.314371e-05,0.0002237505,7,1
6.233338e-05,0.000190365,7,1
5.260946e-05,0.0001534141,7,1
5.487838e-05,0.0001065772,7,1
8.534666e-05,4.953022e-05,7,1
0.0001503349,-1.367526e-05,7,1
0.0002328261,-7.574627e-05,7,1
0.0002991108,-0.0001326312,7,1
0.0003255275,-0.000176875,7,1
0.0003175863,-0.0002049123,7,1
0.000299597,-0.0002152845,7,1
0.000292142,-0.0002076674,7,1
0.0002966799,-0.0001872472,7,1
0.0003055935,-0.0001677994,7,1
0.0003096451,-0.000166827,7,1
0.0003000832,-0.0001904885,7,1
0.0002769079,-0.000231329,7,1
0.0002543808,-0.0002747625,7,1
0.0002553532,-0.0003120375,7,1
0.0002937627,-0.00033813,7,1
0.0003621543,-0.0003544986,7,1
0.0004320045,-0.0003616295,7,1
0.000465552,-0.0003617915,7,1
0.000443349,-0.0003598467,7,1
0.0003752816,-0.0003566054,7,1
0.0002940868,-0.0003476919,7,1
0.0002245608,-0.0003180339,7,1
0.0001697827,-0.0002520733,7,1
0.0001151667,-0.0001423551,7,1
5.1475e-05,5.286387e-06,7,1
-1.62683e-05,0.0001790204,7,1
-7.720486e-05,0.0003704196,7,1
-0.0001204763,0.00056976,7,1
-0.0001405724,0.0007691005,7,1
-0.0001357104,0.0009736272,7,1
-0.0001086455,0.00119825,7,1
-7.720486e-05,0.001447183,7,1
-6.423963e-05,0.001684771,7,1
-8.206682e-05,0.001847161,7,1
-0.0001208004,0.001875361,7,1
-0.0001600202,0.001749273,7,1
-0.0001797922,0.001499692,7,1
-0.0001750923,0.001187878,7,1
-0.0001540238,0.0008721742,7,1
-0.000134576,0.0005880735,7,1
-0.0001331174,0.0003508097,7,1
-0.0001522411,0.000160707,7,1
-0.0001848162,7.069105e-06,7,1
-0.000216419,-0.000119828,7,1
-0.000233922,-0.0002219292,7,1
-0.000236353,-0.0002997205,7,1
-0.0002323013,-0.0003525538,7,1
-0.0002329496,-0.0003856151,7,1
-0.0002447804,-0.0004044147,7,1
-0.0002619593,-0.0004066836,7,1
-0.0002692523,-0.0003945287,7,1
-0.0002525595,-0.0003702189,7,1
-0.0002102605,-0.0003395886,7,1
-0.0001598582,-0.0003117133,7,1
-0.0001190177,-0.0002911311,7,1
-9.778715e-05,-0.0002731418,7,1
-9.956988e-05,-0.0002523975,7,1
-0.0001152902,-0.0002292221,7,1
-0.0001298761,-0.0002135018,7,1
-0.0001300382,-0.0002130156,7,1
-0.0001109144,-0.0002334358,7,1
-7.509801e-05,-0.0002707109,7,1
-2.826114e-05,-0.0003146305,7,1
2.311357e-05,-0.0003609812,7,1
7.546067e-05,-0.0004094387,7,1
0.0001231079,-0.0004600031,7,1
0.000158114,-0.0005110537,7,1
0.0001720516,-0.0005580526,7,1
0.0001600588,-0.0005917621,7,1
0.0001269974,-0.0006034309,7,1
8.761557e-05,-0.0005854416,7,1
6.298164e-05,-0.0005384427,7,1
6.946425e-05,-0.0004677822,7,1
0.0001086841,-0.0003857772,7,1
0.0001641104,-0.0002987481,7,1
0.0002073819,-0.0002133397,7,1
0.0002185644,-0.0001387897,7,1
0.0002008992,-8.514606e-05,7,1
0.0001633001,-5.451572e-05,7,1
0.0001197045,-5.159854e-05,7,1
8.777764e-05,-7.866345e-05,7,1
7.935024e-05,-0.0001293899,7,1
9.296373e-05,-0.0001862748,7,1
0.0001138702,-0.0002348944,7,1
0.0001182459,-0.0002619593,7,1
9.393612e-05,-0.0002617972,7,1
4.580272e-05,-0.0002360289,7,1
-8.327101e-06,-0.0001953505,7,1
-3.539201e-05,-0.0001572651,7,1
-8.813297e-06,-0.0001394379,7,1
6.346784e-05,-0.0001447861,7,1
0.0001503349,-0.000159372,7,1
0.0002117576,-0.0001653684,7,1
0.0002282883,-0.00015451,7,1
0.0002025199,-0.0001337657,7,1
0.000155521,-0.0001094559,7,1
0.0001119254,-7.33153e-05,7,1
8.534666e-05,-1.464765e-05,7,1
7.416415e-05,6.427817e-05,7,1
6.103686e-05,0.0001483901,7,1
3.510641e-05,0.0002182402,7,1
-5.479652e-07,0.0002592428,7,1
-3.393342e-05,0.0002652392,7,1
-5.581224e-05,0.0002438466,7,1
-6.634648e-05,0.0002085163,7,1
-7.023606e-05,0.0001670276,7,1
-6.926366e-05,0.0001237561,7,1
-7.023606e-05,9.507057e-05,7,1
-8.773911e-05,9.896015e-05,7,1
-0.0001394379,0.0001459591,7,1
-0.000231491,0.0002409294,7,1
-0.0003488263,0.0003854917,7,1
-0.0004593548,0.000572191,7,1
-0.0005220741,0.0007749349,7,1
-0.0005113778,0.0009473725,7,1
-0.0004319658,0.001037967,7,1
-0.000318196,0.001008957,7,1
-0.0002126914,0.0008616399,7,1
-0.0001452723,0.0006394482,7,1
-0.0001224211,0.0004072085,7,1
-0.0001259865,0.0002235884,7,1
-0.0001352242,0.000120839,7,1
-0.0001417068,9.896015e-05,7,1
-0.000149486,0.0001261871,7,1
-0.0001583996,0.0001658931,7,1
-0.0001655305,0.0001983062,7,1
-0.0001700683,0.0002206712,7,1
-0.0001739578,0.0002396328,7,1
-0.0001749302,0.000262322,7,1
-0.0001621271,0.0002880904,7,1
-0.0001219349,0.0003078624,7,1
-5.662256e-05,0.0003106175,7,1
1.630683e-05,0.0002874421,7,1
7.173317e-05,0.0002360674,7,1
9.604298e-05,0.000160545,7,1
9.118101e-05,6.557468e-05,7,1
7.254349e-05,-3.879538e-05,7,1
5.633696e-05,-0.0001457585,7,1
4.953022e-05,-0.0002528836,7,1
4.871989e-05,-0.0003562813,7,1
4.985435e-05,-0.0004502792,7,1
5.374392e-05,-0.0005305015,7,1
6.362991e-05,-0.0006039171,7,1
7.319176e-05,-0.0006747396,7,1
6.557468e-05,-0.0007390795,7,1
2.522042e-05,-0.0007946679,7,1
-5.532604e-05,-0.0008489598,7,1
-0.0001661787,-0.0009167031,7,1
-0.0002733039,-0.001006649,7,1
-0.0003300267,-0.001117664,7,1
-0.0002904828,-0.00123273,7,1
-0.0001261486,-0.001335966,7,1
0.0001475797,-0.001417971,7,1
0.0004610142,-0.001476963,7,1
0.0007245325,-0.001508728,7,1
0.0008650433,-0.001500787,7,1
0.0008585607,-0.001434826,7,1
0.0007319876,-0.001302419,7,1
0.0005366987,-0.001105347,7,1
0.0003281205,-0.0008546321,7,1
0.0001461212,-0.0005578905,7,1
1.744129e-05,-0.000208964,7,1
-4.884343e-05,0.000215161,7,1
-6.002594e-05,0.0007229118,7,1
-3.069211e-05,0.001286252,7,1
2.408596e-05,0.001832413,7,1
9.458438e-05,0.002274043,7,1
0.0001683241,0.002546962,7,1
0.0002273159,0.002636261,7,1
0.0002710735,0.002577917,7,1
0.0003059176,0.002445023,7,1
0.0003320101,0.002294139,7,1
0.0003504856,0.002135152,7,1
0.0003563199,0.001940835,7,1
0.0003462718,0.001681854,7,1
0.000314345,0.001357723,7,1
0.0002571359,0.001000692,7,1
0.0001842065,0.000658896,7,1
0.0001161391,0.0003730126,7,1
6.687121e-05,0.000165569,7,1
3.364782e-05,3.98063e-05,7,1
4.638125e-06,-1.886135e-05,7,1
-3.749886e-05,-2.761287e-05,7,1
-9.924574e-05,-8.651231e-06,7,1
-0.0001794681,1.889987e-05,7,1
-0.0002671454,4.580272e-05,7,1
-0.000343154,7.497447e-05,7,1
-0.0003862634,0.0001067393,7,1
-0.0003831841,0.0001338042,7,1
-0.0003337542,0.0001428799,7,1
-0.0002452666,0.0001206769,7,1
-0.0001324691,5.925414e-05,7,1
-1.027188e-05,-3.847125e-05,7,1
0.0001114392,-0.0001572651,7,1
0.0002093267,-0.0002758969,7,1
0.0002556773,-0.0003776739,7,1
0.0002308813,-0.0004557894,7,1
0.0001428799,-0.0005134846,7,1
2.408596e-05,-0.0005559457,7,1
-8.773911e-05,-0.0005870623,7,1
-0.0001642339,-0.0006053757,7,1
-0.0002031296,-0.0006152617,7,1
-0.0002167431,-0.0006246614,7,1
-0.0002222533,-0.0006376266,7,1
-0.0002303566,-0.0006520505,7,1
-0.0002386219,-0.0006614503,7,1
-0.0002391081,-0.0006624226,7,1
-0.0002280877,-0.000658371,7,1
-0.0002159328,-0.0006530228,7,1
-0.0002177155,-0.0006447575,7,1
-0.0002410529,-0.0006308199,7,1
-0.0002841623,-0.0006118583,7,1
-0.0003358611,-0.0005927345,7,1
-0.0003807532,-0.0005758798,7,1
-0.0004016596,-0.0005616181,7,1
-0.0003945287,-0.000549301,7,1
-0.0003640605,-0.0005389289,7,1
-0.0003235441,-0.0005311498,7,1
-0.0002878898,-0.0005227224,7,1
-0.0002630937,-0.000509433,7,1
-0.0002532078,-0.0004911196,7,1
-0.0002528836,-0.0004700511,7,1
-0.0002496423,-0.0004543308,7,1
-0.0002290601,-0.0004494688,7,1
-0.0001851404,-0.0004554653,7,1
-0.000122259,-0.0004687546,7,1
-5.289507e-05,-0.0004888507,7,1
1.501031e-05,-0.0005134846,7,1
6.492643e-05,-0.0005335807,7,1
8.664318e-05,-0.0005368221,7,1
8.372601e-05,-0.0005133225,7,1
6.897806e-05,-0.0004642168,7,1
5.455425e-05,-0.0003955011,7,1
4.564065e-05,-0.0003144685,7,1
3.98063e-05,-0.0002256567,7,1
2.959619e-05,-0.000132145,7,1
-4.761664e-06,-3.474375e-05,7,1
-7.752899e-05,6.119892e-05,7,1
-0.0001820611,0.0001479039,7,1
-0.0002843243,0.0002145127,7,1
-0.0003352128,0.0002607014,7,1
-0.0002882139,0.0002890628,7,1
-0.0001238797,0.0003023522,7,1
0.0001281319,0.0003088348,7,1
0.0003816021,0.0003198552,7,1
0.0005430193,0.0003435168,7,1
0.0005760806,0.0003817642,7,1
0.0005285954,0.0004281149,7,1
0.0005081752,0.0004710622,7,1
0.0005958526,0.0005025029,7,1
0.0007815796,0.0005214646,7,1
0.0009780029,0.0005294057,7,1
0.001082697,0.0005269747,7,1
0.001041695,0.0005159543,7,1
0.000869257,0.0004979651,7,1
0.0006238899,0.0004743035,7,1
0.0003707437,0.0004456179,7,1
0.0001602208,0.0004153117,7,1
1.063454e-05,0.0003906778,7,1
-8.563225e-05,0.000368799,7,1
-0.0001404103,0.0003448133,7,1
-0.0001679614,0.0003164518,7,1
-0.0001780095,0.0002838767,7,1
-0.0001865989,0.000250005,7,1
-0.0002037779,0.0002182402,7,1
-0.0002259808,0.0001895547,7,1
-0.0002428356,0.0001621656,7,1
-0.0002421874,0.0001363972,7,1
-0.0002263049,0.0001124116,7,1
-0.0002037779,9.280167e-05,7,1
-0.0001789819,7.837785e-05,7,1
-0.0001566169,6.427817e-05,7,1
-0.0001408965,4.693717e-05,7,1
-0.0001319829,2.376183e-05,7,1
-0.0001259865,-4.761664e-06,7,1
-0.0001193418,-3.701266e-05,7,1
-0.0001182074,-6.748094e-05,7,1
-0.0001250141,-9.276313e-05,7,1
-0.000132145,-0.0001078352,7,1
-0.0001323071,-0.0001115627,7,1
-0.0001261486,-0.0001018388,7,1
-0.0001130213,-7.866345e-05,7,1
-8.790117e-05,-4.284701e-05,7,1
-4.446767e-05,7.485573e-07,7,1
1.760335e-05,5.179914e-05,7,1
8.631905e-05,0.0001132219,7,1
0.000143204,0.0001919856,7,1
0.0001741585,0.0002889007,7,1
0.0001756171,0.0003963501,7,1
0.0001547106,0.0005093097,7,1
0.0001203528,0.0006229175,7,1
8.097089e-05,0.0007238843,7,1
4.35338e-05,0.000787576,7,1
9.66215e-06,0.0007926,7,1
-2.89094e-05,0.0007371737,7,1
-7.574627e-05,0.0006326414,7,1
-0.0001211246,0.0004963444,7,1
-0.0001467309,0.0003517821,7,1
-0.0001368449,0.0002171058,7,1
-8.773911e-05,9.847395e-05,7,1
-1.821308e-05,-8.327101e-06,7,1
3.575467e-05,-0.0001071869,7,1
4.531652e-05,-0.0001945401,7,1
3.827799e-06,-0.0002640662,7,1
-7.153257e-05,-0.0003060411,7,1
-0.0001532135,-0.000318196,7,1
-0.0002156086,-0.0003050687,7,1
-0.0002417012,-0.0002788141,7,1
-0.0002250084,-0.0002502906,7,1
-0.0001679614,-0.0002211189,7,1
-8.287715e-05,-0.0001896782,7,1
1.22552e-05,-0.0001571031,7,1
9.426025e-05,-0.0001232314,7,1
0.0001430419,-8.887356e-05,7,1
0.000145635,-5.953974e-05,7,1
0.0001086841,-4.47918e-05,7,1
5.325772e-05,-5.548811e-05,7,1
6.096713e-06,-9.324933e-05,7,1
-9.299493e-06,-0.000151917,7,1
2.003433e-05,-0.0002144742,7,1
8.259155e-05,-0.0002640662,7,1
0.0001560072,-0.0002908069,7,1
0.0002137024,-0.0002925897,7,1
0.0002391467,-0.0002781658,7,1
0.0002347709,-0.0002533699,7,1
0.0002161334,-0.0002256567,7,1
0.0001932822,-0.000199078,7,1
0.0001667035,-0.0001776853,7,1
0.0001338042,-0.0001627754,7,1
9.21534e-05,-0.0001543479,7,1
4.531652e-05,-0.0001527273,7,1
8.851824e-06,-0.0001548341,7,1
1.234753e-06,-0.0001536997,7,1
3.073064e-05,-0.0001501342,7,1
8.210535e-05,-0.0001473791,7,1
0.0001260251,-0.0001428413,7,1
0.0001386662,-0.0001293899,7,1
0.0001164632,-0.000104756,7,1
6.995045e-05,-7.072225e-05,7,1
1.452411e-05,-3.069211e-05,7,1
-3.944364e-05,9.986281e-06,7,1
-8.482193e-05,5.19612e-05,7,1
-0.0001159385,9.620504e-05,7,1
-0.0001306864,0.0001391524,7,1
-0.0001374932,0.0001751309,7,1
-0.0001585616,0.0001973338,7,1
-0.0002123673,0.0001994406,7,1
-0.0002953447,0.0001777239,7,1
-0.0003810773,0.0001378558,7,1
-0.0004337485,8.583286e-05,7,1
-0.0004256453,2.878586e-05,7,1
-0.0003574158,-2.971972e-05,7,1
-0.0002582318,-8.935975e-05,7,1
-0.0001614788,-0.0001551583,7,1
-9.29252e-05,-0.0002251705,7,1
-5.662256e-05,-0.0002942103,7,1
-4.284701e-05,-0.0003561192,7,1
-3.798505e-05,-0.0004117076,7,1
-3.976777e-05,-0.0004601652,7,1
-5.176061e-05,-0.0005082985,7,1
-7.412562e-05,-0.0005766901,7,1
-9.892161e-05,-0.0006826808,7,1
-0.0001143178,-0.0008225431,7,1
-0.0001131834,-0.0009705087,7,1
-9.762509e-05,-0.001101458,7,1
-7.542214e-05,-0.001197076,7,1
-5.370539e-05,-0.001243265,7,1
-4.138842e-05,-0.001237268,7,1
-4.770897e-05,-0.001186542,7,1
-7.526008e-05,-0.001099513,7,1
-0.0001161005,-0.0009902808,7,1
-0.0001609926,-0.0008826694,7,1
-0.0001997262,-0.0007958024,7,1
-0.0002261429,-0.0007193076,7,1
-0.0002379736,-0.0006125065,7,1
-0.0002271153,-0.000422566,7,1
-0.0001859507,-0.0001258245,7,1
-0.0001188556,0.0002581083,7,1
-4.625038e-05,0.0006772094,7,1
6.258778e-06,0.001090963,7,1
2.959619e-05,0.001498071,7,1
3.526847e-05,0.001935487,7,1
4.418206e-05,0.002443564,7,1
7.432621e-05,0.003016792,7,1
0.0001300767,0.003578515,7,1
0.0001979821,0.004003941,7,1
0.0002495189,0.004164712,7,1
0.0002636185,0.003985466,7,1
0.0002391467,0.003476413,7,1
0.0001960373,0.00273269,7,1
0.0001620036,0.001900157,7,1
0.0001540623,0.001120945,7,1
0.0001751309,0.0004994237,7,1
0.0002196988,8.275361e-05,7,1
0.0002757735,-0.0001434896,7,1
0.0003310377,-0.0002345703,7,1
0.0003718782,-0.0002525595,7,1
0.0003934329,-0.000246239,7,1
0.000386302,-0.0002475355,7,1
0.0003448133,-0.0002653627,7,1
0.0002769079,-0.000298424,7,1
0.0002049509,-0.0003399127,7,1
0.00015309,-0.0003861013,7,1
0.0001401247,-0.0004316416,7,1
0.0001692965,-0.0004737787,7,1
0.0002266676,-0.0005178604,7,1
0.0002882525,-0.0005728005,7,1
0.0003346032,-0.0006416783,7,1
0.0003509718,-0.0007225489,7,1
0.0003313618,-0.0008050401,7,1
0.0002790148,-0.0008782936,7,1
0.000207706,-0.0009337199,7,1
0.0001334801,-0.0009651606,7,1
6.978839e-05,-0.000968726,7,1
2.052053e-05,-0.0009408508,7,1
-2.258885e-05,-0.0008885037,7,1
-7.153257e-05,-0.0008277292,7,1
-0.0001339277,-0.0007766787,7,1
-0.0002049123,-0.000742969,7,1
-0.0002703867,-0.0007225489,7,1
-0.000315765,-0.000708125,7,1
-0.000325813,-0.0006896496,7,1
-0.0002929138,-0.0006586951,7,1
-0.0002173914,-0.0006159099,7,1
-0.0001099421,-0.0005690731,7,1
7.23117e-06,-0.0005345531,7,1
0.0001022015,-0.0005233706,7,1
0.0001500107,-0.0005358497,7,1
0.0001475797,-0.0005656697,7,1
0.0001124116,-0.0006018102,7,1
6.606088e-05,-0.0006314681,7,1
