EMG1,EMG2,class,user
0.0002736666,2.531276e-06,7,1
0.0002355812,-3.911951e-05,7,1
0.0001548727,-7.282909e-05,7,1
5.52025e-05,-9.341139e-05,7,1
-3.814712e-05,-0.000102325,7,1
-0.0001096179,-9.973194e-05,7,1
-0.0001551583,-8.352541e-05,7,1
-0.0001736337,-5.402952e-05,7,1
-0.0001661787,-1.399939e-05,7,1
-0.0001344139,3.202716e-05,7,1
-8.595638e-05,7.870197e-05,7,1
-3.26369e-05,0.000120839,7,1
1.1769e-05,0.0001480659,7,1
3.93201e-05,0.0001487142,7,1
4.126489e-05,0.0001140322,7,1
9.986281e-06,4.272347e-05,7,1
-5.370539e-05,-5.581224e-05,7,1
-0.0001332795,-0.0001705545,7,1
-0.0002028055,-0.0002914552,7,1
-0.0002394322,-0.0004078181,7,1
-0.0002378116,-0.000509595,7,1
-0.0002170672,-0.0005917621,7,1
-0.0002062088,-0.0006475127,7,1
-0.000224036,-0.0006710121,7,1
-0.0002598524,-0.0006672846,7,1
-0.0002878898,-0.0006523746,7,1
-0.0002869174,-0.0006395715,7,1
-0.0002472114,-0.0006363301,7,1
-0.0001741199,-0.0006415162,7,1
-8.611845e-05,-0.0006476747,7,1
-1.659243e-05,-0.0006488092,7,1
3.665733e-06,-0.0006428128,7,1
-2.745081e-05,-0.0006256338,7,1
-8.82253e-05,-0.0005958138,7,1
-0.000142031,-0.0005528665,7,1
-0.0001627754,-0.0005081365,7,1
-0.0001417068,-0.0004765338,7,1
-8.563225e-05,-0.0004625961,7,1
-1.092015e-05,-0.0004619479,7,1
5.666109e-05,-0.0004603272,7,1
9.507057e-05,-0.0004389346,7,1
9.134307e-05,-0.0003823738,7,1
6.006447e-05,-0.0002852967,7,1
3.494434e-05,-0.0001554824,7,1
4.061663e-05,-8.002969e-06,7,1
7.497447e-05,0.0001385041,7,1
0.0001190562,0.0002665357,7,1
0.0001469315,0.0003645853,7,1
0.0001355869,0.0004331389,7,1
8.599492e-05,0.0004798138,7,1
2.667901e-05,0.0005146578,7,1
-8.002969e-06,0.0005438296,7,1
4.962256e-06,0.0005674912,7,1
5.439218e-05,0.0005798081,7,1
0.0001046324,0.000574622,7,1
0.0001211631,0.0005503122,7,1
9.377406e-05,0.000512713,7,1
4.304761e-05,0.0004696036,7,1
-7.100305e-07,0.0004266563,7,1
-8.975362e-06,0.0003840331,7,1
4.807163e-05,0.0003362238,7,1
0.0001890685,0.0002788527,7,1
0.0003969983,0.0002179161,7,1
0.0006164349,0.0001610312,7,1
0.0007810934,0.0001117633,7,1
0.0008524022,6.995045e-05,7,1
0.00082712,3.753739e-05,7,1
0.0007261531,2.165498e-05,7,1
0.0005815908,2.76514e-05,7,1
0.0004250357,5.179914e-05,7,1
0.0002775562,8.113296e-05,7,1
0.000153252,0.000108522,7,1
5.487838e-05,0.000128456,7,1
-2.826114e-05,0.0001419075,7,1
-0.0001044318,0.0001522796,7,1
-0.0001786577,0.0001595726,7,1
-0.000248832,0.0001582761,7,1
-0.0003066893,0.0001396385,7,1
-0.0003457471,0.0001015532,7,1
-0.0003613053,4.645098e-05,7,1
-0.0003540124,-2.064406e-05,7,1
-0.0003329439,-8.887356e-05,7,1
-0.0003096065,-0.0001475412,7,1
-0.0002890242,-0.0001921092,7,1
-0.0002643903,-0.0002253326,7,1
-0.0002319772,-0.0002494803,7,1
-0.0001956746,-0.000261311,7,1
-0.0001655305,-0.0002592042,7,1
-0.0001501342,-0.0002408908,7,1
-0.0001567789,-0.0002131776,7,1
-0.0001914609,-0.0001859507,7,1
-0.000256287,-0.0001673132,7,1
-0.0003389403,-0.0001618029,7,1
-0.0004138145,-0.0001679614,7,1
-0.0004543308,-0.0001775233,7,1
-0.000444931,-0.0001823853,7,1
-0.0003919357,-0.0001747682,7,1
-0.0003154408,-0.0001483515,7,1
-0.0002326255,-0.0001013526,7,1
-0.0001464067,-3.458168e-05,7,1
-4.511593e-05,4.661304e-05,7,1
7.448828e-05,0.0001295905,7,1
0.0002064095,0.0001991165,7,1
0.0003360618,0.000244981,7,1
0.0004389733,0.0002668598,7,1
0.0004856481,0.0002649151,7,1
0.0004509661,0.0002427121,7,1
0.0003378445,0.0002034923,7,1
0.0001833962,0.0001547106,7,1
3.640293e-05,0.0001041462,7,1
-7.056019e-05,5.585077e-05,7,1
-0.0001384655,1.031041e-05,7,1
-0.0001883817,-3.085418e-05,7,1
-0.0002303566,-6.456377e-05,7,1
-0.0002499665,-9.260107e-05,7,1
-0.0002224154,-0.0001157764,7,1
-0.0001269589,-0.0001342519,7,1
3.413401e-05,-0.0001501342,7,1
0.0002216436,-0.0001673132,7,1
0.0003775505,-0.0001872472,7,1
0.0004512903,-0.0002068571,7,1
0.0004321665,-0.0002182017,7,1
0.0003495132,-0.0002204706,7,1
0.0002540567,-0.0002135018,7,1
0.0001898788,-0.0001982676,7,1
0.0001743205,-0.0001794681,7,1
0.0001931201,-0.0001687718,7,1
0.0002038164,-0.0001705545,7,1
0.0001587623,-0.0001872472,7,1
3.332369e-05,-0.0002172293,7,1
-0.0001483515,-0.0002574215,7,1
-0.0003311612,-0.0002951827,7,1
-0.00046211,-0.000318196,7,1
-0.0005068399,-0.00032322,7,1
-0.0004525481,-0.0003160891,7,1
-0.0003045825,-0.0003113892,7,1
-0.0001007043,-0.0003238683,7,1
9.782569e-05,-0.0003635742,7,1
0.0002370398,-0.0004331002,7,1
0.000289549,-0.0005308256,7,1
0.0002663737,-0.0006523746,7,1
0.0002047888,-0.0007868888,7,1
0.0001449867,-0.0009137859,7,1
0.0001088461,-0.001012646,7,1
9.782569e-05,-0.001068882,7,1
9.571884e-05,-0.001071151,7,1
8.486046e-05,-0.001013942,7,1
5.633696e-05,-0.000909248,7,1
1.063454e-05,-0.0007718167,7,1
-3.911951e-05,-0.0006074825,7,1
-8.07703e-05,-0.0004193247,7,1
-0.0001091317,-0.0002105846,7,1
-0.0001292278,1.22552e-05,7,1
-0.0001438137,0.0002316917,7,1
-0.0001454344,0.000435732,7,1
-0.0001277692,0.0006336138,7,1
-9.405965e-05,0.0008314957,7,1
-5.662256e-05,0.001019005,7,1
-2.89094e-05,0.001170537,7,1
-2.323711e-05,0.00127118,7,1
-4.219875e-05,0.001319637,7,1
-8.141856e-05,0.00133714,7,1
-0.0001245279,0.001367447,7,1
-0.0001480274,0.001469548,7,1
-0.0001412206,0.00169725,7,1
-0.0001139937,0.002064329,7,1
-8.530812e-05,0.002515359,7,1
-7.428769e-05,0.002938838,7,1
-8.352541e-05,0.003204789,7,1
-0.0001010285,0.003224886,7,1
-0.0001112386,0.0029719,7,1
-0.0001032974,0.002493318,7,1
-8.303922e-05,0.001893188,7,1
-6.926366e-05,0.001287872,7,1
-7.898758e-05,0.0007729901,7,1
-0.0001115627,0.0003982949,7,1
-0.0001538618,0.0001668655,7,1
-0.0001864369,4.677511e-05,7,1
-0.0002000504,-5.247859e-06,7,1
-0.0001956746,-2.826114e-05,7,1
-0.0001770371,-4.365734e-05,7,1
-0.0001399241,-5.872941e-05,7,1
-7.963584e-05,-7.65566e-05,7,1
-6.868513e-06,-9.778715e-05,7,1
5.017848e-05,-0.0001277692,7,1
6.476436e-05,-0.0001648822,7,1
3.624086e-05,-0.0002031296,7,1
-1.432352e-05,-0.0002384598,7,1
-6.083626e-05,-0.0002713591,7,1
-9.19528e-05,-0.0003086341,7,1
-0.000107349,-0.000360495,7,1
-0.000112211,-0.0004382863,7,1
-0.0001055663,-0.0005488148,7,1
-8.871149e-05,-0.0006945116,7,1
-6.083626e-05,-0.0008672731,7,1
-2.761287e-05,-0.001050245,7,1
7.879432e-06,-0.001222682,7,1
3.575467e-05,-0.001363841,7,1
3.93201e-05,-0.001462215,7,1
3.665733e-06,-0.001511969,7,1
-7.218083e-05,-0.001513914,7,1
-0.0001721751,-0.001473235,7,1
-0.0002669833,-0.001398037,7,1
-0.0003271096,-0.001294801,7,1
-0.0003324577,-0.001164015,7,1
-0.0002692523,-0.00100276,7,1
-0.0001439758,-0.0008035815,7,1
2.116879e-05,-0.0005562698,7,1
0.0001923098,-0.0002593663,7,1
0.0003337929,6.217132e-05,7,1
0.0004253598,0.0003430306,7,1
0.0004699278,0.0005143337,7,1
0.0004931031,0.0005381573,7,1
0.0005209784,0.0004206599,7,1
0.0005490156,0.0002067336,7,1
0.0005496639,-3.652646e-05,7,1
0.0004960203,-0.000251101,7,1
0.0003859779,-0.0004061974,7,1
0.0002488706,-0.0004971161,7,1
0.0001315353,-0.0005311498,7,1
6.476436e-05,-0.0005180225,7,1
5.649903e-05,-0.000469727,7,1
9.701536e-05,-0.0004034423,7,1
0.0001722137,-0.0003410472,7,1
0.0002555152,-0.0003063652,7,1
0.0003209897,-0.000315765,7,1
0.0003657197,-0.0003668155,7,1
0.0003981328,-0.0004412035,7,1
0.0004232529,-0.0005141329,7,1
0.0004412422,-0.0005672903,7,1
0.0004587452,-0.0005940311,7,1
0.0004790034,-0.0006003517,7,1
0.0004856481,-0.0005920863,7,1
0.0004533971,-0.0005732867,7,1
0.0003754436,-0.0005486528,7,1
0.0002649151,-0.0005251534,7,1
0.0001419075,-0.0005068399,7,1
2.554455e-05,-0.0005048952,7,1
-6.229485e-05,-0.0005326084,7,1
-0.0001092938,-0.0005916001,7,1
-0.0001151281,-0.000665826,7,1
-9.227693e-05,-0.0007337314,7,1
-5.467778e-05,-0.0007804062,7,1
-1.416145e-05,-0.0007974231,7,1
2.230325e-05,-0.0007773269,7,1
4.758544e-05,-0.0007097457,7,1
4.953022e-05,-0.0005896553,7,1
2.376183e-05,-0.0004219178,7,1
-1.497178e-05,-0.0002191741,7,1
-4.025397e-05,4.244267e-07,7,1
-3.68506e-05,0.0002143507,7,1
-1.562004e-05,0.0004002396,7,1
-9.947754e-06,0.0005441537,7,1
-4.317115e-05,0.0006447964,7,1
-0.0001016767,0.0007065432,7,1
-0.0001535376,0.0007352289,7,1
-0.0001940539,0.0007353909,7,1
-0.0002517492,0.0007130259,7,1
-0.0003397507,0.000676237,7,1
-0.0004284004,0.0006396103,7,1
-0.0004661616,0.0006276174,7,1
-0.0004269418,0.0006663511,7,1
-0.0003298647,0.0007661834,7,1
-0.0002167431,0.0009170663,7,1
-0.000122259,0.001091611,7,1
-6.0188e-05,0.001254973,7,1
-2.534396e-05,0.001371984,7,1
-8.651231e-06,0.001410718,7,1
-1.643037e-05,0.001356588,7,1
-6.553616e-05,0.001216401,7,1
-0.0001650443,0.001013009,7,1
-0.0002963172,0.00077769,7,1
-0.0004084663,0.0005405883,7,1
-0.0004567618,0.000331686,7,1
-0.0004251591,0.0001709172,7,1
-0.0003227338,6.719535e-05,7,1
-0.0001804405,1.64689e-05,7,1
-4.284701e-05,2.369211e-06,7,1
4.758544e-05,-3.789272e-06,7,1
6.541262e-05,-2.599222e-05,7,1
1.9224e-05,-7.363943e-05,7,1
-5.759496e-05,-0.0001433275,7,1
-0.0001217728,-0.0002220912,7,1
-0.0001441378,-0.0002904828,7,1
-0.0001261486,-0.0003308371,7,1
-9.162867e-05,-0.0003326198,7,1
-6.456377e-05,-0.0002968033,7,1
-4.38194e-05,-0.0002350565,7,1
-1.480971e-05,-0.0001642339,7,1
3.105477e-05,-9.989401e-05,7,1
8.437427e-05,-4.997789e-05,7,1
0.0001216493,-1.383732e-05,7,1
0.0001177597,1.565857e-05,7,1
6.119892e-05,4.920609e-05,7,1
-4.203669e-05,9.393612e-05,7,1
-0.0001640719,0.0001430419,7,1
-0.0002703867,0.0001791825,7,1
-0.0003366714,0.0001850168,7,1
-0.0003465574,0.000155683,7,1
-0.0002896725,9.733949e-05,7,1
-0.000174444,2.538249e-05,7,1
-2.501983e-05,-4.219875e-05,7,1
0.0001265113,-9.130454e-05,7,1
0.0002431983,-0.0001164247,7,1
0.0002979764,-0.0001243659,7,1
0.000282094,-0.0001263107,7,1
0.0002060853,-0.0001290658,7,1
9.004655e-05,-0.0001353863,7,1
-4.462973e-05,-0.0001457585,7,1
-0.0001624512,-0.0001548341,7,1
-0.0002253326,-0.0001609926,7,1
-0.0002149604,-0.0001609926,7,1
-0.0001405724,-0.0001571031,7,1
-2.291298e-05,-0.0001562927,7,1
0.0001124116,-0.0001635857,7,1
0.0002302331,-0.0001741199,7,1
0.0003033245,-0.0001752544,7,1
0.0003308757,-0.0001611547,7,1
0.0003282826,-0.000134576,7,1
0.0003028383,-0.0001050801,7,1
0.0002506533,-8.368748e-05,7,1
0.000170431,-7.477388e-05,7,1
7.935024e-05,-7.493595e-05,7,1
7.393236e-06,-7.120844e-05,7,1
-2.307504e-05,-4.819517e-05,7,1
-6.868513e-06,-2.006553e-06,7,1
3.98063e-05,5.876794e-05,7,1
8.972242e-05,0.0001211631,7,1
0.0001154908,0.0001764274,7,1
9.928428e-05,0.0002247229,7,1
4.191315e-05,0.0002645909,7,1
-3.782299e-05,0.000294573,7,1
-0.0001143178,0.0003106175,7,1
-0.0001695821,0.0003130485,7,1
-0.0001979435,0.0003000832,7,1
-0.0002024813,0.0002688046,7,1
-0.0001929195,0.0002193747,7,1
-0.0001775233,0.0001598967,7,1
-0.0001611547,9.863601e-05,7,1
-0.0001527273,3.996837e-05,7,1
-0.0001585616,-1.529591e-05,7,1
-0.0001681235,-6.602235e-05,7,1
-0.0001658546,-0.0001110765,7,1
-0.0001349001,-0.0001491618,7,1
-6.91016e-05,-0.0001763888,7,1
2.327564e-05,-0.0001932436,7,1
0.0001179218,-0.0002008607,7,1
0.0001880961,-0.0002034537,7,1
0.0002141886,-0.0002053985,7,1
0.0001958752,-0.0002100984,7,1
0.0001501728,-0.0002169052,7,1
9.669123e-05,-0.0002204706,7,1
4.580272e-05,-0.000213988,7,1
4.151929e-06,-0.0001959987,7,1
-2.631635e-05,-0.0001715269,7,1
-4.835724e-05,-0.0001549962,7,1
-6.618442e-05,-0.0001575893,7,1
-7.963584e-05,-0.0001840059,7,1
-8.352541e-05,-0.0002347323,7,1
-6.829127e-05,-0.0003091203,7,1
-3.328516e-05,-0.0004092767,7,1
9.986281e-06,-0.0005313118,7,1
4.72613e-05,-0.000658371,7,1
7.6271e-05,-0.0007679272,7,1
9.717743e-05,-0.0008479874,7,1
0.0001124116,-0.0009004966,7,1
0.000125863,-0.0009306407,7,1
0.0001328318,-0.00094863,7,1
0.0001203528,-0.0009662951,7,1
8.194328e-05,-0.0009988702,7,1
2.732727e-05,-0.001063048,7,1
-2.550602e-05,-0.001165311,7,1
-6.699475e-05,-0.001287508,7,1
-0.0001034594,-0.001398523,7,1
-0.0001418689,-0.001460432,7,1
-0.0001755785,-0.001439364,7,1
-0.0001929195,-0.001317977,7,1
-0.0001880575,-0.001094813,7,1
-0.0001556445,-0.000782513,7,1
-9.324933e-05,-0.0003961493,7,1
1.234753e-06,5.390598e-05,7,1
0.0001239182,0.0005730013,7,1
0.0002581083,0.001177344,7,1
0.0003806297,0.001859802,7,1
0.0004694416,0.002564789,7,1
0.0005185474,0.003185017,7,1
0.0005337815,0.003603798,7,1
0.0005240576,0.003742365,7,1
0.0004956961,0.003590995,7,1
0.0004414042,0.003208517,7,1
0.000346596,0.002714052,7,1
0.0002046267,0.002241143,7,1
2.943412e-05,0.001900967,7,1
-0.0001489998,0.001748139,7,1
-0.0002932379,0.001770666,7,1
-0.0003707051,0.001896267,7,1
-0.0003585502,0.002028351,7,1
-0.0002517492,0.002084263,7,1
-7.590833e-05,0.002011172,7,1
0.0001193804,0.001806483,7,1
0.0002786906,0.001518492,7,1
0.0003576164,0.001208136,7,1
0.0003467581,0.000921118,7,1
0.0002769079,0.0006759129,7,1
0.0001944166,0.0004673347,7,1
0.0001305629,0.0002780424,7,1
9.280167e-05,9.960841e-05,7,1
6.914012e-05,-7.120844e-05,7,1
3.753739e-05,-0.0002347323,7,1
-2.129233e-05,-0.0003873979,7,1
-0.0001089697,-0.0005264499,7,1
-0.0002178775,-0.0006528608,7,1
-0.00032322,-0.0007669547,7,1
-0.0003985804,-0.0008630594,7,1
-0.0004262935,-0.0009379336,7,1
-0.0004032803,-0.0009936841,7,1
-0.0003425058,-0.001038738,7,1
-0.0002718453,-0.001081686,7,1
-0.0002160948,-0.001125281,7,1
-0.0001737958,-0.001165473,7,1
-0.0001276072,-0.001198859,7,1
-6.180866e-05,-0.001227058,7,1
1.64689e-05,-0.001254447,7,1
7.870197e-05,-0.001282485,7,1
8.972242e-05,-0.001307281,7,1
3.154097e-05,-0.001323649,7,1
-8.40116e-05,-0.001325432,7,1
-0.0002185258,-0.001310198,7,1
-0.0003243544,-0.00127746,7,1
-0.0003682741,-0.001226086,7,1
-0.0003514194,-0.001159801,7,1
-0.0002930758,-0.001093516,7,1
-0.0002130156,-0.001044735,7,1
-0.0001242038,-0.001021721,7,1
-3.26369e-05,-0.001021235,7,1
5.471631e-05,-0.001032094,7,1
0.0001325077,-0.001041655,7,1
0.0001921477,-0.00103728,7,1
0.0002218057,-0.001009566,7,1
0.0002138645,-0.0009552746,7,1
0.000173024,-0.0008784557,7,1
0.0001161391,-0.0007839716,7,1
5.666109e-05,-0.0006771705,7,1
4.962256e-06,-0.0005661559,7,1
-4.203669e-05,-0.0004600031,7,1
-9.19528e-05,-0.0003698948,7,1
-0.0001468929,-0.0002982619,7,1
-0.0001945401,-0.0002382978,7,1
-0.0002146363,-0.0001784957,7,1
-0.0001943781,-0.000112373,7,1
-0.0001407345,-3.571614e-05,7,1
-7.137051e-05,4.288554e-05,7,1
-3.303076e-06,0.0001107909,7,1
5.131294e-05,0.0001517934,7,1
9.442231e-05,0.0001590864,7,1
0.0001315353,0.0001367214,7,1
0.0001699448,9.766362e-05,7,1
0.0002111094,5.487838e-05,7,1
0.0002576221,1.565857e-05,7,1
0.000307052,-1.659243e-05,7,1
0.0003537269,-3.830919e-05,7,1
0.0003856538,-4.770897e-05,7,1
0.0003913261,-5.338126e-05,7,1
0.0003623164,-6.148453e-05,7,1
0.0002918179,-7.412562e-05,7,1
0.0001867996,-8.595638e-05,7,1
6.638502e-05,-9.000802e-05,7,1
-4.80331e-05,-8.384954e-05,7,1
-0.0001433275,-6.650855e-05,7,1
-0.000206533,-4.317115e-05,7,1
-0.000236353,-2.177852e-05,7,1
-0.0002321393,-7.030578e-06,7,1
-0.0002024813,3.665733e-06,7,1
-0.0001621271,1.12828e-05,7,1
-0.0001154523,1.533444e-05,7,1
-5.030202e-05,1.630683e-05,7,1
4.839576e-05,2.165498e-05,7,1
0.0001726999,3.543054e-05,7,1
0.0002848491,5.730935e-05,7,1
0.0003443271,8.891209e-05,7,1
0.0003252034,0.0001318594,7,1
0.0002232643,0.0001889064,7,1
6.006447e-05,0.0002645909,7,1
-0.0001243659,0.0003587509,7,1
-0.0002877277,0.0004668485,7,1
-0.0003980942,0.0005866149,7,1
-0.0004416897,0.0007130259,7,1
-0.0004198109,0.0008332785,7,1
-0.0003472056,0.000928735,7,1
-0.0002392702,0.00098562,7,1
-0.0001154523,0.0009951819,7,1
1.306552e-05,0.0009536931,7,1
0.0001470936,0.0008658536,7,1
0.0002827423,0.000745601,7,1
0.0003995914,0.0006114109,7,1
0.0004752759,0.0004791655,7,1
0.0004974789,0.0003658818,7,1
0.0004702519,0.0002775562,7,1
0.0004114222,0.0002135403,7,1
0.0003491891,0.0001673517,7,1
0.0002965178,0.0001310491,7,1
0.0002568118,9.766362e-05,7,1
0.0002289366,6.395404e-05,7,1
0.0002091646,3.202716e-05,7,1
0.0001884202,5.772582e-06,7,1
0.0001558451,-1.464765e-05,7,1
0.0001049566,-3.182657e-05,7,1
3.688912e-05,-5.030202e-05,7,1
-3.814712e-05,-6.942573e-05,7,1
-0.0001042698,-8.854943e-05,7,1
-0.0001451102,-0.0001016767,7,1
-0.0001562927,-0.0001075111,7,1
-0.0001524032,-0.0001107524,7,1
-0.0001543479,-0.000122259,7,1
-0.0001721751,-0.0001434896,7,1
-0.0002005366,-0.0001653684,7,1
-0.0002235498,-0.000176713,7,1
-0.0002266291,-0.0001737958,7,1
-0.0002053985,-0.0001598582,7,1
-0.0001713648,-0.0001404103,7,1
-0.0001451102,-0.0001243659,7,1
-0.0001408965,-0.000117235,7,1
-0.0001528894,-0.0001206384,7,1
-0.0001741199,-0.0001313347,7,1
-0.000201509,-0.0001426792,7,1
-0.0002305186,-0.0001507825,7,1
-0.0002507768,-0.0001546721,7,1
-0.0002541802,-0.0001556445,7,1
-0.0002417012,-0.0001524032,7,1
-0.0002207947,-0.0001436516,7,1
-0.0001947022,-0.0001279313,7,1
-0.0001645581,-0.0001016767,7,1
-0.0001250141,-6.845333e-05,7,1
-6.958779e-05,-3.182657e-05,7,1
4.151929e-06,3.179537e-06,7,1
9.182927e-05,3.769945e-05,7,1
0.0001816135,8.080883e-05,7,1
0.0002535705,0.0001475797,7,1
0.0002918179,0.0002477361,7,1
0.0002926282,0.0003704196,7,1
0.0002608634,0.0004890515,7,1
0.000207706,0.0005814288,7,1
0.0001488763,0.0006373413,7,1
9.555677e-05,0.0006569512,7,1
5.52025e-05,0.0006481997,7,1
3.073064e-05,0.0006180556,7,1
2.408596e-05,0.0005741358,7,1
3.073064e-05,0.0005219508,7,1
4.72613e-05,0.0004678209,7,1
8.194328e-05,0.0004239012,7,1
0.0001487142,0.000396188,7,1
0.0002475741,0.0003811159,7,1
0.0003605336,0.000368961,7,1
0.0004673347,0.0003474063,7,1
0.0005454503,0.00030689,7,1
0.0005704083,0.0002441707,7,1
0.0005279472,0.0001675138,7,1
0.0004227667,9.150514e-05,7,1
0.0002819319,2.651694e-05,7,1
0.000138342,-2.177852e-05,7,1
1.306552e-05,-5.613637e-05,7,1
-9.065628e-05,-7.55842e-05,7,1
-0.0001747682,-7.736692e-05,7,1
-0.0002373254,-5.629844e-05,7,1
-0.0002797865,-1.513384e-05,7,1
-0.0003118754,3.688912e-05,7,1
-0.000343154,9.020862e-05,7,1
-0.0003713534,0.000138342,7,1
-0.0003880461,0.0001769136,7,1
-0.0003888564,0.0002007372,7,1
-0.0003700569,0.0002124059,7,1
-0.0003298647,0.0002174299,7,1
-0.0002715212,0.0002261814,7,1
-0.0002076674,0.0002446569,7,1
-0.0001553203,0.0002704253,7,1
-0.0001310105,0.0002885766,7,1
-0.0001376552,0.0002814457,7,1
-0.0001707166,0.0002378501,7,1
-0.0002113949,0.000160545,7,1
-0.0002431597,6.071273e-05,7,1
-0.0002574215,-4.738484e-05,7,1
-0.0002523975,-0.0001522411,7,1
-0.0002344082,-0.0002431597,7,1
-0.0002225774,-0.0003177098,7,1
-0.0002293842,-0.0003770257,7,1
-0.0002485079,-0.0004220798,7,1
-0.0002652006,-0.0004557894,7,1
-0.0002640662,-0.000479613,7,1
-0.0002431597,-0.0004990608,7,1
-0.0002172293,-0.0005196431,7,1
-0.0002026434,-0.0005428185,7,1
-0.0002029675,-0.0005645352,7,1
-0.0002154466,-0.0005778245,7,1
-0.000228898,-0.0005750695,7,1
-0.0002290601,-0.0005556216,7,1
-0.000204102,-0.0005279084,7,1
-0.0001527273,-0.0005074882,7,1
-8.984595e-05,-0.0005040849,7,1
-4.203669e-05,-0.0005159156,7,1
-2.388537e-05,-0.0005283947,7,1
-2.696461e-05,-0.0005355255,7,1
-2.356124e-05,-0.0005377944,7,1
8.527692e-06,-0.0005394151,7,1
6.735741e-05,-0.0005428185,7,1
0.0001291043,-0.0005468701,7,1
0.0001660552,-0.0005457356,7,1
0.000168,-0.000539091,7,1
0.0001500107,-0.0005298533,7,1
0.0001260251,-0.0005172121,7,1
0.0001099806,-0.0004990608,7,1
0.0001106288,-0.0004742648,7,1
0.0001344524,-0.0004382863,7,1
0.000180479,-0.0003818876,7,1
0.0002292607,-0.0002945344,7,1
0.0002550291,-0.0001716889,7,1
0.0002386605,-1.724069e-05,7,1
0.0001905271,0.0001668655,7,1
0.0001404489,0.0003822504,7,1
0.000113546,0.0006219451,7,1
0.0001175977,0.0008671501,7,1
0.0001504969,0.001082859,7,1
0.0002021958,0.001223046,7,1
0.0002568118,0.001252218,7,1
0.0002999212,0.001160975,7,1
0.0003185587,0.0009747617,7,1
0.0003104554,0.0007460872,7,1
0.0002867939,0.0005276231,7,1
0.0002707494,0.000351458,7,1
0.0002744769,0.0002282883,7,1
0.0002931144,0.0001513072,7,1
0.000309483,0.0001030118,7,1
0.0003073762,6.751948e-05,7,1
0.0002783665,3.705119e-05,7,1
0.0002268297,9.175954e-06,7,1
0.0001694586,-1.237873e-05,7,1
0.000115977,-2.615429e-05,7,1
7.286763e-05,-3.571614e-05,7,1
4.402e-05,-4.949169e-05,7,1
2.76514e-05,-7.477388e-05,7,1
9.824215e-06,-0.0001112386,7,1
-2.388537e-05,-0.0001506204,7,1
-7.526008e-05,-0.0001814128,7,1
-0.0001344139,-0.0001906506,7,1
-0.0001874093,-0.0001757406,7,1
-0.0002220912,-0.0001418689,7,1
-0.0002277635,-9.2439e-05,7,1
-0.0002026434,-2.7937e-05,7,1
-0.0001585616,5.406805e-05,7,1
-0.0001091317,0.0001564933,7,1
-6.634648e-05,0.0002817699,7,1
-4.544006e-05,0.0004300596,7,1
-5.905355e-05,0.0005825632,7,1
-0.0001170729,0.0007070294,7,1
-0.0002073433,0.0007772038,7,1
-0.0002917793,0.0007778521,7,1
-0.0003248407,0.0007101087,7,1
-0.0002883759,0.0005817529,7,1
-0.0002039399,0.0004088291,7,1
-0.0001138316,0.0002153231,7,1
-5.013995e-05,2.619281e-05,7,1
-2.356124e-05,-0.0001442999,7,1
-2.275091e-05,-0.0002904828,7,1
-2.712668e-05,-0.0004079801,7,1
-2.437157e-05,-0.0004911196,7,1
-1.25408e-05,-0.00053666,7,1
6.582909e-06,-0.0005514079,7,1
2.878586e-05,-0.0005481666,7,1
5.260946e-05,-0.0005381186,7,1
8.405014e-05,-0.0005322842,7,1
0.0001214872,-0.0005369841,7,1
0.0001503349,-0.000556594,7,1
0.0001480659,-0.0005873864,7,1
0.000108522,-0.0006204477,7,1
4.645098e-05,-0.0006518884,7,1
-1.173047e-05,-0.0006792775,7,1
-4.868137e-05,-0.0007032631,7,1
-6.715681e-05,-0.0007215765,7,1
-7.55842e-05,-0.0007319486,7,1
-8.692878e-05,-0.0007408622,7,1
-0.0001060525,-0.0007588515,7,1
-0.0001267968,-0.0007922369,7,1
-0.0001342519,-0.000834536,7,1
-0.0001089697,-0.0008684076,7,1
-4.80331e-05,-0.0008758627,7,1
2.894792e-05,-0.0008513908,7,1
9.750156e-05,-0.0007979092,7,1
0.0001441764,-0.0007266005,7,1
0.0001728619,-0.0006420024,7,1
0.0001992786,-0.0005431426,7,1
0.0002359054,-0.0004215936,7,1
0.0002767458,-0.0002679557,7,1
0.0003038107,-6.683268e-05,7,1
0.0003007315,0.0001968476,7,1
0.0002555152,0.0005133613,7,1
0.0001769136,0.0008352232,7,1
9.069481e-05,0.001086911,7,1
3.380988e-05,0.00121397,7,1
2.035846e-05,0.00120214,7,1
4.628891e-05,0.001080104,7,1
9.085688e-05,0.0009016701,7,1
0.0001331559,0.000723236,7,1
0.0001576278,0.0005908285,7,1
0.0001509831,0.0005305402,7,1
9.879808e-05,0.0005352402,7,1
7.485573e-07,0.0005751082,7,1
-0.0001211246,0.0006214589,7,1
-0.0002196603,0.000659058,7,1
-0.000236353,0.0006870955,7,1
-0.0001318209,0.0007165913,7,1
7.853991e-05,0.0007613214,7,1
0.0003226103,0.0008280924,7,1
0.0005091476,0.0009070183,7,1
0.0005785116,0.0009771927,7,1
0.0005281092,0.001013009,7,1
0.000406074,0.0009979371,7,1
0.0002735045,0.0009334349,7,1
0.0001691344,0.0008366818,7,1
0.0001064152,0.0007277738,7,1
7.448828e-05,0.0006208107,7,1
4.402e-05,0.0005266506,7,1
-5.247859e-06,0.0004493454,7,1
-7.477388e-05,0.0003869503,7,1
-0.0001528894,0.0003302274,7,1
-0.0002308428,0.0002733424,7,1
-0.0002995585,0.0002198609,7,1
-0.0003561192,0.0001731861,7,1
-0.000402794,0.0001313732,7,1
-0.000427428,8.84259e-05,7,1
-0.000410249,4.369587e-05,7,1
-0.000345585,4.244267e-07,7,1
-0.0002483458,-3.409549e-05,7,1
-0.0001421931,-6.099833e-05,7,1
-4.641245e-05,-8.919769e-05,7,1
2.34377e-05,-0.0001284175,7,1
5.374392e-05,-0.0001810887,7,1
4.515445e-05,-0.0002442942,7,1
1.257933e-05,-0.0003081479,7,1
-2.113026e-05,-0.0003668155,7,1
-3.296103e-05,-0.0004155972,7,1
-1.189254e-05,-0.000457248,7,1
3.802358e-05,-0.0004977643,7,1
9.053275e-05,-0.0005397392,7,1
0.0001122495,-0.0005854416,7,1
9.037068e-05,-0.0006322784,7,1
4.013043e-05,-0.0006749016,7,1
-1.610624e-05,-0.0007066664,7,1
-6.261898e-05,-0.0007235213,7,1
-9.973194e-05,-0.0007262764,7,1
-0.0001404103,-0.0007238454,7,1
-0.0001919471,-0.0007222248,7,1
-0.0002433218,-0.0007214144,7,1
-0.0002754107,-0.0007160662,7,1
-0.0002757348,-0.0006985632,7,1
-0.0002429977,-0.0006672846,7,1
-0.0001846542,-0.0006257959,7,1
-0.0001212866,-0.0005831727,7,1
-7.542214e-05,-0.0005450874,7,1
-6.569822e-05,-0.0005099192,7,1
-8.790117e-05,-0.000474589,7,1
-0.0001149661,-0.0004368278,7,1
-0.0001144799,-0.0004005251,7,1
-7.169464e-05,-0.00036795,7,1
3.179537e-06,-0.0003360231,7,1
8.178122e-05,-0.000290969,7,1
0.000128456,-0.0002233878,7,1
0.0001153287,-0.0001353863,7,1
4.110282e-05,-4.997789e-05,7,1
-6.537409e-05,9.824215e-06,7,1
-0.0001618029,3.202716e-05,7,1
-0.0002175534,1.889987e-05,7,1
-0.0002199844,-1.902341e-05,7,1
-0.0001739578,-6.132246e-05,7,1
-0.0001016767,-8.773911e-05,7,1
-3.490581e-05,-9.2439e-05,7,1
3.989864e-06,-7.931171e-05,7,1
1.387585e-05,-5.840528e-05,7,1
8.527692e-06,-3.992984e-05,7,1
6.744974e-06,-2.761287e-05,7,1
2.441009e-05,-1.869928e-05,7,1
6.914012e-05,-1.20546e-05,7,1
0.000150659,-9.137427e-06,7,1
0.0002731804,-8.489166e-06,7,1
0.0004198496,-2.168618e-06,7,1
0.0005631154,1.9224e-05,7,1
0.0006733199,5.649903e-05,7,1
0.0007211292,0.0001007429,7,1
0.0006874196,0.0001422316,7,1
0.0005741358,0.0001773998,7,1
0.0004078567,0.0002083542,7,1
0.0002268297,0.0002443328,7,1
6.78436e-05,0.0002958695,7,1
-4.997789e-05,0.0003652335,7,1
-0.0001232314,0.0004422146,7,1
-0.0001588858,0.0005115786,7,1
-0.000164396,0.0005689497,7,1
-0.0001473791,0.0006177314,7,1
-0.0001199901,0.000663758,7,1
-9.276313e-05,0.0007117294,7,1
-6.602235e-05,0.0007558112,7,1
-4.074016e-05,0.000777528,7,1
-2.566809e-05,0.0007541905,7,1
-3.798505e-05,0.0006702406,7,1
-9.033215e-05,0.0005198439,7,1
-0.0001697442,0.0003145071,7,1
-0.0002434839,7.772959e-05,7,1
-0.0002818933,-0.0001543479,7,1
-0.0002812451,-0.0003522297,7,1
-0.0002603387,-0.0005001953,7,1
-0.0002434839,-0.0005990551,7,1
-0.0002439701,-0.0006655019,7,1
-0.0002579077,-0.0007160662,7,1
-0.0002763831,-0.0007603101,7,1
-0.0002924276,-0.0008040677,7,1
-0.0003049066,-0.0008552803,7,1
-0.0003149546,-0.000921565,7,1
-0.0003160891,-0.001004543,7,1
-0.0003040963,-0.001086385,7,1
-0.0002822175,-0.001130143,7,1
-0.0002480217,-0.001094003,7,1
-0.0001947022,-0.0009517092,7,1
-0.0001211246,-0.0006998597,7,1
-4.203669e-05,-0.0003577399,7,1
1.857574e-05,4.564065e-05,7,1
4.110282e-05,0.000487755,7,1
2.100672e-05,0.0009595275,7,1
-3.101625e-05,0.001471979,7,1
-9.486997e-05,0.002021382,7,1
-0.0001485136,0.002554741,7,1
-0.000176875,0.002984541,7,1
-0.0001794681,0.003222293,7,1
-0.000166989,0.003214513,7,1
-0.0001509446,0.002964283,7,1
-0.0001363587,0.002533835,7,1
-0.0001186936,0.002013441,7,1
-9.794922e-05,0.001490941,7,1
-7.623246e-05,0.001032295,7,1
-5.483985e-05,0.0006728336,7,1
-3.344723e-05,0.000411098,7,1
-9.947754e-06,0.0002237505,7,1
2.246531e-05,7.999851e-05,7,1
7.708133e-05,-3.976777e-05,7,1
0.0001535762,-0.0001430034,7,1
0.0002339606,-0.0002295462,7,1
0.0002950592,-0.0003006929,7,1
0.0003260137,-0.0003562813,7,1
0.0003256896,-0.0003992286,7,1
0.0003002453,-0.0004340726,7,1
0.0002618358,-0.0004637306,7,1
0.0002213195,-0.000489499,7,1
0.000190365,-0.000514295,7,1
0.0001811273,-0.0005400634,7,1
0.0001983062,-0.0005679386,7,1
0.000234933,-0.0005984068,7,1
0.0002678322,-0.0006306578,7,1
0.0002709115,-0.0006635571,7,1
0.0002313675,-0.0006967805,7,1
0.0001574657,-0.0007313004,7,1
7.140904e-05,-0.0007653341,7,1
-8.489166e-06,-0.0007996919,7,1
-6.699475e-05,-0.0008330774,7,1
-8.773911e-05,-0.0008572251,7,1
-5.565017e-05,-0.0008637077,7,1
3.008238e-05,-0.0008489598,7,1
0.0001569795,-0.000814602,7,1
0.0003041349,-0.0007692237,7,1
0.0004465904,-0.0007227109,7,1
0.00055955,-0.0006791154,7,1
0.0006148142,-0.00064103,7,1
0.0005913147,-0.0006069963,7,1
0.0004940755,-0.0005750695,7,1
0.0003600474,-0.0005415219,7,1
0.0002323399,-0.0005013297,7,1
0.0001443384,-0.0004533584,7,1
0.0001046324,-0.0003997148,7,1
9.766362e-05,-0.0003416954,7,1
9.458438e-05,-0.0002814071,7,1
7.384002e-05,-0.0002209568,7,1
2.992031e-05,-0.0001658546,7,1
-1.886135e-05,-0.0001182074,7,1
-5.354332e-05,-7.704279e-05,7,1
-6.148453e-05,-3.911951e-05,7,1
-3.895745e-05,-4.275467e-06,7,1
6.420843e-06,2.684107e-05,7,1
5.633696e-05,5.423012e-05,7,1
8.016057e-05,7.659513e-05,7,1
5.56887e-05,8.826383e-05,7,1
-8.813297e-06,8.696731e-05,7,1
-8.838737e-05,7.448828e-05,7,1
-0.0001556445,5.277153e-05,7,1
-0.0001958367,1.663096e-05,7,1
-0.000206533,-3.847125e-05,7,1
-0.0001935677,-0.0001086455,7,1
-0.0001608306,-0.0001783336,7,1
-0.0001101041,-0.000238784,7,1
-5.240886e-05,-0.0002843243,7,1
-6.706447e-06,-0.0003146305,7,1
2.531276e-06,-0.0003334301,7,1
-4.219875e-05,-0.0003436402,7,1
-0.0001407345,-0.0003457471,7,1
-0.0002731418,-0.0003413713,7,1
-0.0004003631,-0.0003324577,7,1
-0.0004849611,-0.0003198166,7,1
-0.0005108916,-0.0002998826,7,1
-0.0004784786,-0.0002666592,7,1
-0.0004078181,-0.0002173914,7,1
-0.0003292164,-0.0001564548,7,1
-0.0002703867,-9.373552e-05,7,1
-0.0002460769,-3.863332e-05,7,1
-0.0002509389,1.720949e-06,7,1
-0.0002681178,2.424803e-05,7,1
-0.0002869174,3.543054e-05,7,1
-0.000300855,5.163707e-05,7,1
-0.0003078238,9.814982e-05,7,1
-0.0003027998,0.0001884202,7,1
-0.0002862691,0.0003107795,7,1
-0.0002684419,0.0004323286,7,1
-0.0002600145,0.0005227611,7,1
-0.0002605007,0.0005702463,7,1
-0.0002634179,0.0005840218,7,1
-0.000253856,0.0005809425,7,1
-0.0002006986,0.0005742979,7,1
-7.380149e-05,0.0005601982,7,1
0.0001229458,0.0005298919,7,1
0.0003427064,0.0004770586,7,1
0.0005206542,0.0003989431,7,1
0.0006127074,0.000302028,7,1
0.0006101143,0.000202682,7,1
0.000537509,0.0001164632,7,1
0.000433301,5.439218e-05,7,1
0.0003303894,2.116879e-05,7,1
0.0002470879,1.322759e-05,7,1
0.0001939304,2.489629e-05,7,1
0.0001728619,4.807163e-05,7,1
0.0001801549,8.323981e-05,7,1
0.0002088404,0.000130887,7,1
0.0002511395,0.0001923098,7,1
0.0002963557,0.0002585945,7,1
0.0003303894,0.0003179104,7,1
0.0003402755,0.0003585888,7,1
0.0003203414,0.0003726885,7,1
0.0002790148,0.0003662059,7,1
0.0002328261,0.0003470822,7,1
0.0001926339,0.0003203414,7,1
0.000160545,0.0002833905,7,1
0.0001316974,0.000235095,7,1
0.0001005808,0.0001801549,7,1
6.83298e-05,0.0001295905,7,1
3.55926e-05,9.588091e-05,7,1
6.744974e-06,8.097089e-05,7,1
-6.706447e-06,7.967438e-05,7,1
-3.627206e-06,8.372601e-05,7,1
9.338019e-06,8.680524e-05,7,1
2.197911e-05,8.372601e-05,7,1
2.603075e-05,7.384002e-05,7,1
1.614476e-05,6.055066e-05,7,1
-2.330684e-06,5.19612e-05,7,1
-2.080613e-05,4.807163e-05,7,1
-3.847125e-05,4.337174e-05,7,1
-5.095028e-05,3.154097e-05,7,1
-5.062615e-05,1.160693e-05,7,1
-4.414354e-05,-1.25408e-05,7,1
-5.419158e-05,-3.458168e-05,7,1
-0.0001039456,-5.2733e-05,7,1
-0.0001888679,-6.796714e-05,7,1
-0.0002755728,-8.012204e-05,7,1
-0.0003149546,-9.081835e-05,7,1
-0.0002694143,-9.859748e-05,7,1
-0.0001488377,-0.0001007043,7,1
4.244267e-07,-9.892161e-05,7,1
0.0001315353,-9.551824e-05,7,1
0.0002188885,-9.260107e-05,7,1
0.0002478982,-8.579432e-05,7,1
0.0002145127,-7.218083e-05,7,1
0.0001273216,-5.030202e-05,7,1
8.689758e-06,-2.46957e-05,7,1
-0.0001084835,-2.168618e-06,7,1
-0.0001927574,1.322759e-05,7,1
-0.0002274394,2.165498e-05,7,1
-0.0002102605,2.327564e-05,7,1
-0.000159372,1.97102e-05,7,1
-0.0001018388,9.013889e-06,7,1
-5.727083e-05,-1.562004e-05,7,1
-3.198864e-05,-6.116039e-05,7,1
-2.907146e-05,-0.0001287416,7,1
-4.511593e-05,-0.0002113949,7,1
-7.979791e-05,-0.0003026377,7,1
-0.0001303623,-0.00039777,7,1
-0.0001877334,-0.0004954954,7,1
-0.0002395943,-0.0005954896,7,1
-0.0002775176,-0.0006896496,7,1
-0.0002974516,-0.0007679272,7,1
-0.0002946965,-0.0008264327,7,1
-0.0002716832,-0.0008667869,7,1
-0.0002408908,-0.0008909347,7,1
-0.0002225774,-0.0008988759,7,1
-0.0002305186,-0.0008932036,7,1
-0.0002598524,-0.0008721352,7,1
-0.0002814071,-0.0008251361,7,1
-0.000261149,-0.0007431312,7,1
-0.0001840059,-0.0006249856,7,1
-6.991193e-05,-0.0004728062,7,1
4.612685e-05,-0.0002922655,7,1
0.0001342904,-8.692878e-05,7,1
0.000195227,0.0001409351,7,1
0.000254867,0.0003845193,7,1
0.0003362238,0.0006446343,7,1
0.0004391353,0.0009214421,7,1
0.000537347,0.001199384,7,1
0.0005916389,0.001435352,7,1
0.0005751082,0.001571811,7,1
0.0004931031,0.001570353,7,1
0.0003791712,0.001434704,7,1
0.0002712356,0.001210081,7,1
0.0001892305,0.0009588792,7,1
0.0001344524,0.0007337703,7,1
0.0001002567,0.0005624671,7,1
7.853991e-05,0.0004436732,7,1
6.492643e-05,0.0003600474,7,1
5.779555e-05,0.0002885766,7,1
5.649903e-05,0.0002187264,7,1
5.325772e-05,0.0001511452,7,1
4.304761e-05,8.307774e-05,7,1
2.473423e-05,7.717366e-06,7,1
-5.479652e-07,-7.736692e-05,7,1
-3.150244e-05,-0.0001658546,7,1
-6.731888e-05,-0.0002459149,7,1
-0.0001032974,-0.0003027998,7,1
-0.0001329553,-0.0003391024,7,1
-0.0001525652,-0.0003674638,7,1
-0.0001689338,-0.0004045768,7,1
-0.0001901644,-0.0004567618,7,1
-0.0002178775,-0.0005245051,7,1
-0.0002428356,-0.0006018102,7,1
-0.0002574215,-0.0006799257,7,1
-0.0002671454,-0.0007468587,7,1
-0.0002805968,-0.0007893197,7,1
-0.0002950206,-0.0007951541,7,1
-0.0002979378,-0.0007497758,7,1
-0.0002848105,-0.0006397335,7,1
-0.0002634179,-0.0004635685,7,1
-0.0002417012,-0.0002292221,7,1
-0.0002196603,5.277153e-05,7,1
-0.0001862748,0.0003770643,7,1
-0.0001266348,0.000735553,7,1
-4.43056e-05,0.00110328,7,1
3.769945e-05,0.001434056,7,1
9.750156e-05,0.00166662,7,1
0.0001257009,0.001754622,7,1
0.0001257009,0.001685095,7,1
0.0001075496,0.001482837,7,1
8.372601e-05,0.00119906,7,1
7.092284e-05,0.0008870842,7,1
8.826383e-05,0.0005960147,7,1
0.000148228,0.0003640991,7,1
0.0002453052,0.0002080301,7,1
0.0003527545,0.0001271595,7,1
0.0004329769,0.0001080358,7,1
0.0004540453,0.0001291043,7,1
0.0004042913,0.0001665414,7,1
0.0002979764,0.0002021958,7,1
0.0001710792,0.0002294227,7,1
6.622294e-05,0.0002509774,7,1
1.257933e-05,0.0002738286,7,1
1.014835e-05,0.0002963557,7,1
3.332369e-05,0.0003099692,7,1
4.969229e-05,0.0003002453,7,1
3.786152e-05,0.0002582704,7,1
-6.706447e-06,0.0001842065,7,1
-6.667062e-05,8.550872e-05,7,1
-0.0001188556,-2.761287e-05,7,1
-0.0001442999,-0.0001425172,7,1
-0.0001381414,-0.0002517492,7,1
-0.0001068628,-0.0003543365,7,1
-6.359137e-05,-0.000452224,7,1
-2.826114e-05,-0.0005424943,7,1
-2.42095e-05,-0.0006194753,7,1
-6.569822e-05,-0.0006723086,7,1
-0.0001428413,-0.0007001839,7,1
-0.0002194982,-0.0007108802,7,1
-0.0002575835,-0.0007100698,7,1
-0.0002412149,-0.0007024527,7,1
-0.0001812508,-0.0006888393,7,1
-0.0001079973,-0.0006674466,7,1
-5.856735e-05,-0.0006429748,7,1
-5.386745e-05,-0.0006360059,7,1
-8.498399e-05,-0.0006667984,7,1
-0.0001219349,-0.0007444277,7,1
-0.0001421931,-0.0008541459,7,1
-0.0001438137,-0.0009722915,7,1
-0.0001365208,-0.001076499,7,1
-0.0001302002,-0.001154129,7,1
-0.0001216107,-0.001201452,7,1
-9.746302e-05,-0.001221548,7,1
-5.775702e-05,-0.001223007,7,1
-1.821308e-05,-0.001218144,7,1
9.106227e-07,-0.001215876,7,1
-5.085794e-06,-0.001217658,7,1
-2.696461e-05,-0.0012209,7,1
-3.766092e-05,-0.001215389,7,1
-1.20546e-05,-0.00118087,7,1
5.179914e-05,-0.001094489,7,1
0.0001351007,-0.0009442542,7,1
0.0002255332,-0.0007334072,7,1
0.0003133726,-0.0004708614,7,1
0.0003850055,-0.0001618029,7,1
0.0004222805,0.0001897167,7,1
0.0004145014,0.0005788357,7,1
0.0003678266,0.001004096,7,1
0.0002992729,0.001453828,7,1
0.0002235884,0.001887191,7,1
0.0001527658,0.002236768,7,1
8.923623e-05,0.002429626,7,1
3.494434e-05,0.00241893,7,1
-8.975362e-06,0.002211485,7,1
-4.074016e-05,0.00186985,7,1
-6.099833e-05,0.001474248,7,1
-7.299116e-05,0.001101821,7,1
-8.595638e-05,0.000807348,7,1
-0.0001141558,0.0006070351,7,1
-0.0001663408,0.0004935893,7,1
-0.0002365151,0.0004370285,7,1
-0.0003049066,0.0004088291,7,1
-0.0003522297,0.0003880847,7,1
-0.0003619536,0.0003605336,7,1
-0.0003209511,0.0003154794,7,1
-0.0002152845,0.0002550291,7,1
-5.402952e-05,0.0001882582,7,1
0.000121001,0.0001245665,7,1
0.0002589186,6.800567e-05,7,1
0.000329255,2.035846e-05,7,1
0.0003376824,-1.724069e-05,7,1
0.0003091589,-5.078821e-05,7,1
0.0002678322,-8.854943e-05,7,1
0.0002331503,-0.0001365208,7,1
0.0002107852,-0.0002010227,7,1
0.0001976579,-0.0002797865,7,1
0.000185503,-0.0003681121,7,1
0.0001647587,-0.000459679,7,1
0.0001281319,-0.0005450874,7,1
7.30297e-05,-0.0006141272,7,1
3.017472e-06,-0.000660802,7,1
-7.007399e-05,-0.0006868945,7,1
-0.0001374932,-0.0006972667,7,1
-0.0001987538,-0.0006962943,7,1
-0.000253694,-0.0006885151,7,1
-0.0002938862,-0.000678143,7,1
-0.0003094444,-0.0006679329,7,1
-0.0003005308,-0.0006588572,7,1
-0.0002840002,-0.0006457299,7,1
-0.0002776796,-0.000621258,7,1
-0.0002877277,-0.0005807417,7,1
-0.0003040963,-0.0005249913,7,1
-0.0003160891,-0.0004611376,7,1
-0.0003206269,-0.0003909633,7,1
-0.0003271096,-0.0003203028,7,1
-0.0003308371,-0.0002577456,7,1
-0.0003115513,-0.0002049123,7,1
-0.0002546664,-0.0001577513,7,1
-0.0001574272,-0.0001024871,7,1
-3.879538e-05,-1.934754e-05,7,1
6.492643e-05,0.0001028497,7,1
0.0001211631,0.0002582704,7,1
0.0001344524,0.0004239012,7,1
0.0001417454,0.0005733255,7,1
0.0001817755,0.0006896885,7,1
0.0002660495,0.0007682902,7,1
0.0003733368,0.0008070238,7,1
0.0004640934,0.0008078342,7,1
0.0005057442,0.0007783383,7,1
0.0004848378,0.0007305289,7,1
0.0004015361,0.0006781818,7,1
0.0002707494,0.0006344241,7,1
0.0001195424,0.0006075213,7,1
-1.740276e-05,0.0005909906,7,1
-0.000104756,0.0005708945,7,1
-0.0001135075,0.0005295678,7,1
-3.344723e-05,0.0004595556,7,1
0.0001128978,0.0003636129,7,1
0.0002775562,0.0002530843,7,1
0.0004078567,0.0001433661,7,1
0.000477869,4.402e-05,7,1
0.0004939134,-4.219875e-05,7,1
0.0004843516,-0.0001139937,7,1
0.000477869,-0.0001689338,7,1
0.0004866205,-0.000206533,7,1
0.0005015305,-0.0002276015,7,1
0.0004956961,-0.0002350565,7,1
0.000450804,-0.000231329,7,1
0.0003681507,-0.0002173914,7,1
0.0002615117,-0.0001981056,7,1
0.0001453108,-0.0001838438,7,1
2.732727e-05,-0.0001849783,7,1
-8.887356e-05,-0.0002058847,7,1
-0.000194216,-0.0002392702,7,1
-0.0002754107,-0.000268766,7,1
-0.0003334301,-0.0002830278,7,1
-0.0003700569,-0.0002827037,7,1
-0.0003760533,-0.0002771934,7,1
-0.0003277578,-0.0002778417,7,1
-0.0002151224,-0.0002930758,7,1
-7.201877e-05,-0.0003272716,7,1
4.385793e-05,-0.0003732982,7,1
8.891209e-05,-0.0004160834,7,1
5.99024e-05,-0.000439907,7,1
-1.529591e-05,-0.0004356933,7,1
-9.130454e-05,-0.0003995528,7,1
-0.0001259865,-0.0003279199,7,1
-0.0001055663,-0.0002222533,7,1
-5.240886e-05,-8.82253e-05,7,1
-4.275467e-06,6.687121e-05,7,1
1.533444e-05,0.0002431983,7,1
7.23117e-06,0.0004373526,7,1
-1.156841e-05,0.0006498204,7,1
-2.7937e-05,0.0008697432,7,1
-4.155049e-05,0.001068435,7,1
-5.937768e-05,0.001195819,7,1
-8.968389e-05,0.001207488,7,1
-0.0001426792,0.001089828,7,1
-0.000223874,0.000871688,7,1
-0.0003198166,0.0006041179,7,1
-0.0004031182,0.0003381686,7,1
-0.0004486585,0.0001117633,7,1
-0.0004381243,-5.565017e-05,7,1
-0.0003663294,-0.0001613168,7,1
-0.0002454286,-0.0002162569,7,1
-0.0001000561,-0.0002361909,7,1
3.18651e-05,-0.0002418632,7,1
0.0001148425,-0.0002504527,7,1
0.0001372076,-0.0002720074,7,1
0.00010366,-0.0003047445,7,1
2.992031e-05,-0.0003386162,7,1
-6.197072e-05,-0.0003613053,7,1
-0.0001473791,-0.0003684362,7,1
-0.000209126,-0.0003619536,7,1
-0.0002345703,-0.000350609,7,1
-0.0002169052,-0.0003428299,7,1
-0.0001713648,-0.0003418575,7,1
-0.000129714,-0.0003488263,7,1
-0.0001167488,-0.0003614674,7,1
-0.000142031,-0.000375405,7,1
-0.0001977815,-0.0003875599,7,1
-0.0002553146,-0.0003935563,7,1
-0.000278652,-0.0003912874,7,1
-0.0002523975,-0.0003820497,7,1
-0.0001930815,-0.0003700569,7,1
-0.0001314967,-0.0003564434,7,1
-8.903562e-05,-0.0003400748,7,1
-6.521203e-05,-0.0003191683,7,1
-5.192267e-05,-0.0002964792,7,1
-3.717473e-05,-0.0002763831,7,1
-1.643037e-05,-0.0002617972,7,1
9.013889e-06,-0.0002522354,7,1
3.105477e-05,-0.0002444563,7,1
4.320967e-05,-0.0002337599,7,1
4.742337e-05,-0.00021415,7,1
4.790957e-05,-0.0001763888,7,1
4.677511e-05,-0.0001177212,7,1
4.499239e-05,-4.38194e-05,7,1
4.239934e-05,3.721326e-05,7,1
4.531652e-05,0.0001200286,7,1
5.747142e-05,0.0002017096,7,1
8.178122e-05,0.000282256,7,1
0.0001232699,0.0003636129,7,1
0.0001785342,0.0004425387,7,1
0.0002303951,0.0005119027,7,1
0.0002538946,0.0005608465,7,1
0.0002334744,0.000577215,7,1
0.0001761032,0.0005535535,7,1
0.0001057669,0.0004905101,7,1
5.017848e-05,0.0003945674,7,1
3.235129e-05,0.0002767458,7,1
6.427817e-05,0.0001537382,7,1
0.0001355869,4.288554e-05,7,1
0.0002209954,-4.657452e-05,7,1
0.0002911697,-0.0001107524,7,1
0.0003303894,-0.0001528894,7,1
0.0003337929,-0.0001789819,7,1
0.0003078624,-0.0001948643,7,1
0.0002634565,-0.0002034537,7,1
0.0002169437,-0.000209126,7,1
0.0001801549,-0.000213988,7,1
0.0001535762,-0.000216581,7,1
0.0001132219,-0.0002149604,7,1
2.716521e-05,-0.0002118811,7,1
-0.0001201522,-0.0002081536,7,1
-0.0003053928,-0.0002042641,7,1
-0.0004779923,-0.0001940539,7,1
-0.0005860899,-0.0001681235,7,1
-0.0005930586,-0.0001212866,7,1
-0.0004943609,-5.856735e-05,7,1
-0.0003134961,2.100672e-05,7,1
-0.0001010285,0.0001201907,7,1
7.90261e-05,0.0002417397,7,1
0.0001751309,0.0003833848,7,1
0.0001726999,0.0005412365,7,1
9.231547e-05,0.00071335,7,1
-1.707863e-05,0.0008922703,7,1
-0.0001050801,0.001063249,7,1
-0.0001460826,0.001200357,7,1
-0.0001493239,0.001273448,7,1
-0.0001363587,0.001261131,7,1
-0.0001259865,0.001159516,7,1
-0.000119828,0.000992913,7,1
-0.0001062146,0.0007971379,7,1
-7.007399e-05,0.0006135177,7,1
-1.869928e-05,0.0004700898,7,1
1.954813e-05,0.000378847,7,1
1.808955e-05,0.0003307136,7,1
-2.372331e-05,0.0003013798,7,1
-8.741498e-05,0.0002665357,7,1
-0.0001441378,0.0002154851,7,1
-0.0001695821,0.0001469315,7,1
-0.0001522411,6.281957e-05,7,1
-9.924574e-05,-3.117831e-05,7,1
-2.031993e-05,-0.0001267968,7,1
7.465034e-05,-0.0002128535,7,1
0.0001736723,-0.0002830278,7,1
0.0002600531,-0.000333268,7,1
0.000316938,-0.000358064,7,1
0.0003436788,-0.0003551469,7,1
0.0003448133,-0.0003297026,7,1
0.0003263378,-0.0002982619,7,1
0.0002923041,-0.0002807589,7,1
0.0002438466,-0.0002916173,7,1
0.0001872858,-0.0003376438,7,1
0.0001352628,-0.0004180282,7,1
0.0001023635,-0.0005191569,7,1
9.182927e-05,-0.0006259579,7,1
9.037068e-05,-0.0007227109,7,1
8.405014e-05,-0.0007996919,7,1
6.719535e-05,-0.0008505805,7,1
4.628891e-05,-0.0008771592,7,1
3.316162e-05,-0.000884128,7,1
4.45062e-05,-0.0008839659,7,1
9.361199e-05,-0.000886721,7,1
0.0001765894,-0.0008949863,7,1
0.000264753,-0.0008987138,7,1
0.0003218,-0.0008789418,7,1
0.0003287688,-0.0008212466,7,1
0.0002913317,-0.0007184973,7,1
0.0002320158,-0.000573935,7,1
0.0001769136,-0.0004006872,7,1
0.0001391524,-0.0002122053,7,1
0.0001187321,-1.383732e-05,7,1
0.0001122495,0.0002047888,7,1
0.0001128978,0.0004561522,7,1
0.0001180839,0.0007277738,7,1
0.0001253768,0.000973303,7,1
0.0001331559,0.001127265,7,1
0.00013818,0.001147037,7,1
0.0001312112,0.001025164,7,1
0.0001073875,0.0008044308,7,1
6.995045e-05,0.0005509604,7,1
2.975825e-05,0.0003281205,7,1
-6.544382e-06,0.0001707551,7,1
-3.911951e-05,8.648112e-05,7,1
-7.347736e-05,5.828175e-05,7,1
-0.0001063766,6.330578e-05,7,1
-0.0001332795,7.6271e-05,7,1
-0.0001533756,7.724339e-05,7,1
-0.0001712027,4.953022e-05,7,1
-0.0001893541,-8.165035e-06,7,1
-0.0002075054,-8.741498e-05,7,1
-0.000221443,-0.0001831956,7,1
-0.0002217671,-0.0003005308,7,1
-0.0002029675,-0.0004421759,7,1
-0.0001660166,-0.0005997034,7,1
-0.0001177212,-0.0007539895,7,1
-7.18567e-05,-0.0008847762,7,1
-4.317115e-05,-0.0009768293,7,1
-4.576419e-05,-0.001026259,7,1
-8.741498e-05,-0.001046355,7,1
-0.0001629374,-0.00105381,7,1
-0.0002506147,-0.001064669,7,1
-0.0003228959,-0.001085737,7,1
-0.0003601709,-0.001114747,7,1
-0.0003572537,-0.001141974,7,1
-0.0003259751,-0.001148294,7,1
-0.0002874036,-0.001105347,7,1
-0.0002494803,-0.0009912532,7,1
-0.0002019951,-0.0008052022,7,1
-0.0001310105,-0.0005572423,7,1
-3.522994e-05,-0.0002658489,7,1
7.481241e-05,5.763349e-05,7,1
0.0001819376,0.0004143393,7,1
0.0002642668,0.0008233925,7,1
0.0003034866,0.001308455,7,1
0.0002861456,0.001858506,7,1
0.0002111094,0.002411961,7,1
9.53947e-05,0.002873688,7,1
-3.733679e-05,0.003141908,7,1
-0.0001663408,0.003149687,7,1
-0.0002713591,0.002891353,7,1
-0.0003264613,0.002432706,7,1
-0.00030831,0.001886543,7,1
-0.0002173914,0.001364205,7,1
-8.158062e-05,0.0009442933,7,1
5.909208e-05,0.0006528996,7,1
0.000173024,0.0004728449,7,1
0.0002496809,0.0003702575,7,1
0.0002837146,0.0003072141,7,1
0.0002701012,0.0002540567,7,1
0.0002141886,0.0001910133,7,1
0.000133318,0.0001120874,7,1
5.698522e-05,2.084466e-05,7,1
1.290346e-05,-7.526008e-05,7,1
1.12828e-05,-0.0001671511,7,1
4.045456e-05,-0.0002507768,7,1
7.951231e-05,-0.0003261372,7,1
0.0001078737,-0.0003864254,7,1
0.0001106288,-0.0004288866,7,1
7.740546e-05,-0.0004527101,7,1
1.306552e-05,-0.0004640547,7,1
-6.180866e-05,-0.0004681064,7,1
-0.0001161005,-0.0004716718,7,1
-0.0001282554,-0.0004836646,7,1
-9.503204e-05,-0.0005057055,7,1
-4.446767e-05,-0.000534229,7,1
-2.42095e-05,-0.0005643732,7,1
-8.563225e-05,-0.0005943552,7,1
-0.0002402425,-0.0006228787,7,1
-0.0004480103,-0.0006489712,7,1
-0.0006330888,-0.0006721465,7,1
-0.0007261143,-0.0006896496,7,1
-0.0006940254,-0.0006961322,7,1
-0.0005502735,-0.0006890013,7,1
-0.0003374817,-0.0006656639,7,1
-9.535618e-05,-0.0006272545,7,1
0.0001524417,-0.0005799314,7,1
0.0003905157,-0.0005298533,7,1
0.0006003904,-0.0004825302,7,1
0.0007592146,-0.0004421759,7,1
0.0008506195,-0.0004121938,7,1
0.0008705535,-0.000395339,7,1
0.0008290648,-0.0003969597,7,1
0.000748032,-0.0004146248,7,1
0.0006543582,-0.0004484965,7,1
0.0005692738,-0.0004935506,7,1
0.0004989374,-0.0005381186,7,1
0.0004307079,-0.0005655076,7,1
0.000353889,-0.0005627525,7,1
0.0002642668,-0.0005220741,7,1
0.0001694586,-0.0004480103,7,1
7.546067e-05,-0.0003591985,7,1
-7.192643e-06,-0.0002818933,7,1
-7.396356e-05,-0.0002371633,7,1
-0.0001255003,-0.0002357047,7,1
-0.0001663408,-0.0002737901,7,1
-0.0001987538,-0.000335699,7,1
-0.0002292221,-0.0003938804,7,1
-0.0002627696,-0.0004277521,7,1
-0.0003011791,-0.0004196489,7,1
-0.0003402368,-0.0003575778,7,1
-0.0003666535,-0.0002368392,7,1
-0.0003611433,-5.824322e-05,7,1
-0.0003105789,0.0001808031,7,1
-0.0002323013,0.0004840274,7,1
-0.000166827,0.0008397611,7,1
-0.0001504584,0.001205381,7,1
-0.0001922712,0.001516061,7,1
-0.0002728177,0.001710378,7,1
-0.000367788,0.001753487,7,1
-0.0004591928,0.001644417,7,1
-0.0005317981,0.001413635,7,1
-0.0005742591,0.001114624,7,1
-0.0005851175,0.000802324,7,1
-0.0005646973,0.0005271368,7,1
-0.0005104054,0.0003255275,7,1
-0.0004392588,0.0002180782,7,1
-0.0003885323,0.0002021958,7,1
-0.0003862634,0.0002590807,7,1
-0.0004194868,0.0003553475,7,1
-0.0004287245,0.0004501558,7,1
-0.0003501228,0.0005062304,7,1
-0.0001630995,0.0005034753,7,1
9.847395e-05,0.0004480489,7,1
0.0003835469,0.0003606957,7,1
0.0006475514,0.0002675081,7,1
0.000837168,0.0001772377,7,1
0.0008974564,9.037068e-05,7,1
0.0008034584,4.638125e-06,7,1
0.0005825632,-7.995997e-05,7,1
0.0003034866,-0.0001551583,7,1
4.418206e-05,-0.0002075054,7,1
-0.0001368449,-0.0002250084,7,1
-0.0002149604,-0.0001997262,7,1
-0.0001864369,-0.0001349001,7,1
-6.0188e-05,-4.819517e-05,7,1
0.0001344524,3.672706e-05,7,1
0.0003512959,9.814982e-05,7,1
0.0005360505,0.0001263492,7,1
0.0006449584,0.0001231079,7,1
0.0006566271,9.474644e-05,7,1
0.0005867769,4.239934e-05,7,1
0.0004756001,-3.425755e-05,7,1
0.0003678266,-0.0001267968,7,1
0.0002934386,-0.0002246843,7,1
0.0002560015,-0.00030831,7,1
0.0002435224,-0.0003634122,7,1
0.000239957,-0.0003846427,7,1
0.0002282883,-0.0003809152,7,1
0.000195227,-0.0003671397,7,1
0.0001362352,-0.0003570916,7,1
5.212327e-05,-0.000358064,7,1
-4.657452e-05,-0.000370381,7,1
-0.0001481895,-0.0003908012,7,1
-0.0002395943,-0.0004149489,7,1
-0.0003092824,-0.0004376381,7,1
-0.0003444506,-0.0004557894,7,1
-0.0003402368,-0.0004640547,7,1
-0.0002995585,-0.000459841,7,1
-0.000233922,-0.0004468758,7,1
-0.0001571031,-0.0004272659,7,1
-7.688073e-05,-0.000400201,7,1
4.80019e-06,-0.000367788,7,1
8.178122e-05,-0.0003347266,7,1
0.0001409351,-0.0003081479,7,1
0.0001694586,-0.0002864312,7,1
0.0001665414,-0.0002692523,7,1
0.000135749,-0.0002569353,7,1
8.161915e-05,-0.0002485079,7,1
1.679302e-05,-0.0002428356,7,1
-4.560212e-05,-0.0002329496,7,1
-8.773911e-05,-0.0002084778,7,1
-9.681477e-05,-0.0001642339,7,1
-7.363943e-05,-9.989401e-05,7,1
-2.907146e-05,-2.242678e-05,7,1
1.59827e-05,5.811968e-05,7,1
4.742337e-05,0.0001318594,7,1
5.730935e-05,0.0001898788,7,1
4.888196e-05,0.0002363916,7,1
2.554455e-05,0.0002762596,7,1
-1.335113e-05,0.0003112658,7,1
-6.586029e-05,0.0003357376,7,1
-0.0001269589,0.000339303,7,1
-0.0001903264,0.0003149933,7,1
-0.000248832,0.0002582704,7,1
-0.0002916173,0.0001722137,7,1
-0.0003084721,7.011252e-05,7,1
-0.0002964792,-3.198864e-05,7,1
-0.0002653627,-0.0001212866,7,1
-0.0002373254,-0.0001930815,7,1
-0.0002420253,-0.0002475355,7,1
-0.000298424,-0.0002840002,7,1
-0.00039777,-0.000303448,7,1
-0.0005034366,-0.0003076617,7,1
-0.0005690731,-0.0003036101,7,1
-0.0005656697,-0.0002963172,7,1
-0.0004891749,-0.0002870794,7,1
-0.0003514194,-0.0002746004,7,1
-0.0001809267,-0.0002549905,7,1
-1.545797e-05,-0.0002250084,7,1
0.0001125736,-0.00018433,7,1
0.0001856651,-0.0001350622,7,1
0.0002034923,-7.752899e-05,7,1
0.000177886,-6.544382e-06,7,1
0.0001344524,7.837785e-05,7,1
0.0001020394,0.0001689724,7,1
0.0001073875,0.0002495189,7,1
0.0001598967,0.0002971661,7,1
0.0002334744,0.0002997591,7,1
0.000287118,0.0002683184,7,1
0.0002957075,0.0002240746,7,1
0.0002621599,0.000185503,7,1
0.0002119197,0.0001615174,7,1
0.0001720516,0.000158114,7,1
0.0001535762,0.0001718896,7,1
0.0001459591,0.0001968476,7,1
0.0001250527,0.00022764,7,1
6.78436e-05,0.0002629703,7,1
-2.777494e-05,0.0003017039,7,1
-0.0001381414,0.0003407616,7,1
-0.0002284118,0.0003681507,7,1
-0.000273628,0.0003707437,7,1
-0.000268604,0.0003373583,7,1
-0.0002199844,0.0002574601,7,1
-0.0001438137,0.000130725,7,1
-6.407757e-05,-3.150244e-05,7,1
-3.14101e-06,-0.0002028055,7,1
1.938607e-05,-0.0003566054,7,1
3.341602e-06,-0.0004726442,7,1
-2.777494e-05,-0.0005478425,7,1
-5.2733e-05,-0.0005907898,7,1
-6.893953e-05,-0.000616072,7,1
-8.40116e-05,-0.0006415162,7,1
-9.778715e-05,-0.0006731189,7,1
-0.00010978,-0.0007008321,7,1
-0.0001178833,-0.0007022907,7,1
-0.0001117248,-0.0006548056,7,1
-7.477388e-05,-0.0005478425,7,1
1.452411e-05,-0.0003890185,7,1
0.000170431,-0.000199078,7,1
0.0003785229,4.638125e-06,7,1
0.0005861287,0.0002112714,7,1
0.0007298806,0.0004201737,7,1
0.0007684522,0.0006483617,7,1
0.0007041123,0.0009156077,7,1
0.0005694359,0.001219967,7,1
0.0004067223,0.001519464,7,1
0.0002472499,0.001747815,7,1
9.960841e-05,0.001851699,7,1
-3.312309e-05,0.001819124,7,1
-0.0001366828,0.001687526,7,1
-0.0001862748,0.001518816,7,1
-0.0001695821,0.001363233,7,1
-9.227693e-05,0.001247356,7,1
2.570662e-05,0.001180261,7,1
0.000160707,0.001154006,7,1
0.0002882525,0.001148496,7,1
0.0003856538,0.001139744,7,1
0.0004320045,0.001107493,7,1
0.0004130428,0.001042343,7,1
0.0003357376,0.0009470484,7,1
0.0002211574,0.0008326302,7,1
9.847395e-05,0.0007071915,7,1
-6.706447e-06,0.0005723531,7,1
-8.790117e-05,0.0004264942,7,1
-0.000151917,0.000274801,7,1
-0.0002045882,0.0001237561,7,1
-0.0002472114,-1.934754e-05,7,1
-0.0002767073,-0.0001541859,7,1
-0.0002812451,-0.0002828657,7,1
-0.0002468872,-0.000402632,7,1
-0.000166989,-0.0005146191,7,1
-5.581224e-05,-0.0006262821,7,1
5.212327e-05,-0.0007418346,7,1
0.0001145184,-0.000856901,7,1
0.0001093323,-0.0009632158,7,1
4.466826e-05,-0.001052352,7,1
-5.176061e-05,-0.001131115,7,1
-0.0001449482,-0.001210852,7,1
-0.0002039399,-0.001296584,7,1
-0.0002207947,-0.001386206,7,1
-0.000201509,-0.001473073,7,1
-0.0001640719,-0.001556051,7,1
-0.0001230693,-0.001636273,7,1
-8.935975e-05,-0.001715685,7,1
-6.618442e-05,-0.001791046,7,1
-5.516398e-05,-0.001850037,7,1
-5.548811e-05,-0.001881316,7,1
-6.002594e-05,-0.001874023,7,1
-7.201877e-05,-0.001819893,7,1
-9.551824e-05,-0.001714875,7,1
-0.0001274451,-0.001553296,7,1
-0.0001512687,-0.001320732,7,1
-0.0001486757,-0.001000815,7,1
-0.000112211,-0.0005880346,7,1
-5.532604e-05,-0.0001058904,7,1
-2.654814e-06,0.0003830607,7,1
2.619281e-05,0.0008039447,7,1
3.18651e-05,0.001115921,7,1
2.797553e-05,0.001333251,7,1
3.121684e-05,0.001511361,7,1
5.552663e-05,0.001700329,7,1
0.0001046324,0.001901453,7,1
0.0001702689,0.002061412,7,1
0.0002370398,0.002106305,7,1
0.0002889007,0.001985241,7,1
0.0003109416,0.001703085,7,1
0.0003004074,0.001324499,7,1
0.0002652392,0.0009332729,7,1
0.0002192126,0.0005977973,7,1
0.000170593,0.0003480546,7,1
0.0001261871,0.0001773998,7,1
9.328786e-05,6.573675e-05,7,1
8.226741e-05,-5.89612e-06,7,1
9.669123e-05,-5.435365e-05,7,1
0.0001188942,-9.422172e-05,7,1
0.0001122495,-0.0001378173,7,1
4.612685e-05,-0.0001911368,7,1
-7.266703e-05,-0.0002554767,7,1
-0.000206533,-0.0003335922,7,1
-0.0003141443,-0.0004248349,7,1
-0.0003697327,-0.0005176983,7,1
-0.0003658432,-0.0005956517,7,1
-0.0003060411,-0.0006473506,7,1
-0.0001987538,-0.0006755499,7,1
-6.634648e-05,-0.0006888393,7,1
5.763349e-05,-0.0006941874,7,1
0.0001412592,-0.0006911082,7,1
0.0001688103,-0.0006734431,7,1
0.0001412592,-0.0006353577,7,1
7.67572e-05,-0.0005770142,7,1
-3.951337e-06,-0.0005042469,7,1
-8.482193e-05,-0.0004251591,7,1
-0.0001506204,-0.00033813,7,1
-0.0001968091,-0.0002386219,7,1
-0.0002225774,-0.0001177212,7,1
-0.0002259808,2.376183e-05,7,1
-0.0002094502,0.0001759412,7,1
-0.0001759026,0.0003156415,7,1
-0.0001310105,0.0004190393,7,1
-8.44978e-05,0.0004632831,7,1
-4.738484e-05,0.0004418904,7,1
-2.631635e-05,0.0003670162,7,1
-2.161646e-05,0.0002607014,7,1
-2.696461e-05,0.0001479039,7,1
-3.21507e-05,5.017848e-05,7,1
-3.231277e-05,-1.805102e-05,7,1
-2.46957e-05,-5.062615e-05,7,1
-8.975362e-06,-4.738484e-05,7,1
9.66215e-06,-2.080613e-05,7,1
1.468618e-05,1.193106e-05,7,1
-1.124428e-05,3.380988e-05,7,1
-6.91016e-05,3.55926e-05,7,1
-0.0001400862,2.246531e-05,7,1
-0.0002013469,6.90704e-06,7,1
-0.000238784,5.86492e-07,7,1
-0.0002501286,5.286387e-06,7,1
-0.0002459149,1.112074e-05,7,1
-0.0002394322,-8.720959e-07,7,1
-0.0002360289,-3.960571e-05,7,1
-0.0002384598,-0.0001011905,7,1
-0.0002467252,-0.000174444,7,1
-0.0002561249,-0.0002452666,7,1
-0.0002624455,-0.0003036101,7,1
-0.0002621213,-0.0003403989,7,1
-0.000251263,-0.0003514194,7,1
-0.0002182017,-0.0003457471,7,1
-0.0001533756,-0.0003454229,7,1
-6.002594e-05,-0.0003716775,7,1
4.239934e-05,-0.0004355313,7,1
0.0001362352,-0.0005274223,7,1
0.0002239125,-0.000621096,7,1
0.0003140208,-0.0006907841,7,1
0.00040105,-0.0007172007,7,1
0.0004637693,-0.000693053,7,1
0.0004835413,-0.0006201236,7,1
0.0004584211,-0.0005081365,7,1
0.0004091532,-0.0003739464,7,1
0.0003623164,-0.0002423494,7,1
0.0003346032,-0.0001386276,7,1
0.0003182346,-7.072225e-05,7,1
0.0002974902,-2.664048e-05,7,1
0.0002600531,1.355172e-05,7,1
0.0002064095,6.298164e-05,7,1
0.0001480659,0.0001205148,7,1
9.847395e-05,0.0001809652,7,1
6.330578e-05,0.0002393087,7,1
3.850978e-05,0.0002927903,7,1
1.355172e-05,0.0003472443,7,1
-2.210265e-05,0.000413529,7,1
-6.958779e-05,0.0005036374,7,1
-0.0001105903,0.00061919,7,1
-0.0001201522,0.0007571077,7,1
-8.158062e-05,0.0009010218,7,1
6.096713e-06,0.001036509,7,1
0.0001328318,0.001158706,7,1
0.0002767458,0.001267614,7,1
0.0004081808,0.00136534,7,1
0.0004931031,0.001449776,7,1
0.0005089855,0.001510713,7,1
0.000458097,0.001530485,7,1
0.0003658818,0.001491103,7,1
0.0002688046,0.001380088,7,1
0.000187934,0.00119744,7,1
0.0001260251,0.0009611481,7,1
7.076078e-05,0.0006955228,7,1
1.720949e-06,0.0004320045,7,1
-9.373552e-05,0.0001932822,7,1
-0.0002057227,-6.220252e-06,7,1
-0.0003113892,-0.0001624512,7,1
-0.0003904771,-0.0002744383,7,1
-0.0004358554,-0.0003517435,7,1
-0.0004418518,-0.0004105732,7,1
-0.0004019837,-0.0004608134,7,1
-0.0003241924,-0.000509595,7,1
-0.0002256567,-0.0005604835,7,1
-0.0001295519,-0.0006107238,7,1
-5.500191e-05,-0.0006539953,7,1
-1.3027e-05,-0.000678143,7,1
-5.89612e-06,-0.0006690673,7,1
-3.134038e-05,-0.0006146134,7,1
-8.271508e-05,-0.0005097571,7,1
-0.0001514308,-0.0003661673,7,1
-0.0002229016,-0.0001976194,7,1
-0.0002773555,-7.192643e-06,7,1
-0.000300855,0.0002172679,7,1
-0.0002987481,0.0004837033,7,1
-0.0002872415,0.0007725039,7,1
-0.0002765452,0.001028081,7,1
-0.0002632558,0.001180909,7,1
-0.0002347323,0.001178154,7,1
-0.0001784957,0.001009606,7,1
-9.454585e-05,0.0007125397,7,1
4.244267e-07,0.0003574544,7,1
7.935024e-05,2.084466e-05,7,1
0.0001167873,-0.0002394322,7,1
0.0001049566,-0.0004010113,7,1
5.131294e-05,-0.0004742648,7,1
-2.534396e-05,-0.0004927403,7,1
-9.632857e-05,-0.0004914437,7,1
-0.0001308485,-0.0004935506,7,1
-0.0001110765,-0.0005029504,7,1
-3.944364e-05,-0.0005154294,7,1
6.298164e-05,-0.0005279084,7,1
0.0001658931,-0.0005376324,7,1
0.0002433604,-0.0005434667,7,1
0.0002824181,-0.0005407116,7,1
0.0002804733,-0.0005282326,7,1
0.0002472499,-0.0005149432,7,1
0.0001989545,-0.0005057055,7,1
0.0001483901,-0.0004993849,7,1
9.68533e-05,-0.0004909576,7,1
4.175109e-05,-0.0004831784,7,1
-1.691656e-05,-0.0004779923,7,1
-7.363943e-05,-0.0004752372,7,1
-0.0001165867,-0.0004773441,7,1
-0.000137169,-0.0004857715,7,1
-0.0001366828,-0.0004977643,7,1
-0.0001225832,-0.0005071641,7,1
-9.989401e-05,-0.0005136467,7,1
-7.023606e-05,-0.0005180225,7,1
-3.053005e-05,-0.0005212637,7,1
1.695509e-05,-0.000519319,7,1
6.41161e-05,-0.0005073262,7,1
0.0001033359,-0.000482206,7,1
0.0001305629,-0.0004450931,7,1
0.0001428799,-0.0004019837,7,1
0.0001420695,-0.0003640605,7,1
0.0001329939,-0.0003360231,7,1
0.0001232699,-0.0003144685,7,1
0.0001167873,-0.0002966413,7,1
0.0001096565,-0.0002788141,7,1
9.798775e-05,-0.0002561249,7,1
8.016057e-05,-0.0002183637,7,1
5.504044e-05,-0.0001658546,7,1
2.538249e-05,-0.0001021629,7,1
-5.89612e-06,-3.328516e-05,7,1
-3.879538e-05,3.575467e-05,7,1
-6.893953e-05,0.0001023635,7,1
-7.931171e-05,0.0001628139,7,1
-4.511593e-05,0.0002235884,7,1
3.656499e-05,0.0002963557,7,1
0.0001440143,0.0003966742,7,1
0.0002451431,0.0005229231,7,1
0.000316938,0.000653872,7,1
0.0003530786,0.0007616456,7,1
0.0003613439,0.0008177201,7,1
0.0003478926,0.0008081583,7,1
0.0003114278,0.0007332841,7,1
0.0002490327,0.0006086557,7,1
0.000162976,0.0004602039,7,1
6.427817e-05,0.0003182346,7,1
-3.377136e-05,0.0002044647,7,1
-0.0001177212,0.0001279698,7,1
-0.0001783336,8.777764e-05,7,1
-0.0002037779,7.724339e-05,7,1
-0.0001885437,8.858796e-05,7,1
-0.0001339277,0.0001098185,7,1
-5.386745e-05,0.0001318594,7,1
1.987227e-05,0.0001511452,7,1
5.471631e-05,0.0001650828,7,1
2.992031e-05,0.000170593,7,1
-5.743289e-05,0.0001726999,7,1
-0.0001914609,0.000185503,7,1
-0.0003324577,0.0002206712,7,1
-0.0004358554,0.0002795009,7,1
-0.0004752372,0.0003524304,7,1
-0.0004412035,0.000418553,7,1
-0.0003376438,0.0004592314,7,1
-0.0001830335,0.0004600418,7,1
-1.480971e-05,0.000416122,7,1
0.0001219734,0.0003371962,7,1
0.0001957132,0.0002436845,7,1
0.0002015475,0.000160707,7,1
0.0001509831,0.0001044704,7,1
6.184718e-05,7.513654e-05,7,1
-3.847125e-05,6.687121e-05,7,1
-0.0001238797,7.400208e-05,7,1
-0.0001794681,9.199134e-05,7,1
-0.0002031296,0.000118408,7,1
-0.0001971332,0.0001543865,7,1
-0.0001592099,0.0001989545,7,1
-9.373552e-05,0.0002435224,7,1
-1.25408e-05,0.0002718839,7,1
6.78436e-05,0.0002683184,7,1
0.0001346145,0.0002219677,7,1
0.0001822617,0.0001360731,7,1
0.0002140265,2.34377e-05,7,1
0.0002341226,-9.405965e-05,7,1
0.0002422259,-0.0002005366,7,1
0.0002388225,-0.0002930758,7,1
0.0002279642,-0.0003758912,7,1
0.0002125679,-0.0004559515,7,1
0.0001942546,-0.0005360117,7,1
0.0001714034,-0.0006180168,7,1
0.0001479039,-0.0007035872,7,1
0.0001312112,-0.0007886715,7,1
0.0001190562,-0.0008682456,7,1
0.0001030118,-0.0009348544,7,1
7.57848e-05,-0.0009766672,7,1
3.299956e-05,-0.0009821774,7,1
-1.99958e-05,-0.0009468472,7,1
-7.056019e-05,-0.0008638698,7,1
-0.0001110765,-0.000730328,7,1
-0.0001451102,-0.0005476804,7,1
-0.0001773612,-0.0003253268,7,1
-0.0002021572,-6.602235e-05,7,1
-0.0002060468,0.0002326641,7,1
-0.0001789819,0.0005636016,7,1
-0.0001276072,0.000891622,7,1
-7.201877e-05,0.001161947,7,1
-2.988179e-05,0.001326768,7,1
1.396819e-06,0.001372957,7,1
4.677511e-05,0.001326282,7,1
0.0001321835,0.001228394,7,1
0.0002603772,0.001112841,7,1
0.0004044533,0.00100053,7,1
0.0005248679,0.000898915,7,1
0.0005879114,0.0008063756,7,1
0.0005835356,0.0007096225,7,1
0.0005187094,0.0006015248,7,1
0.000418553,0.0004819206,7,1
0.0003047831,0.0003606957,7,1
0.0001892305,0.0002545429,7,1
8.178122e-05,0.0001751309,7,1
-1.010982e-05,0.000123432,7,1
-8.060823e-05,8.891209e-05,7,1
-0.00012469,6.41161e-05,7,1
-0.0001336036,4.515445e-05,7,1
-0.0001020008,2.748934e-05,7,1
-3.879538e-05,5.286387e-06,7,1
1.906194e-05,-1.853722e-05,7,1
3.332369e-05,-3.474375e-05,7,1
-7.100305e-07,-3.441962e-05,7,1
-5.840528e-05,-2.275091e-05,7,1
-0.0001008664,-1.480971e-05,7,1
-0.0001067007,-2.566809e-05,7,1
-8.417367e-05,-6.0188e-05,7,1
-6.083626e-05,-0.0001125351,7,1
-5.791909e-05,-0.0001729855,7,1
-7.542214e-05,-0.0002306807,7,1
-0.0001016767,-0.0002814071,7,1
-0.0001245279,-0.0003303509,7,1
-0.0001394379,-0.000382698,7,1
-0.0001506204,-0.0004416897,7,1
-0.0001681235,-0.0005039228,7,1
-0.0001982676,-0.0005564319,7,1
-0.0002360289,-0.0005844692,7,1
-0.0002729798,-0.0005818762,7,1
-0.0003021515,-0.0005473563,7,1
-0.0003180339,-0.0004843129,7,1
-0.0003188442,-0.0004031182,7,1
-0.0003015032,-0.0003246786,7,1
-0.0002700626,-0.0002656868,7,1
-0.0002344082,-0.0002366771,7,1
-0.0002042641,-0.0002412149,7,1
-0.0001895161,-0.0002705488,7,1
-0.0001974573,-0.000313334,7,1
-0.0002253326,-0.0003519055,7,1
-0.0002590421,-0.0003721637,7,1
-0.0002820554,-0.0003882082,7,1
-0.0002849726,-0.000432452,7,1
-0.0002684419,-0.0005272602,7,1
-0.0002415391,-0.00067085,7,1
-0.0002180396,-0.0008450702,7,1
-0.0002071812,-0.001020911,7,1
-0.0002118811,-0.001170659,7,1
-0.0002263049,-0.001280702,7,1
-0.0002457528,-0.001362059,7,1
-0.0002658489,-0.001441633,7,1
-0.0002783279,-0.001543086,7,1
-0.0002778417,-0.001678734,7,1
-0.0002632558,-0.001846958,7,1
-0.0002366771,-0.002029768,7,1
-0.0001987538,-0.002201071,7,1
-0.0001511067,-0.002326996,7,1
-9.486997e-05,-0.00237286,7,1
-2.372331e-05,-0.002303334,7,1
6.622294e-05,-0.002098646,7,1
0.0001701068,-0.001763981,7,1
0.0002744769,-0.001317166,7,1
0.0003605336,-0.00077522,7,1
0.0004078567,-0.0001336036,7,1
0.0004055878,0.000629238,7,1
0.0003631267,0.001510551,7,1
0.0002979764,0.002458312,7,1
0.0002339606,0.003363291,7,1
0.0001934442,0.004082544,7,1
0.0001897167,0.004489495,7,1
0.0002174299,0.004529526,7,1
0.0002652392,0.004240235,7,1
0.0003219621,0.003734262,7,1
0.0003777126,0.003162652,7,1
0.0004320045,0.002652143,7,1
0.0004840274,0.002268695,7,1
0.0005281092,0.002019923,7,1
0.0005517708,0.001893188,7,1
0.0005439916,0.001868392,7,1
0.0005070407,0.001917984,7,1
0.0004535592,0.002000313,7,1
0.0003942432,0.002051688,7,1
0.0003358997,0.001999017,7,1
0.0002816078,0.001794976,7,1
0.0002310434,0.001447507,7,1
0.0001783722,0.001018519,7,1
0.0001163011,0.00058937,7,1
4.288554e-05,0.0002188885,7,1
-3.928157e-05,-7.801519e-05,7,1
-0.0001212866,-0.0003180339,7,1
-0.0001882196,-0.0005305015,7,1
-0.0002250084,-0.0007342176,7,1
-0.000231491,-0.0009288579,7,1
-0.0002222533,-0.001107778,7,1
-0.0002117191,-0.001262226,7,1
-0.0001985918,-0.001385072,7,1
-0.0001770371,-0.00147048,7,1
-0.0001491618,-0.001508728,7,1
-0.0001261486,-0.001491387,7,1
-0.0001204763,-0.001410678,7,1
-0.0001355484,-0.001264009,7,1
-0.0001614788,-0.001051866,7,1
-0.0001865989,-0.000784944,7,1
-0.0002096122,-0.0004907955,7,1
-0.0002340841,-0.00021415,7,1
-0.0002558008,2.369211e-06,7,1
-0.0002648765,0.0001346145,7,1
-0.0002533699,0.0001817755,7,1
-0.0002183637,0.0001723757,7,1
-0.0001634236,0.0001479039,7,1
-0.0001091317,0.0001391524,7,1
-7.574627e-05,0.0001548727,7,1
-6.553616e-05,0.0001843686,7,1
-7.039812e-05,0.000200413,7,1
-8.303922e-05,0.0001715654,7,1
-9.924574e-05,8.259155e-05,7,1
-0.0001139937,-6.002594e-05,7,1
-0.000122259,-0.0002355427,7,1
-0.0001259865,-0.0004180282,7,1
-0.0001316588,-0.0005877105,7,1
-0.0001428413,-0.0007298418,7,1
-0.0001583996,-0.0008301602,7,1
-0.0001705545,-0.0008800763,7,1
-0.0001658546,-0.0008829935,7,1
-0.0001379794,-0.0008549562,7,1
-8.887356e-05,-0.0008181673,7,1
-2.275091e-05,-0.0007859163,7,1
4.547859e-05,-0.0007640376,7,1
9.814982e-05,-0.0007531792,7,1
0.0001206769,-0.0007479931,7,1
0.0001073875,-0.0007434553,7,1
6.557468e-05,-0.0007436173,7,1
5.934648e-06,-0.0007483172,7,1
-5.208474e-05,-0.0007604721,7,1
-8.579432e-05,-0.0007847819,7,1
-8.482193e-05,-0.000819788,7,1
-4.608832e-05,-0.0008596561,7,1
2.522042e-05,-0.0008979035,7,1
0.0001122495,-0.0009259408,7,1
0.00018291,-0.0009387439,7,1
0.00021273,-0.0009358267,7,1
0.000195389,-0.0009218892,7,1
0.0001409351,-0.0009051964,7,1
7.416415e-05,-0.0008902864,7,1
2.748934e-05,-0.0008805625,7,1
1.54965e-05,-0.0008794281,7,1
3.705119e-05,-0.0008863969,7,1
7.546067e-05,-0.0008901244,7,1
0.0001112771,-0.0008671111,7,1
0.0001310491,-0.0007977472,7,1
0.000135749,-0.0006750637,7,1
0.0001373696,-0.0005032745,7,1
0.0001521176,-0.0002903207,7,1
0.0001859892,-5.030202e-05,7,1
0.0002323399,0.0002023578,7,1
0.0002829043,0.0004621486,7,1
0.0003329825,0.0007371737,7,1
0.0003741471,0.001036833,7,1
0.0003971604,0.001342975,7,1
0.0003914881,0.001601307,7,1
0.000353889,0.001747815,7,1
0.00029198,0.00174036,7,1
0.0002171058,0.001583966,7,1
0.000145635,0.001324175,7,1
8.79397e-05,0.001027595,7,1
4.564065e-05,0.000752894,7,1
1.760335e-05,0.0005396159,7,1
-2.330684e-06,0.0004047775,7,1
-2.015787e-05,0.000344165,7,1
-3.733679e-05,0.0003357376,7,1
-4.592625e-05,0.0003475684,7,1
-3.717473e-05,0.0003527545,7,1
-1.140634e-05,0.0003386548,7,1
1.711715e-05,0.0003109416,7,1
3.753739e-05,0.0002814457,7,1
4.466826e-05,0.0002615117,7,1
4.288554e-05,0.0002568118,7,1
4.013043e-05,0.0002629703,7,1
3.624086e-05,0.0002749631,7,1
2.781346e-05,0.0002848491,7,1
9.175954e-06,0.000284525,7,1
-1.902341e-05,0.0002739907,7,1
-5.354332e-05,0.0002547049,7,1
-8.773911e-05,0.0002357433,7,1
-0.0001177212,0.000230071,7,1
-0.000142031,0.0002433604,7,1
-0.0001642339,0.0002705873,7,1
-0.0001853024,0.0003109416,7,1
-0.0002045882,0.0003640991,7,1
-0.0002147983,0.0004242253,7,1
-0.0002052365,0.0004762483,7,1
-0.0001750923,0.000505258,7,1
-0.0001387897,0.0005021787,7,1
-0.0001182074,0.0004665244,7,1
-0.0001337657,0.0004070464,7,1
-0.000194216,0.0003354135,7,1
-0.0002877277,0.0002629703,7,1
-0.0003867496,0.000192958,7,1
-0.0004556273,0.0001253768,7,1
-0.0004713477,6.006447e-05,7,1
-0.000435045,-2.168618e-06,7,1
-0.0003664914,-5.581224e-05,7,1
-0.0002914552,-9.162867e-05,7,1
-0.000238784,-0.0001128592,7,1
-0.000223874,-0.0001290658,7,1
-0.0002454286,-0.0001449482,7,1
-0.0002869174,-0.0001572651,7,1
-0.0003264613,-0.0001632615,7,1
-0.0003442885,-0.0001652063,7,1
-0.0003321336,-0.0001611547,7,1
-0.0003037722,-0.0001507825,7,1
-0.0002789762,-0.000137007,7,1
-0.0002720074,-0.0001209625,7,1
-0.0002874036,-0.0001042698,7,1
-0.000315765,-8.709085e-05,7,1
-0.0003363473,-6.991193e-05,7,1
-0.0003190063,-5.435365e-05,7,1
-0.000241377,-4.284701e-05,7,1
-0.0001107524,-3.134038e-05,7,1
4.709924e-05,-1.967167e-05,7,1
0.0002133783,-1.075808e-05,7,1
0.0003882468,-1.027188e-05,7,1
0.0005765668,-1.869928e-05,7,1
0.0007621317,-2.89094e-05,7,1
0.0009083148,-3.409549e-05,7,1
0.0009817304,-3.296103e-05,7,1
0.0009650377,-2.712668e-05,7,1
0.0008684467,-2.323711e-05,7,1
0.0007272876,-2.145439e-05,7,1
0.0005864528,-1.983374e-05,7,1
0.0004845136,-1.529591e-05,7,1
0.0004378388,-9.137427e-06,7,1
0.0004435111,-4.599598e-06,7,1
0.000485324,-5.247859e-06,7,1
0.0005402642,-9.947754e-06,7,1
0.0005887217,-1.416145e-05,7,1
0.0006232416,-1.351319e-05,7,1
0.0006472273,-4.437533e-06,7,1
0.0006592202,1.12828e-05,7,1
0.0006532237,3.170304e-05,7,1
0.0006261588,5.163707e-05,7,1
0.0005734875,6.962632e-05,7,1
0.0004987754,8.323981e-05,7,1
0.0004140152,8.761557e-05,7,1
0.0003303894,8.178122e-05,7,1
0.000252274,6.476436e-05,7,1
0.0001791825,4.142696e-05,7,1
0.000106091,2.068259e-05,7,1
3.105477e-05,9.824215e-06,7,1
-4.965376e-05,8.689758e-06,7,1
-0.0001314967,1.160693e-05,7,1
-0.0002073433,1.306552e-05,7,1
-0.0002715212,9.500085e-06,7,1
-0.0003290543,1.720949e-06,7,1
-0.0003908012,-4.599598e-06,7,1
-0.0004656754,-3.303076e-06,7,1
-0.0005527044,3.989864e-06,7,1
-0.0006338991,1.371378e-05,7,1
-0.0006804119,2.181705e-05,7,1
-0.0006731189,2.619281e-05,7,1
-0.0006227166,2.846173e-05,7,1
-0.0005574043,3.154097e-05,7,1
-0.0005068399,3.267542e-05,7,1
-0.0004831784,2.554455e-05,7,1
-0.0004784786,7.069105e-06,7,1
-0.0004775062,-2.129233e-05,7,1
-0.0004661616,-5.435365e-05,7,1
-0.0004450931,-8.222889e-05,7,1
-0.0004185144,-9.762509e-05,7,1
-0.0003985804,-0.0001015147,7,1
-0.0003888564,-0.000104918,7,1
-0.000387722,-0.0001175591,7,1
-0.0003955011,-0.0001410586,7,1
-0.0004117076,-0.0001702304,7,1
-0.0004285624,-0.0001977815,7,1
-0.0004371519,-0.0002169052,7,1
-0.0004295348,-0.0002301945,7,1
-0.0004019837,-0.0002382978,7,1
-0.0003562813,-0.0002408908,7,1
-0.0002956689,-0.0002371633,7,1
-0.000221605,-0.0002233878,7,1
-0.000144462,-0.0001969711,7,1
-8.255302e-05,-0.0001603444,7,1
-5.759496e-05,-0.0001225832,7,1
-7.218083e-05,-9.033215e-05,7,1
-0.0001058904,-6.699475e-05,7,1
-0.0001256624,-5.613637e-05,7,1
-0.0001076731,-5.986387e-05,7,1
-5.467778e-05,-8.125649e-05,7,1
1.387585e-05,-0.0001188556,7,1
7.659513e-05,-0.0001674752,7,1
0.0001174356,-0.0002193361,7,1
0.0001354248,-0.0002664971,7,1
0.0001412592,-0.0003003688,7,1
0.0001467694,-0.0003131719,7,1
0.0001579519,-0.0003024756,7,1
0.0001746447,-0.0002731418,7,1
0.0001937684,-0.0002306807,7,1
0.0002094887,-0.0001818991,7,1
0.0002132162,-0.0001298761,7,1
0.0002049509,-7.60704e-05,7,1
0.0001897167,-1.270286e-05,7,1
0.0001739964,6.427817e-05,7,1
0.000163138,0.0001564933,7,1
0.0001571416,0.0002574601,7,1
0.000150659,0.0003546993,7,1
0.0001440143,0.0004310321,7,1
0.000145797,0.0004746277,7,1
0.0001673517,0.0004814344,7,1
0.0002047888,0.0004512903,7,1
0.0002427121,0.0003906778,7,1
0.0002660495,0.0003140208,7,1
0.0002692908,0.0002388225,7,1
0.0002485465,0.0001773998,7,1
0.0002060853,0.0001372076,7,1
0.0001547106,0.0001175977,7,1
0.0001171115,0.0001122495,7,1
0.0001075496,0.000110953,7,1
0.0001266733,0.0001046324,7,1
0.0001587623,8.712937e-05,7,1
0.0001827479,5.666109e-05,7,1
0.0001900409,1.663096e-05,7,1
0.0001934442,-2.809907e-05,7,1
0.0002093267,-6.650855e-05,7,1
0.0002478982,-8.919769e-05,7,1
0.0002963557,-8.709085e-05,7,1
0.0003263378,-6.294311e-05,7,1
0.0003104554,-2.696461e-05,7,1
0.0002422259,6.90704e-06,7,1
0.0001423936,3.380988e-05,7,1
4.742337e-05,5.585077e-05,7,1
-1.20546e-05,7.30297e-05,7,1
-2.210265e-05,8.74535e-05,7,1
7.717366e-06,9.717743e-05,7,1
4.839576e-05,0.0001009049,7,1
6.265751e-05,0.0001013911,7,1
2.651694e-05,0.000106091,7,1
-5.305713e-05,0.0001229458,7,1
-0.0001431655,0.0001542244,7,1
-0.0002079916,0.0001898788,7,1
-0.0002348944,0.0002135403,7,1
-0.000231491,0.0002164575,7,1
-0.000213988,0.0001963614,7,1
-0.0001938919,0.0001526038,7,1
-0.0001720131,9.053275e-05,7,1
-0.0001387897,2.165498e-05,7,1
-8.709085e-05,-3.830919e-05,7,1
-1.821308e-05,-8.07703e-05,7,1
5.714729e-05,-0.0001060525,7,1
0.0001252147,-0.0001261486,7,1
0.0001673517,-0.0001498101,7,1
0.0001697827,-0.0001812508,7,1
0.0001339663,-0.0002241981,7,1
8.42122e-05,-0.0002827037,7,1
6.152305e-05,-0.0003613053,7,1
0.00010366,-0.0004676201,7,1
0.0002104611,-0.0006065101,7,1
0.0003402755,-0.0007744097,7,1
0.0004334631,-0.0009602986,7,1
0.0004456179,-0.001142784,7,1
0.000363937,-0.001302419,7,1
0.0002043026,-0.001425426,7,1
5.448452e-06,-0.001512455,7,1
-0.0001836818,-0.001569016,7,1
-0.0003225718,-0.001600781,7,1
-0.0003980942,-0.001608398,7,1
-0.0004280762,-0.001591867,7,1
-0.0004366657,-0.001551351,7,1
-0.0004319658,-0.001478584,7,1
-0.0004047388,-0.001353631,7,1
-0.0003559572,-0.001145215,7,1
-0.0003027998,-0.0008324291,7,1
-0.0002630937,-0.0004295348,7,1
-0.0002473734,2.369211e-06,7,1
-0.0002501286,0.0003945674,7,1
-0.0002609869,0.0007120535,7,1
-0.0002720074,0.0009778409,7,1
-0.0002741142,0.001260159,7,1
-0.0002647144,0.001626752,7,1
-0.0002382978,0.002095608,7,1
-0.0001906506,0.002616327,7,1
-0.0001251762,0.003084698,7,1
-4.981582e-05,0.003382739,7,1
3.283749e-05,0.003434924,7,1
0.0001274836,0.003242875,7,1
0.0002388225,0.002879522,7,1
0.0003572923,0.002457015,7,1
0.0004564763,0.002083777,7,1
0.0005097958,0.00183371,7,1
0.0005046097,0.001730798,7,1
0.0004477248,0.001739712,7,1
0.0003616681,0.001782011,7,1
0.0002699391,0.001770504,7,1
0.000192958,0.00164312,7,1
0.0001430419,0.001389812,7,1
0.0001260251,0.001052553,7,1
0.000133318,0.0006951987,7,1
0.000150659,0.0003715541,7,1
0.0001592484,0.0001090082,7,1
0.000145797,-9.438378e-05,7,1
0.0001093323,-0.0002540181,7,1
6.881599e-05,-0.0003872358,7,1
4.661304e-05,-0.000509595,7,1
5.487838e-05,-0.0006316302,7,1
8.340187e-05,-0.0007520447,7,1
0.0001163011,-0.0008616009,7,1
0.0001535762,-0.0009515471,7,1
0.000210137,-0.001015887,7,1
0.00029198,-0.001050083,7,1
0.0003775505,-0.001059321,7,1
0.0004273046,-0.001054621,7,1
0.0004094774,-0.001043762,7,1
0.0003117519,-0.001025935,7,1
0.0001500107,-0.0009953048,7,1
-3.555408e-05,-0.0009505748,7,1
-0.0002008607,-0.0008946622,7,1
-0.0003126857,-0.0008319429,7,1
-0.0003640605,-0.0007697099,7,1
-0.0003687603,-0.000712987,7,1
-0.0003553089,-0.0006650157,7,1
-0.0003496366,-0.0006366542,7,1
-0.0003609812,-0.0006431369,7,1
-0.0003835083,-0.0006914323,7,1
-0.0004146248,-0.0007706822,7,1
-0.0004554653,-0.0008560906,7,1
-0.0004938748,-0.0009184858,7,1
-0.0005138087,-0.0009374474,7,1
-0.0004967919,-0.0009105446,7,1
-0.0004321279,-0.0008583596,7,1
-0.0003305129,-0.0008082814,7,1
-0.0002245222,-0.0007771649,7,1
-0.0001525652,-0.0007721409,7,1
-0.0001425172,-0.0007795958,7,1
-0.0001976194,-0.0007789475,7,1
-0.000295993,-0.0007596618,7,1
-0.0003958252,-0.0007212523,7,1
-0.0004551412,-0.0006714982,7,1
-0.0004504412,-0.000623527,7,1
-0.0003831841,-0.0005834968,7,1
-0.0002692523,-0.0005504355,7,1
-0.000134738,-0.0005152673,7,1
-1.027188e-05,-0.0004553032,7,1
7.837785e-05,-0.0003418575,7,1
0.0001179218,-0.0001720131,7,1
0.0001122495,2.894792e-05,7,1
7.870197e-05,0.0002205092,7,1
3.964424e-05,0.0003665301,7,1
1.371378e-05,0.0004486972,7,1
3.503668e-06,0.0004610142,7,1
5.286387e-06,0.0004166082,7,1
1.144487e-05,0.0003444891,7,1
1.938607e-05,0.0002783665,7,1
3.705119e-05,0.0002532463,7,1
7.286763e-05,0.0002806354,7,1
0.0001278078,0.0003433547,7,1
0.000187772,0.0003987811,7,1
0.0002367157,0.0004018603,7,1
0.0002670219,0.0003308757,7,1
0.0002754493,0.0001949028,7,1
0.0002637806,2.262738e-05,7,1
0.0002337985,-0.0001509446,7,1
0.0001884202,-0.0002971275,7,1
0.000133318,-0.000397608,7,1
7.837785e-05,-0.0004452552,7,1
3.445814e-05,-0.000444769,7,1
9.986281e-06,-0.0004055492,7,1
1.322759e-05,-0.0003413713,7,1
5.277153e-05,-0.0002664971,7,1
0.0001354248,-0.0001875713,7,1
0.0002444948,-0.0001068628,7,1
0.0003527545,-2.194059e-05,7,1
0.0004321665,6.573675e-05,7,1
0.0004725208,0.0001547106,7,1
0.0004785172,0.00024255,7,1
0.0004627969,0.0003214759,7,1
0.0004388112,0.0003801436,7,1
0.0004156358,0.0004149876,7,1
0.0003897054,0.0004273046,7,1
0.0003559958,0.0004222805,7,1
0.0003125623,0.0004052637,7,1
0.0002649151,0.0003816021,7,1
0.0002203471,0.0003595612,7,1
0.0001773998,0.0003461098,7,1
0.0001300767,0.000341734,7,1
7.67572e-05,0.0003461098,7,1
1.889987e-05,0.0003542131,7,1
-3.976777e-05,0.0003611819,7,1
-9.19528e-05,0.0003655576,7,1
-0.0001225832,0.0003700955,7,1
-0.000122097,0.0003756057,7,1
-8.935975e-05,0.000383709,7,1
-3.652646e-05,0.0003958639,7,1
1.59827e-05,0.000408505,7,1
3.98063e-05,0.0004164462,7,1
1.614476e-05,0.0004167703,7,1
-5.354332e-05,0.000406074,7,1
-0.0001489998,0.0003850055,7,1
-0.000238946,0.000351458,7,1
-0.0003019894,0.0002965178,7,1
-0.0003322956,0.0002164575,7,1
-0.0003337542,0.0001167873,7,1
-0.0003097686,7.555301e-06,7,1
-0.0002627696,-0.0001021629,7,1
-0.0001912988,-0.0002094502,7,1
-9.308726e-05,-0.000318196,7,1
3.202716e-05,-0.0004301831,7,1
0.0001697827,-0.0005478425,7,1
0.0002924662,-0.0006750637,7,1
0.0003678266,-0.0008184915,7,1
0.0003731747,-0.000978774,7,1
0.0003102934,-0.001147484,7,1
0.0001932822,-0.001309874,7,1
4.920609e-05,-0.001448601,7,1
-8.757704e-05,-0.001548434,7,1
-0.0001984297,-0.00159446,7,1
-0.0002793003,-0.001580847,7,1
-0.0003326198,-0.001513752,7,1
-0.000365357,-0.001408733,7,1
-0.000385291,-0.001273571,7,1
-0.0003946908,-0.001098702,7,1
-0.0003893426,-0.0008656525,7,1
-0.0003660052,-0.0005578905,7,1
-0.0003267854,-0.0001812508,7,1
-0.0002754107,0.0002290986,7,1
-0.0002261429,0.0006221072,7,1
-0.0001961608,0.0009679549,7,1
-0.0002013469,0.001282038,7,1
-0.0002449425,0.001619459,7,1
-0.0003052308,0.00204715,7,1
-0.0003467195,0.002600282,7,1
-0.0003403989,0.003251789,7,1
-0.0002768693,0.003906701,7,1
-0.0001590478,0.004430016,7,1
1.063454e-05,0.004680249,7,1
0.0002161334,0.004565829,7,1
0.0004140152,0.004083517,7,1
0.0005475571,0.003327636,7,1
0.0005789978,0.002452153,7,1
0.0005083373,0.001617028,7,1
0.000378685,0.0009355418,7,1
0.0002496809,0.0004566384,7,1
0.0001670276,0.0001676758,7,1
0.0001488763,1.64689e-05,7,1
0.0001811273,-5.921561e-05,7,1
0.0002292607,-0.0001143178,7,1
0.0002564877,-0.0001806025,7,1
0.0002299089,-0.0002669833,7,1
0.0001449867,-0.000365357,7,1
3.13789e-05,-0.0004630823,7,1
-6.44017e-05,-0.0005473563,7,1
-0.0001029732,-0.0006125065,7,1
-7.137051e-05,-0.0006601537,7,1
7.879432e-06,-0.0006979149,7,1
9.182927e-05,-0.0007332452,7,1
0.0001420695,-0.000770034,7,1
0.0001433661,-0.0008090917,7,1
0.0001046324,-0.0008458805,7,1
4.936815e-05,-0.0008750523,7,1
-1.358292e-06,-0.0008943381,7,1
-3.652646e-05,-0.0008996862,7,1
-5.775702e-05,-0.0008928794,7,1
-6.553616e-05,-0.0008771592,7,1
-5.111234e-05,-0.0008554424,7,1
-1.173047e-05,-0.0008304843,7,1
3.656499e-05,-0.0008045539,7,1
6.670914e-05,-0.0007839716,7,1
6.541262e-05,-0.0007729512,7,1
3.753739e-05,-0.0007688995,7,1
-1.682422e-06,-0.000762579,7,1
-3.63644e-05,-0.0007475069,7,1
-5.824322e-05,-0.0007256281,7,1
-6.974985e-05,-0.0007016424,7,1
-9.049421e-05,-0.0006808981,7,1
-0.0001378173,-0.0006630709,7,1
-0.000206695,-0.0006470265,7,1
-0.0002750866,-0.0006316302,7,1
-0.0003212752,-0.000616072,7,1
-0.0003313232,-0.0006050515,7,1
-0.0002995585,-0.0006039171,7,1
-0.0002297083,-0.000608617,7,1
-0.0001373311,-0.0006146134,7,1
-4.981582e-05,-0.0006149375,7,1
2.531276e-06,-0.000608779,7,1
7.485573e-07,-0.0005972724,7,1
-4.673658e-05,-0.000583821,7,1
-0.0001128592,-0.0005749074,7,1
-0.0001655305,-0.0005711799,7,1
-0.0001888679,-0.000571504,7,1
-0.0001887058,-0.0005676145,7,1
-0.0001804405,-0.0005510838,7,1
-0.0001734716,-0.0005202913,7,1
-0.000161965,-0.0004826922,7,1
-0.0001421931,-0.0004480103,7,1
-0.0001193418,-0.000419973,7,1
-0.0001063766,-0.0003919357,7,1
-0.0001107524,-0.000360495,7,1
-0.0001276072,-0.00032322,7,1
-0.0001483515,-0.0002807589,7,1
-0.0001673132,-0.0002321393,7,1
-0.0001810887,-0.000174282,7,1
-0.0001895161,-0.0001114006,7,1
-0.0001864369,-5.402952e-05,7,1
-0.0001600202,-1.173047e-05,7,1
-0.000104918,8.851824e-06,7,1
-3.036798e-05,7.393236e-06,7,1
5.082674e-05,-9.623623e-06,7,1
0.0001297526,-3.085418e-05,7,1
0.0002013854,-4.673658e-05,7,1
0.0002602152,-5.159854e-05,7,1
0.000304297,-5.046408e-05,7,1
0.00033671,-5.548811e-05,7,1
0.0003616681,-7.33153e-05,7,1
0.0003843572,-0.0001054042,7,1
0.0004132049,-0.0001433275,7,1
0.0004478869,-0.0001705545,7,1
0.0004801379,-0.0001823853,7,1
0.0004968306,-0.0001799543,7,1
0.0004942376,-0.000169258,7,1
0.0004801379,-0.0001551583,7,1
0.0004627969,-0.0001355484,7,1
0.0004422146,-0.0001062146,7,1
0.0004133669,-6.731888e-05,7,1
0.0003696093,-1.99958e-05,7,1
0.0003081865,3.18651e-05,7,1
0.0002308813,8.323981e-05,7,1
0.000153252,0.0001287802,7,1
9.604298e-05,0.0001683241,7,1
7.821578e-05,0.000210137,7,1
0.0001090082,0.0002592428,7,1
0.0001744826,0.0003098072,7,1
0.0002431983,0.0003501615,7,1
0.0002859836,0.0003733368,7,1
0.0002885766,0.0003833848,7,1
0.0002545429,0.0003994293,7,1
0.0002007372,0.000435732,7,1
0.0001399627,0.0004963444,7,1
8.42122e-05,0.0005775391,7,1
3.672706e-05,0.0006650545,7,1
-4.113403e-06,0.0007378219,7,1
-4.252288e-05,0.0007720177,7,1
-7.833932e-05,0.0007575939,7,1
-0.0001114006,0.000696009,7,1
-0.0001441378,0.0005973112,7,1
-0.0001786577,0.0004741415,7,1
-0.0002151224,0.0003362238,7,1
-0.0002528836,0.0001957132,7,1
-0.0002872415,6.946425e-05,7,1
-0.0003165753,-2.242678e-05,7,1
-0.0003376438,-6.958779e-05,7,1
-0.0003472056,-7.201877e-05,7,1
-0.0003459091,-3.490581e-05,7,1
-0.0003408851,3.640293e-05,7,1
-0.0003379679,0.0001354248,7,1
-0.0003402368,0.000259729,7,1
-0.0003428299,0.0004170944,7,1
-0.0003460712,0.0006183797,7,1
-0.0003510952,0.0008583986,7,1
-0.0003562813,0.001109276,7,1
-0.0003566054,0.001336492,7,1
-0.0003528779,0.001509902,7,1
-0.0003489884,0.001610383,7,1
-0.0003446126,0.001627238,7,1
-0.0003334301,0.001553498,7,1
-0.0003126857,0.001387381,7,1
-0.0002898345,0.001140231,7,1
-0.0002791382,0.0008499712,7,1
-0.0002867553,0.0005691118,7,1
-0.0002922655,0.0003389789,7,1
-0.0002681178,0.0001718896,7,1
-0.00019924,5.358185e-05,7,1
-9.697683e-05,-4.43056e-05,7,1
1.322759e-05,-0.0001540238,7,1
0.0001069013,-0.0002898345,7,1
0.0001699448,-0.0004386105,7,1
0.0002008992,-0.0005719902,7,1
0.0002094887,-0.0006638812,7,1
0.0002072198,-0.0007056941,7,1
0.0002018716,-0.0007032631,7,1
0.0001968476,-0.0006737672,7,1
0.0001932822,-0.0006403818,7,1
0.0001939304,-0.0006157478,7,1
0.0001974959,-0.000601162,7,1
0.0001936063,-0.0005940311,7,1
0.0001723757,-0.0005906277,7,1
0.0001331559,-0.0005906277,7,1
8.388807e-05,-0.0005901415,7,1
3.964424e-05,-0.0005867381,7,1
9.824215e-06,-0.0005779866,7,1
-6.868513e-06,-0.0005606457,7,1
-2.583016e-05,-0.0005258016,7,1
-5.64605e-05,-0.0004580583,7,1
-9.616651e-05,-0.00033813,7,1
-0.0001263107,-0.0001502963,7,1
-0.0001235555,0.0001000946,7,1
-7.947377e-05,0.000381278,7,1
-9.299493e-06,0.0006352345,7,1
5.844381e-05,0.0007971379,7,1
0.0001005808,0.0008261476,7,1
0.0001177597,0.0007222636,7,1
0.0001295905,0.0005255162,7,1
0.0001626518,0.0002974902,7,1
0.0002269918,0.0001004187,7,1
0.0003146691,-1.869928e-05,7,1
0.0004068843,-4.38194e-05,7,1
0.0004869446,4.313994e-06,7,1
0.0005402642,7.821578e-05,7,1
0.0005632775,0.0001273216,7,1
0.0005640878,0.0001166253,7,1
0.0005564707,3.705119e-05,7,1
0.0005415607,-9.551824e-05,7,1
0.0005086614,-0.0002485079,7,1
0.0004456179,-0.0003891806,7,1
0.0003504856,-0.0004927403,7,1
0.0002355812,-0.0005484907,7,1
0.0001190562,-0.0005682627,7,1
1.711715e-05,-0.0005791211,7,1
-6.148453e-05,-0.0005966241,7,1
-0.0001112386,-0.000618503,7,1
-0.0001361966,-0.0006316302,7,1
-0.0001387897,-0.0006358439,7,1
-0.0001235555,-0.0006441093,7,1
-9.892161e-05,-0.0006719845,7,1
-7.315322e-05,-0.0007291936,7,1
-4.657452e-05,-0.0008131433,7,1
-1.3027e-05,-0.0009095722,7,1
2.165498e-05,-0.00100276,7,1
3.769945e-05,-0.001085575,7,1
1.679302e-05,-0.001154615,7,1
-3.847125e-05,-0.001199831,7,1
-9.908367e-05,-0.001198859,7,1
-0.0001280934,-0.001129171,7,1
-0.0001076731,-0.0009828256,7,1
-5.370539e-05,-0.0007648479,7,1
-8.327101e-06,-0.0004813957,7,1
-1.545797e-05,-0.0001302002,7,1
-9.519411e-05,0.000304459,7,1
-0.0002290601,0.0008290648,7,1
-0.0003695707,0.001426925,7,1
-0.0004700511,0.002041478,7,1
-0.0005063537,0.002583103,7,1
-0.0004852853,0.002940621,7,1
-0.000437314,0.00301663,7,1
-0.0003938804,0.002779851,7,1
-0.0003702189,0.002283605,7,1
-0.0003614674,0.001656248,7,1
-0.0003501228,0.001050446,7,1
-0.0003162512,0.0005827253,7,1
-0.000251101,0.0003057555,7,1
-0.0001605064,0.0002068957,7,1
-5.629844e-05,0.0002308813,7,1
3.948217e-05,0.000309483,7,1
9.912221e-05,0.0003866261,7,1
0.0001072255,0.0004334631,7,1
7.027458e-05,0.0004469145,7,1
1.193106e-05,0.0004302217,7,1
-3.944364e-05,0.0003811159,7,1
-6.796714e-05,0.0002979764,7,1
-6.877746e-05,0.0001816135,7,1
-4.868137e-05,3.656499e-05,7,1
-2.113026e-05,-0.0001311726,7,1
4.638125e-06,-0.0003194925,7,1
3.462021e-05,-0.0005165638,7,1
7.67572e-05,-0.0007011562,7,1
0.0001250527,-0.0008512287,7,1
0.0001626518,-0.0009505748,7,1
0.0001759412,-0.0009991943,7,1
0.0001579519,-0.00100908,7,1
0.0001119254,-0.0009991943,7,1
4.612685e-05,-0.0009844464,7,1
-2.923353e-05,-0.000971319,7,1
-9.956988e-05,-0.0009568953,7,1
-0.0001580754,-0.0009304786,7,1
-0.0002021572,-0.0008812108,7,1
-0.0002276015,-0.0008081193,7,1
-0.0002378116,-0.0007196317,7,1
-0.0002347323,-0.0006264441,7,1
-0.0002209568,-0.0005386047,7,1
-0.000199078,-0.0004679443,7,1
-0.0001699062,-0.0004228902,7,1
-0.0001327933,-0.0004065215,7,1
-9.114248e-05,-0.00041268,7,1
-5.062615e-05,-0.0004306693,7,1
-1.967167e-05,-0.000452386,7,1
-4.923729e-06,-0.0004698891,7,1
-3.951337e-06,-0.0004739407,7,1
-1.643037e-05,-0.0004530343,7,1
-3.620233e-05,-0.0004037664,7,1
-4.47918e-05,-0.0003395886,7,1
-2.09682e-05,-0.0002809209,7,1
3.737532e-05,-0.0002428356,7,1
0.0001107909,-0.0002301945,7,1
0.0001718896,-0.0002407288,7,1
0.0001991165,-0.0002666592,7,1
0.0001914995,-0.0002917793,7,1
0.0001654069,-0.0003016653,7,1
0.0001479039,-0.0002895104,7,1
0.0001594105,-0.0002551526,7,1
0.0001994406,-0.0002042641,7,1
0.0002538946,-0.0001417068,7,1
0.0003036487,-7.266703e-05,7,1
0.0003320101,-5.247859e-06,7,1
0.000329255,5.066468e-05,7,1
0.0002940868,9.069481e-05,7,1
0.0002299089,0.0001182459,7,1
0.0001521176,0.0001398006,7,1
7.465034e-05,0.0001620036,7,1
1.241726e-05,0.0001863134,7,1
-2.388537e-05,0.0002111094,7,1
-2.518189e-05,0.0002388225,7,1
1.355172e-05,0.0002696149,7,1
7.983644e-05,0.0002983005,7,1
0.0001522796,0.0003213138,7,1
0.0002107852,0.0003357376,7,1
0.000242388,0.0003418961,7,1
0.0002359054,0.0003425444,7,1
0.0001863134,0.0003422202,7,1
0.0001004187,0.000349027,7,1
-1.358292e-06,0.0003670162,7,1
-8.968389e-05,0.0003927847,7,1
-0.0001363587,0.0004179048,7,1
-0.0001237176,0.0004305459,7,1
-6.116039e-05,0.0004255218,7,1
2.133085e-05,0.0004057499,7,1
8.74535e-05,0.0003801436,7,1
0.000115977,0.000361506,7,1
0.0001083599,0.000353889,7,1
7.448828e-05,0.0003508097,7,1
2.667901e-05,0.0003409237,7,1
-2.372331e-05,0.0003171001,7,1
-6.602235e-05,0.0002798251,7,1
-9.616651e-05,0.0002368777,7,1
-0.0001203142,0.0002015475,7,1
-0.0001457585,0.0001846927,7,1
-0.0001739578,0.0001874478,7,1
-0.0002023193,0.0002007372,7,1
-0.0002284118,0.0002088404,7,1
-0.000251101,0.0002030061,7,1
-0.0002634179,0.0001851789,7,1
-0.0002569353,0.0001566554,7,1
-0.0002316531,0.0001201907,7,1
-0.0001989159,7.481241e-05,7,1
-0.0001716889,2.116879e-05,7,1
-0.000156941,-3.68506e-05,7,1
-0.000152079,-8.935975e-05,7,1
-0.0001462447,-0.0001289037,7,1
-0.0001324691,-0.0001486757,7,1
-0.0001000561,-0.0001455964,7,1
-4.365734e-05,-0.0001277692,7,1
3.056858e-05,-0.0001091317,7,1
0.0001065772,-0.0001026491,7,1
0.0001642725,-0.0001105903,7,1
0.0001851789,-0.0001284175,7,1
0.000153252,-0.0001509446,7,1
7.238143e-05,-0.000186761,7,1
-3.134038e-05,-0.0002486699,7,1
-0.0001199901,-0.0003394265,7,1
-0.0001673132,-0.0004465517,7,1
-0.0001639098,-0.0005475183,7,1
-0.0001242038,-0.0006183409,7,1
-7.526008e-05,-0.0006462161,7,1
-3.085418e-05,-0.0006303337,7,1
5.448452e-06,-0.0005856037,7,1
3.915804e-05,-0.0005300153,7,1
6.930219e-05,-0.0004797751,7,1
9.733949e-05,-0.0004433104,7,1
0.0001299146,-0.0004172179,7,1
0.000177886,-0.0003906392,7,1
0.0002469258,-0.0003502849,7,1
0.0003297412,-0.0002891863,7,1
0.0004075326,-0.0002107467,7,1
0.0004499937,-0.0001141558,7,1
0.0004425387,7.393236e-06,7,1
0.0003960259,0.0001618415,7,1
0.0003461098,0.0003658818,7,1
0.0003323342,0.0006425274,7,1
0.0003673404,0.001002475,7,1
0.0004328148,0.001435676,7,1
0.0004869446,0.001893026,7,1
0.000490348,0.002290735,7,1
0.0004289252,0.002547124,7,1
0.0003258516,0.002617137,7,1
0.0002253711,0.002510011,7,1
0.0001577899,0.002279067,7,1
0.000121001,0.001991886,7,1
9.588091e-05,0.001704057,7,1
6.703327e-05,0.001442159,7,1
3.18651e-05,0.001208622,7,1
-1.358292e-06,0.0009968026,7,1
-2.631635e-05,0.0008016757,7,1
-3.944364e-05,0.0006214589,7,1
-5.030202e-05,0.0004533971,7,1
-7.120844e-05,0.0002971661,7,1
-0.0001114006,0.0001524417,7,1
-0.0001639098,2.133085e-05,7,1
-0.0002037779,-9.713889e-05,7,1
-0.0002113949,-0.0002045882,7,1
-0.0001901644,-0.0003006929,7,1
-0.0001575893,-0.0003883702,7,1
-0.0001324691,-0.0004752372,7,1
-0.0001233935,-0.0005684248,7,1
-0.000134738,-0.000678305,7,1
-0.0001634236,-0.0008060125,7,1
-0.0002036158,-0.0009442542,7,1
-0.0002473734,-0.001075527,7,1
-0.0002857829,-0.001184597,7,1
-0.0003143064,-0.001259957,7,1
-0.0003433161,-0.001296908,7,1
-0.0003843186,-0.001301122,7,1
-0.0004376381,-0.001285726,7,1
-0.0004951713,-0.001260768,7,1
-0.0005520562,-0.001232568,7,1
-0.0006069963,-0.00120599,7,1
-0.0006567503,-0.001193187,7,1
-0.0006893255,-0.001206638,7,1
-0.0006873807,-0.00124683,7,1
-0.0006360059,-0.001293829,7,1
-0.0005309877,-0.001318787,7,1
-0.0003861013,-0.001295936,7,1
-0.0002319772,-0.001218631,7,1
-9.632857e-05,-0.001104861,7,1
4.47606e-06,-0.0009930359,7,1
5.698522e-05,-0.0009251304,7,1
5.325772e-05,-0.0009149204,7,1
9.013889e-06,-0.0009376095,7,1
-3.68506e-05,-0.0009500885,7,1
-4.495386e-05,-0.0009176755,7,1
-6.176923e-08,-0.00080974,7,1
7.594687e-05,-0.0006129927,7,1
0.0001503349,-0.0003361852,7,1
0.0001973338,-1.043395e-05,7,1
0.0002119197,0.0003269861,7,1
0.0002158093,0.0006537099,7,1
0.0002440086,0.0009784892,7,1
0.0003166139,0.001341516,7,1
0.0004273046,0.0017765,7,1
0.0005430193,0.002270477,7,1
0.0006222692,0.002753434,7,1
0.0006368551,0.003113222,7,1
0.0005853184,0.003235096,7,1
0.0004922928,0.003051474,7,1
0.0003913261,0.002576134,7,1
0.000309483,0.001913932,7,1
0.0002529222,0.001215429,7,1
0.0002154851,0.0006259967,7,1
0.000187772,0.0002339606,7,1
0.0001684862,4.596478e-05,7,1
0.0001529279,-2.238346e-07,7,1
0.0001321835,1.64689e-05,7,1
0.0001005808,3.624086e-05,7,1
6.265751e-05,2.667901e-05,7,1
3.056858e-05,-1.99958e-05,7,1
1.889987e-05,-9.276313e-05,7,1
2.975825e-05,-0.000166989,7,1
5.244739e-05,-0.000224036,7,1
6.444023e-05,-0.000258718,7,1
5.423012e-05,-0.0002809209,7,1
2.797553e-05,-0.0003066893,7,1
4.244267e-07,-0.000350447,7,1
-1.724069e-05,-0.0004181903,7,1
-2.404744e-05,-0.0005027883,7,1
-2.777494e-05,-0.0005886829,7,1
-3.830919e-05,-0.0006609641,7,1
-5.953974e-05,-0.0007133111,7,1
-8.190475e-05,-0.0007439415,7,1
-8.530812e-05,-0.000755286,7,1
-5.354332e-05,-0.0007507482,7,1
1.031041e-05,-0.0007389174,7,1
8.615699e-05,-0.0007256281,7,1
0.0001488763,-0.0007121767,7,1
0.000195227,-0.0006979149,7,1
0.0002315296,-0.0006839773,7,1
0.0002545429,-0.0006698776,7,1
0.0002451431,-0.0006518884,7,1
0.0001833962,-0.000623527,7,1
6.670914e-05,-0.0005833348,7,1
-8.141856e-05,-0.0005330946,7,1
-0.0002246843,-0.0004791268,7,1
-0.0003335922,-0.0004288866,7,1
-0.0003979321,-0.0003867496,7,1
-0.0004168937,-0.0003515814,7,1
-0.0003979321,-0.0003201407,7,1
-0.0003553089,-0.0002891863,7,1
-0.0003000446,-0.0002572594,7,1
-0.0002345703,-0.0002261429,7,1
-0.0001637477,-0.0001998883,7,1
-9.519411e-05,-0.000184168,7,1
-3.798505e-05,-0.0001815749,7,1
1.095867e-05,-0.0001925954,7,1
5.682316e-05,-0.0002143121,7,1
9.928428e-05,-0.000238946,7,1
0.0001279698,-0.0002567732,7,1
0.0001274836,-0.0002593663,7,1
9.442231e-05,-0.000246401,7,1
3.170304e-05,-0.000221605,7,1
-5.759496e-05,-0.0001934057,7,1
-0.0001757406,-0.0001655305,7,1
-0.0003203028,-0.0001391138,7,1
-0.0004703753,-0.0001154523,7,1
-0.0005909518,-0.0001005423,7,1
-0.000653347,-9.827335e-05,7,1
-0.0006535091,-0.0001079973,7,1
-0.0006133168,-0.000127283,7,1
-0.0005637249,-0.0001501342,7,1
-0.0005245051,-0.00016942,7,1
-0.0004901472,-0.0001783336,7,1
-0.0004342347,-0.0001747682,7,1
-0.0003369955,-0.0001579134,7,1
-0.0002037779,-0.0001290658,7,1
-5.419158e-05,-9.146661e-05,7,1
8.680524e-05,-5.386745e-05,7,1
0.0002120818,-2.777494e-05,7,1
0.0003172622,-1.886135e-05,7,1
0.0003940812,-2.226472e-05,7,1
0.0004399457,-2.809907e-05,7,1
0.0004555039,-3.069211e-05,7,1
0.0004402698,-3.425755e-05,7,1
0.0003989431,-4.835724e-05,7,1
0.000339141,-7.963584e-05,7,1
0.0002725321,-0.0001282554,7,1
0.0002122438,-0.000191623,7,1
0.0001731861,-0.0002583939,7,1
0.0001608691,-0.0003120375,7,1
0.0001624898,-0.0003413713,7,1
0.0001564933,-0.0003394265,7,1
0.0001213252,-0.0003087962,7,1
5.098881e-05,-0.0002596904,7,1
-3.814712e-05,-0.0002073433,7,1
-0.0001173971,-0.0001673132,7,1
-0.0001648822,-0.0001499722,7,1
-0.0001697442,-0.0001592099,7,1
-0.0001313347,-0.0001900023,7,1
-6.326724e-05,-0.0002269532,7,1
9.013889e-06,-0.000246401,7,1
6.071273e-05,-0.0002310048,7,1
7.30297e-05,-0.0001734716,7,1
3.964424e-05,-7.266703e-05,7,1
-2.404744e-05,7.594687e-05,7,1
-8.741498e-05,0.0002684805,7,1
-0.0001186936,0.0005013684,7,1
-9.2439e-05,0.0007716935,7,1
3.665733e-06,0.001080104,7,1
0.0001611932,0.001423683,7,1
0.000346596,0.001779255,7,1
0.0005041235,0.002090746,7,1
0.000589532,0.002289925,7,1
0.0005913147,0.002330118,7,1
0.0005394538,0.002213268,7,1
0.0004833792,0.001994479,7,1
0.0004634451,0.001748301,7,1
0.0004981271,0.001535184,7,1
0.0005760806,0.001383815,7,1
0.0006644063,0.001295165,7,1
0.0007279359,0.001250435,7,1
0.0007499768,0.001224505,7,1
0.0007274497,0.001197278,7,1
0.0006580857,0.001162271,7,1
0.000542209,0.001117379,7,1
0.0003903536,0.001057577,7,1
0.0002221298,0.0009770306,7,1
6.184718e-05,0.0008707156,7,1
-6.861539e-05,0.0007417115,7,1
-0.0001624512,0.0005879114,7,1
-0.0002212809,0.0004117463,7,1
-0.0002494803,0.0002227781,7,1
-0.0002519113,3.494434e-05,7,1
-0.0002350565,-0.0001366828,7,1
-0.0002092881,-0.0002804347,7,1
-0.0001862748,-0.0003929081,7,1
-0.0001849783,-0.0004766958,7,1
-0.0002123673,-0.0005399013,7,1
-0.0002551526,-0.0005917621,7,1
-0.000295993,-0.0006395715,7,1
-0.0003246786,-0.0006860842,7,1
-0.000340561,-0.0007269246,7,1
-0.0003485022,-0.0007578791,7,1
-0.0003583881,-0.0007795958,7,1
-0.0003861013,-0.0007902921,7,1
-0.0004355313,-0.000789968,7,1
-0.0004956574,-0.0007826751,7,1
-0.0005531906,-0.000772465,7,1
-0.0005946793,-0.0007624169,7,1
-0.000606348,-0.0007543136,7,1
-0.0005834968,-0.0007496137,7,1
-0.0005326084,-0.0007492896,7,1
-0.0004676201,-0.0007557723,7,1
-0.0003974459,-0.0007692237,7,1
-0.000328244,-0.0007881853,7,1
-0.0002626076,-0.0008068228,7,1
-0.000206695,-0.0008176812,7,1
-0.0001666649,-0.000812171,7,1
-0.0001426792,-0.0007915886,7,1
-0.0001279313,-0.0007640376,7,1
-0.0001092938,-0.0007389174,7,1
-7.704279e-05,-0.0007197938,7,1
-2.728874e-05,-0.0007016424,7,1
3.235129e-05,-0.0006789533,7,1
9.118101e-05,-0.0006481609,7,1
0.000130887,-0.0006099135,7,1
0.0001451488,-0.00056648,7,1
0.0001351007,-0.0005214258,7,1
0.0001013911,-0.0004802613,7,1
4.758544e-05,-0.0004437966,7,1
-6.706447e-06,-0.0004118697,7,1
-3.668853e-05,-0.0003856151,7,1
-2.42095e-05,-0.0003617915,7,1
3.251336e-05,-0.0003353749,7,1
0.0001195424,-0.0003019894,7,1
0.0002124059,-0.0002634179,7,1
0.0002832284,-0.0002172293,7,1
0.0003146691,-0.0001598582,7,1
0.0003081865,-9.19528e-05,7,1
0.0002799871,-1.643037e-05,7,1
0.0002487085,5.406805e-05,7,1
0.0002247229,0.0001081979,7,1
0.0002075439,0.0001363972,7,1
0.0001874478,0.0001344524,7,1
0.0001501728,0.0001093323,7,1
8.972242e-05,7.189524e-05,7,1
1.160693e-05,3.251336e-05,7,1
-7.218083e-05,9.106227e-07,7,1
-0.0001455964,-1.383732e-05,7,1
-0.0001972953,-6.382317e-06,7,1
-0.0002135018,1.760335e-05,7,1
-0.0001776853,4.953022e-05,7,1
-8.206682e-05,8.74535e-05,7,1
6.265751e-05,0.0001310491,7,1
0.000225047,0.0001845306,7,1
0.0003632887,0.0002443328,7,1
0.0004462662,0.0003034866,7,1
0.0004665244,0.000356644,7,1
0.0004373526,0.0003994293,7,1
0.0003746333,0.0004266563,7,1
0.0002829043,0.0004334631,7,1
0.0001637863,0.0004188772,7,1
2.797553e-05,0.0003846814,7,1
-0.000107349,0.0003232586,7,1
-0.0002180396,0.0002171058,7,1
-0.0002838381,6.265751e-05,7,1
-0.0003031239,-0.000119828,7,1
-0.000293562,-0.0002914552,7,1
-0.0002788141,-0.0004246728,7,1
-0.0002726556,-0.0005222362,7,1
-0.0002807589,-0.000601162,7,1
-0.0002982619,-0.0006778188,7,1
-0.0003193304,-0.0007588515,7,1
-0.0003391024,-0.0008483115,7,1
-0.0003541745,-0.0009466851,7,1
-0.0003528779,-0.001053162,7,1
-0.0003203028,-0.001169363,7,1
-0.0002527216,-0.001288805,7,1
-0.0001626133,-0.001391068,7,1
-6.893953e-05,-0.001444064,7,1
2.100672e-05,-0.001408895,7,1
0.0001081979,-0.001253799,7,1
0.0001966855,-0.0009692122,7,1
0.000282094,-0.0005622663,7,1
0.0003480546,-4.074016e-05,7,1
0.0003770643,0.0006036317,7,1
0.0003640991,0.001364853,7,1
0.0003180725,0.002192686,7,1
0.0002568118,0.002979031,7,1
0.0001966855,0.003587267,7,1
0.0001503349,0.003897139,7,1
0.0001299146,0.003855812,7,1
0.0001385041,0.003512554,7,1
0.0001668655,0.00299621,7,1
0.0001947408,0.002452478,7,1
0.0002007372,0.001987024,7,1
0.0001744826,0.001651548,7,1
0.0001197045,0.001454638,7,1
4.709924e-05,0.00137166,7,1
-2.550602e-05,0.001357236,7,1
-7.817725e-05,0.001359343,7,1
-9.697683e-05,0.001328065,7,1
-8.287715e-05,0.001232446,7,1
-5.240886e-05,0.001060818,7,1
-2.323711e-05,0.0008263097,7,1
-3.627206e-06,0.0005538776,7,1
2.855407e-06,0.0002777182,7,1
-1.196227e-06,2.667901e-05,7,1
-1.3027e-05,-0.0001828714,7,1
-2.84232e-05,-0.0003548227,7,1
-4.576419e-05,-0.0004987367,7,1
-6.002594e-05,-0.0006233649,7,1
-5.678463e-05,-0.0007295177,7,1
-2.566809e-05,-0.0008212466,7,1
2.619281e-05,-0.0009051964,7,1
7.059871e-05,-0.000983474,7,1
7.546067e-05,-0.001050893,7,1
2.554455e-05,-0.001102754,7,1
-6.359137e-05,-0.001134681,7,1
-0.0001630995,-0.001141812,7,1
-0.0002395943,-0.001121878,7,1
-0.0002692523,-0.001082334,7,1
-0.0002473734,-0.001033552,7,1
-0.0001844921,-0.0009802326,7,1
-0.0001005423,-0.000911517,7,1
-2.210265e-05,-0.0008042298,7,1
3.13789e-05,-0.0006491333,7,1
6.314371e-05,-0.0004656754,7,1
9.280167e-05,-0.0003015032,7,1
0.0001363972,-0.0002088019,7,1
0.0001968476,-0.0002063709,7,1
0.0002556773,-0.0002684419,7,1
0.0002783665,-0.0003499608,7,1
0.0002368777,-0.0004146248,7,1
0.0001351007,-0.0004405553,7,1
1.063454e-05,-0.0004233763,7,1
-8.141856e-05,-0.0003707051,7,1
-0.0001044318,-0.0002980999,7,1
-6.650855e-05,-0.0002147983,7,1
-3.789272e-06,-0.0001292278,7,1
5.957827e-05,-4.722278e-05,7,1
0.0001169494,2.586868e-05,7,1
0.0001691344,8.097089e-05,7,1
0.00021273,0.0001119254,7,1
0.0002397949,0.0001137081,7,1
0.0002490327,8.486046e-05,7,1
0.0002396328,2.927205e-05,7,1
0.0002140265,-4.284701e-05,7,1
0.0001743205,-0.0001177212,7,1
0.0001158149,-0.0001849783,7,1
3.429608e-05,-0.0002431597,7,1
-6.764301e-05,-0.0002942103,7,1
-0.0001818991,-0.0003423437,7,1
-0.0002966413,-0.0003890185,7,1
-0.0004023079,-0.0004321279,7,1
-0.000492092,-0.0004698891,7,1
-0.0005551354,-0.0005027883,7,1
-0.000589007,-0.0005301774,7,1
-0.0005919242,-0.0005551354,7,1
-0.0005497872,-0.0005818762,7,1
-0.0004540067,-0.000611048,7,1
-0.0003160891,-0.0006374646,7,1
-0.0001652063,-0.0006575607,7,1
-3.539201e-05,-0.0006705259,7,1
4.612685e-05,-0.0006821946,7,1
6.881599e-05,-0.0007000218,7,1
3.883391e-05,-0.0007241695,7,1
-2.680255e-05,-0.000742807,7,1
-0.0001114006,-0.0007410243,7,1
-0.0001956746,-0.0007137973,7,1
-0.0002585559,-0.0006598296,7,1
-0.0002893484,-0.0005856037,7,1
-0.0002930758,-0.0005024642,7,1
-0.000281083,-0.0004303451,7,1
-0.0002697385,-0.0003882082,7,1
-0.0002682799,-0.0003823738,7,1
-0.0002624455,-0.0004068457,7,1
-0.000224036,-0.0004426621,7,1
-0.0001329553,-0.0004726442,7,1
9.824215e-06,-0.0004927403,7,1
0.0001765894,-0.0005040849,7,1
0.0003294171,-0.0005113778,7,1
0.0004376768,-0.0005204534,7,1
0.0004935893,-0.0005358497,7,1
0.0005008822,-0.0005609698,7,1
0.0004683071,-0.0005917621,7,1
0.0004130428,-0.0006168823,7,1
0.0003628026,-0.0006189891,7,1
0.0003368721,-0.0005796073,7,1
0.0003433547,-0.0004932265,7,1
0.0003772264,-0.0003541745,7,1
0.0004224426,-0.0001652063,7,1
0.0004571246,6.735741e-05,7,1
0.0004673347,0.0003349273,7,1
0.0004514523,0.0006294001,7,1
0.0004120704,0.0009400796,7,1
0.0003576164,0.001249463,7,1
0.0002984626,0.001520761,7,1
0.0002464396,0.001705353,7,1
0.0002119197,0.001767587,7,1
0.0001997648,0.001709567,7,1
0.0002021958,0.001582832,7,1
0.0002055991,0.001453503,7,1
0.0001960373,0.001364529,7,1
0.0001702689,0.001319637,7,1
0.0001347766,0.001290952,7,1
9.814982e-05,0.001242494,7,1
6.914012e-05,0.001155951,7,1
5.19612e-05,0.001034726,7,1
4.82337e-05,0.0008977805,7,1
5.19612e-05,0.0007634282,7,1
5.325772e-05,0.0006457687,7,1
4.094075e-05,0.0005509604,7,1
8.041497e-06,0.0004802999,7,1
-4.268495e-05,0.0004326527,7,1
-9.811128e-05,0.0004065602,7,1
-0.0001430034,0.0003987811,7,1
-0.0001637477,0.0004073705,7,1
-0.0001454344,0.0004313562,7,1
-8.336335e-05,0.0004678209,7,1
1.720949e-06,0.0005084993,7,1
7.400208e-05,0.0005431813,7,1
9.717743e-05,0.0005610085,7,1
6.136099e-05,0.0005554983,7,1
-1.837515e-05,0.0005191956,7,1
-0.0001240417,0.0004499937,7,1
-0.0002535319,0.0003572923,7,1
-0.0003974459,0.000252274,7,1
-0.0005222362,0.0001479039,7,1
-0.0005820383,5.374392e-05,7,1
-0.0005512458,-2.566809e-05,7,1
-0.0004488206,-8.984595e-05,7,1
-0.0003275957,-0.0001355484,7,1
-0.0002459149,-0.0001645581,7,1
-0.0002326255,-0.0001810887,7,1
-0.0002831898,-0.0001922712,7,1
-0.0003622777,-0.0002045882,7,1
-0.0004190006,-0.0002185258,7,1
-0.0004079801,-0.0002319772,7,1
-0.0003188442,-0.0002436459,7,1
-0.0001830335,-0.0002519113,7,1
-4.641245e-05,-0.0002545043,7,1
5.649903e-05,-0.0002514251,7,1
0.0001101427,-0.0002519113,7,1
0.0001120874,-0.0002630937,7,1
7.546067e-05,-0.0002846485,7,1
1.614476e-05,-0.0003138202,7,1
-4.625038e-05,-0.0003507711,7,1
-9.260107e-05,-0.0003961493,7,1
-0.0001078352,-0.0004514136,7,1
-7.898758e-05,-0.0005164018,7,1
-4.923729e-06,-0.0005935449,7,1
9.555677e-05,-0.000680574,7,1
0.000192796,-0.0007747339,7,1
0.0002642668,-0.0008711627,7,1
0.0002950592,-0.0009677536,7,1
0.0002897111,-0.001063696,7,1
0.0002652392,-0.001150401,7,1
0.00024255,-0.001225762,7,1
0.0002341226,-0.001291236,7,1
0.0002482223,-0.001347148,7,1
0.0002859836,-0.001389934,7,1
0.000331686,-0.001409706,7,1
0.0003576164,-0.001390906,7,1
0.0003362238,-0.001326566,7,1
0.000250005,-0.001221062,7,1
0.0001020394,-0.001081199,7,1
-8.303922e-05,-0.0009123273,7,1
-0.0002689281,-0.0007160662,7,1
-0.0004170558,-0.0004724821,7,1
-0.0005084606,-0.0001532135,7,1
-0.0005457356,0.0002532463,7,1
-0.0005407116,0.0007136742,7,1
-0.0004924161,0.001159516,7,1
-0.0003964735,0.001522543,7,1
-0.0002519113,0.001786224,7,1
-6.796714e-05,0.001996099,7,1
0.0001265113,0.002216509,7,1
0.0002880904,0.002475815,7,1
0.0003867882,0.002747276,7,1
0.0004157979,0.002954883,7,1
0.0003895433,0.003010147,7,1
0.000329255,0.002862181,7,1
0.0002615117,0.002531242,7,1
0.0002046267,0.002089612,7,1
0.0001686482,0.001624807,7,1
0.0001521176,0.001206839,7,1
0.0001441764,0.0008684467,7,1
0.0001339663,0.000606711,7,1
0.0001151667,0.0004039671,7,1
9.26396e-05,0.0002428742,7,1
7.027458e-05,0.0001103047,7,1
4.661304e-05,-2.168618e-06,7,1
1.679302e-05,-9.681477e-05,7,1
-2.242678e-05,-0.0001707166,7,1
-6.748094e-05,-0.0002180396,7,1
-0.0001083214,-0.0002370013,7,1
-0.0001327933,-0.0002316531,7,1
-0.0001381414,-0.0002209568,7,1
-0.0001324691,-0.0002254946,7,1
-0.0001295519,-0.0002603387,7,1
-0.0001392759,-0.0003248407,7,1
-0.0001590478,-0.0004057112,7,1
-0.0001822232,-0.000489499,7,1
-0.0002073433,-0.0005692351,7,1
-0.0002254946,-0.0006465403,7,1
-0.0002272773,-0.0007231971,7,1
-0.000216419,-0.0007945059,7,1
-0.0002097743,-0.0008539838,7,1
-0.0002211189,-0.0009004966,7,1
-0.000246401,-0.0009303166,7,1
-0.0002673075,-0.0009478196,7,1
-0.0002674695,-0.0009565711,7,1
-0.0002405667,-0.0009606228,7,1
-0.0001938919,-0.0009611089,7,1
-0.0001405724,-0.0009614331,7,1
-9.017008e-05,-0.0009671054,7,1
-4.706071e-05,-0.0009841222,7,1
-1.545797e-05,-0.00100746,7,1
8.041497e-06,-0.001022046,7,1
3.55926e-05,-0.001013618,7,1
7.805372e-05,-0.0009727777,7,1
0.0001331559,-0.0008935277,7,1
0.0001905271,-0.0007758683,7,1
0.000244981,-0.0006306578,7,1
0.0003031625,-0.0004865818,7,1
0.0003741471,-0.0003835083,7,1
0.0004499937,-0.0003507711,7,1
0.0005120648,-0.0003956632,7,1
0.000537347,-0.0004976023,7,1
0.0005072028,-0.0006197995,7,1
0.0004214702,-0.0007217386,7,1
0.0002955454,-0.00077522,7,1
0.0001560072,-0.0007703581,7,1
2.862379e-05,-0.0007086112,7,1
-6.845333e-05,-0.0005992171,7,1
-0.0001303623,-0.000444769,7,1
-0.0001611547,-0.0002444563,7,1
-0.0001705545,5.934648e-06,7,1
-0.0001635857,0.0003051073,7,1
-0.0001447861,0.0006222692,7,1
-0.0001208004,0.0008992391,7,1
-0.0001020008,0.00107897,7,1
-8.790117e-05,0.001129048,7,1
-7.201877e-05,0.001056443,7,1
-5.532604e-05,0.0009026425,7,1
-4.47918e-05,0.000720805,7,1
-4.090223e-05,0.0005529052,7,1
-3.247483e-05,0.0004208219,7,1
-5.247859e-06,0.0003297412,7,1
3.526847e-05,0.0002712356,7,1
6.995045e-05,0.000237526,7,1
7.967438e-05,0.000225047,7,1
5.309566e-05,0.0002287745,7,1
-4.437533e-06,0.0002409294,7,1
-7.18567e-05,0.0002511395,7,1
-0.0001204763,0.0002493568,7,1
-0.0001276072,0.0002394708,7,1
-7.493595e-05,0.0002295848,7,1
3.267542e-05,0.0002235884,7,1
0.000170593,0.0002125679,7,1
0.0003023522,0.0001876099,7,1
0.0003916502,0.0001448246,7,1
0.0004169324,9.020862e-05,7,1
0.000373823,3.364782e-05,7,1
0.000279663,-1.578211e-05,7,1
0.0001650828,-5.32192e-05,7,1
6.152305e-05,-7.315322e-05,7,1
-7.192643e-06,-7.412562e-05,7,1
-3.344723e-05,-6.261898e-05,7,1
-3.134038e-05,-4.722278e-05,7,1
-2.712668e-05,-3.377136e-05,7,1
-4.38194e-05,-2.84232e-05,7,1
-9.146661e-05,-3.26369e-05,7,1
-0.0001695821,-4.592625e-05,7,1
-0.0002609869,-5.889148e-05,7,1
-0.0003274337,-6.780507e-05,7,1
-0.0003322956,-7.412562e-05,7,1
-0.0002650386,-7.979791e-05,7,1
-0.0001449482,-8.239095e-05,7,1
-1.383732e-05,-8.125649e-05,7,1
9.231547e-05,-7.477388e-05,7,1
0.0001620036,-6.618442e-05,7,1
0.0001981441,-5.905355e-05,7,1
0.0002054371,-5.451572e-05,7,1
0.000187772,-5.143648e-05,7,1
0.0001602208,-4.560212e-05,7,1
0.0001467694,-3.895745e-05,7,1
0.0001608691,-3.409549e-05,7,1
0.0001869616,-3.036798e-05,7,1
0.0001950649,-2.696461e-05,7,1
0.0001586002,-2.453363e-05,7,1
7.805372e-05,-2.550602e-05,7,1
-2.453363e-05,-3.069211e-05,7,1
-0.0001183694,-4.138842e-05,7,1
-0.0001823853,-5.532604e-05,7,1
-0.0002084778,-6.699475e-05,7,1
-0.0002028055,-7.428769e-05,7,1
-0.0001780095,-7.590833e-05,7,1
-0.0001457585,-6.829127e-05,7,1
-0.0001167488,-4.754691e-05,7,1
-0.0001078352,-1.610624e-05,7,1
-0.0001225832,1.857574e-05,7,1
-0.0001562927,4.45062e-05,7,1
-0.0002049123,5.244739e-05,7,1
-0.0002702246,4.094075e-05,7,1
-0.0003481781,1.906194e-05,7,1
-0.0004238625,-5.734056e-06,7,1
-0.0004687546,-3.539201e-05,7,1
-0.0004603272,-6.991193e-05,7,1
-0.0003893426,-0.0001070249,7,1
-0.0002708729,-0.000147055,7,1
-0.0001400862,-0.0001911368,7,1
-3.21507e-05,-0.0002373254,7,1
3.640293e-05,-0.0002849726,7,1
6.962632e-05,-0.0003340784,7,1
8.437427e-05,-0.0003857772,7,1
9.588091e-05,-0.0004378002,7,1
0.0001073875,-0.0004854474,7,1
0.0001101427,-0.0005269361,7,1
9.652917e-05,-0.0005601594,7,1
6.735741e-05,-0.0005771763,7,1
3.299956e-05,-0.0005719902,7,1
-6.176923e-08,-0.0005421702,7,1
-2.826114e-05,-0.0004933886,7,1
-5.095028e-05,-0.0004327761,7,1
-5.921561e-05,-0.0003635742,7,1
-4.43056e-05,-0.0002857829,7,1
-4.437533e-06,-0.000191623,7,1
5.730935e-05,-7.380149e-05,7,1
0.0001242423,7.416415e-05,7,1
0.0001775618,0.0002495189,7,1
0.0002018716,0.000433301,7,1
0.0001926339,0.0005979594,7,1
0.0001626518,0.000723074,7,1
0.0001347766,0.0008058894,7,1
0.0001253768,0.000859533,7,1
0.0001360731,0.0009089631,7,1
0.0001574657,0.0009854579,7,1
0.0001775618,0.001101011,7,1
0.0001902029,0.00124298,7,1
0.0001983062,0.001380898,7,1
0.0002072198,0.001483324,7,1
0.0002167816,0.001527081,7,1
0.0002235884,0.001498234,7,1
0.0002179161,0.001398887,7,1
0.0001970097,0.001248977,7,1
0.0001633001,0.001074432,7,1
0.0001229458,0.0008994011,7,1
8.307774e-05,0.0007353909,7,1
5.601284e-05,0.000589532,7,1
5.293359e-05,0.0004632831,7,1
7.335383e-05,0.0003542131,7,1
0.0001043083,0.0002566497,7,1
0.0001328318,0.0001673517,7,1
0.0001529279,8.097089e-05,7,1
0.0001634622,3.017472e-06,7,1
0.0001662173,-6.261898e-05,7,1
0.0001623277,-0.0001143178,7,1
0.000150659,-0.00015451,7,1
0.0001321835,-0.0001831956,7,1
0.0001056048,-0.000199078,7,1
7.043665e-05,-0.0002058847,7,1
2.797553e-05,-0.0002130156,7,1
-2.015787e-05,-0.0002246843,7,1
-7.623246e-05,-0.0002433218,7,1
-0.0001514308,-0.0002697385,7,1
-0.0002489941,-0.0002990722,7,1
-0.0003497987,-0.0003224097,7,1
-0.0004261314,-0.0003363473,7,1
-0.0004640547,-0.0003407231,7,1
-0.0004676201,-0.0003350507,7,1
-0.0004454172,-0.0003303509,7,1
-0.0004089525,-0.0003413713,7,1
-0.0003650328,-0.0003796187,7,1
-0.0003096065,-0.000444769,7,1
-0.0002360289,-0.0005225603,7,1
-0.0001571031,-0.0005907898,7,1
-0.0001037836,-0.0006342233,7,1
-0.0001071869,-0.0006510781,7,1
-0.0001827094,-0.0006502678,7,1
-0.0003037722,-0.0006423265,7,1
-0.0004177041,-0.0006326026,7,1
-0.0004682684,-0.0006197995,7,1
-0.0004322899,-0.0005998655,7,1
-0.0003246786,-0.0005690731,7,1
-0.0001880575,-0.0005277464,7,1
-7.363943e-05,-0.0004776682,7,1
-9.947754e-06,-0.0004215936,7,1
8.203562e-06,-0.0003645466,7,1
2.04508e-06,-0.0003087962,7,1
-3.951337e-06,-0.0002478596,7,1
4.313994e-06,-0.0001733096,7,1
3.235129e-05,-7.526008e-05,7,1
7.853991e-05,5.844381e-05,7,1
0.000135749,0.0002242366,7,1
0.0001973338,0.0004078567,7,1
0.0002632944,0.0005854804,7,1
0.0003237448,0.0007303669,7,1
0.0003683128,0.0008217718,7,1
0.0003973225,0.0008452713,7,1
0.0004261701,0.0007929241,7,1
0.0004678209,0.0006682958,7,1
0.0005200059,0.0004950479,7,1
0.0005640878,0.0003083486,7,1
0.0005760806,0.000143204,7,1
0.000542371,2.165498e-05,7,1
0.0004644175,-5.062615e-05,7,1
0.0003579406,-8.206682e-05,7,1
0.0002443328,-8.790117e-05,7,1
0.0001483901,-8.206682e-05,7,1
8.599492e-05,-7.088431e-05,7,1
5.309566e-05,-6.0188e-05,7,1
3.316162e-05,-5.548811e-05,7,1
1.193106e-05,-5.872941e-05,7,1
-2.226472e-05,-6.780507e-05,7,1
-7.039812e-05,-7.866345e-05,7,1
-0.0001238797,-8.854943e-05,7,1
-0.0001642339,-9.551824e-05,7,1
-0.0001621271,-9.924574e-05,7,1
-0.0001015147,-0.0001032974,7,1
4.244267e-07,-0.0001094559,7,1
0.0001043083,-0.0001156143,7,1
0.0001722137,-0.0001188556,7,1
0.0001923098,-0.0001214487,7,1
0.0001699448,-0.0001261486,7,1
0.000120839,-0.0001340898,7,1
6.654708e-05,-0.0001415448,7,1
2.894792e-05,-0.0001483515,7,1
2.76514e-05,-0.0001572651,7,1
7.30297e-05,-0.000171851,7,1
0.0001480659,-0.000191785,7,1
0.0002203471,-0.0002172293,7,1
0.0002632944,-0.0002451045,7,1
0.0002649151,-0.0002697385,7,1
0.0002292607,-0.0002865932,7,1
0.000168,-0.0002924276,7,1
9.912221e-05,-0.0002895104,7,1
4.385793e-05,-0.0002796244,7,1
1.808955e-05,-0.0002720074,7,1
2.376183e-05,-0.0002742763,7,1
4.742337e-05,-0.0002882139,7,1
7.286763e-05,-0.000313334,7,1
8.712937e-05,-0.0003512573,7,1
8.016057e-05,-0.0003966356,7,1
4.72613e-05,-0.0004355313,7,1
-7.516774e-06,-0.0004593548,7,1
-7.347736e-05,-0.00046211,7,1
-0.0001360346,-0.0004446069,7,1
-0.0001898403,-0.0004108973,7,1
-0.0002368392,-0.0003685983,7,1
-0.0002833519,-0.0003308371,7,1
-0.0003314853,-0.0003036101,7,1
-0.0003689224,-0.000281083,7,1
-0.0003839945,-0.000248832,7,1
-0.0003791325,-0.0001994021,7,1
-0.000365357,-0.000137007,7,1
-0.0003523917,-6.91016e-05,7,1
-0.0003378059,2.693341e-06,7,1
-0.0003165753,8.275361e-05,7,1
-0.0002878898,0.0001859892,7,1
-0.0002592042,0.0003362238,7,1
-0.0002417012,0.0005506363,7,1
-0.000241377,0.0008186926,7,1
-0.000258718,0.001090152,7,1
-0.0002869174,0.001293059,7,1
-0.0003168994,0.001365664,7,1
-0.0003361852,0.001287386,7,1
-0.0003379679,0.001092745,7,1
-0.0003194925,0.0008459196,7,1
-0.0002880518,0.0006133557,7,1
-0.0002519113,0.0004394595,7,1
-0.0002225774,0.0003380065,7,1
-0.000206533,0.0002973281,7,1
-0.0001927574,0.0002963557,7,1
-0.0001571031,0.0003085106,7,1
-8.384954e-05,0.0003067279,7,1
2.165498e-05,0.0002705873,7,1
0.0001334801,0.000192796,7,1
0.0002227781,7.90261e-05,7,1
0.0002752873,-5.2733e-05,7,1
0.0002939248,-0.0001820611,7,1
0.0002905214,-0.0002956689,7,1
0.0002694529,-0.0003937184,7,1
0.0002303951,-0.0004963057,7,1
0.0001743205,-0.0006279027,7,1
0.000113384,-0.0007889956,7,1
7.076078e-05,-0.0009539781,7,1
6.735741e-05,-0.001090437,7,1
0.000111115,-0.001178114,7,1
0.0001900409,-0.001210689,7,1
0.0002778803,-0.001198535,7,1
0.0003491891,-0.001154939,7,1
0.0003853296,-0.001094651,7,1
0.000376416,-0.001027556,7,1
0.0003279585,-0.0009478196,7,1
0.0002568118,-0.0008319429,7,1
0.000178048,-0.0006491333,7,1
9.426025e-05,-0.0003817256,7,1
6.582909e-06,-4.560212e-05,7,1
-7.736692e-05,0.0003089969,7,1
-0.0001415448,0.0006196762,7,1
-0.0001684476,0.0008480264,7,1
-0.0001491618,0.00100134,7,1
-9.19528e-05,0.001134882,7,1
-1.383732e-05,0.001320285,7,1
7.043665e-05,0.00159839,7,1
0.0001449867,0.001947156,7,1
0.000195227,0.002287494,7,1
0.0002072198,0.002517628,7,1
0.0001736723,0.00255231,7,1
0.0001018773,0.002362693,7,1
1.419998e-05,0.001993831,7,1
-6.083626e-05,0.001537615,7,1
-0.0001036215,0.001096635,7,1
-0.0001146419,0.0007447907,7,1
-0.0001070249,0.0005115786,7,1
-9.649064e-05,0.0003848434,7,1
-8.692878e-05,0.0003248792,7,1
-7.493595e-05,0.0002848491,7,1
-5.937768e-05,0.0002321778,7,1
-4.365734e-05,0.0001540623,7,1
-3.053005e-05,5.682316e-05,7,1
-2.031993e-05,-4.236082e-05,7,1
-6.868513e-06,-0.0001323071,7,1
9.338019e-06,-0.000209126,7,1
2.311357e-05,-0.0002788141,7,1
2.165498e-05,-0.0003475298,7,1
-2.238346e-07,-0.0004159214,7,1
-3.976777e-05,-0.0004792889,7,1
-8.903562e-05,-0.0005340669,7,1
-0.0001313347,-0.0005805797,7,1
-0.00015451,-0.0006233649,7,1
-0.0001575893,-0.000665826,7,1
-0.0001436516,-0.0007043975,7,1
-0.0001248521,-0.0007322728,7,1
-0.0001199901,-0.0007445897,7,1
-0.000151917,-0.0007457242,7,1
-0.0002280877,-0.0007458862,7,1
-0.0003288923,-0.0007481552,7,1
-0.0004065215,-0.0007525309,7,1
-0.0004034423,-0.0007596618,7,1
-0.0002911311,-0.0007710064,7,1
-0.0001008664,-0.0007927231,7,1
8.891209e-05,-0.0008335636,7,1
0.0001996027,-0.0009001724,7,1
0.0002039785,-0.0009870394,7,1
0.000135749,-0.001082658,7,1
5.179914e-05,-0.001164339,7,1
-8.651231e-06,-0.001218469,7,1
-3.26369e-05,-0.001233217,7,1
-2.728874e-05,-0.001209717,7,1
-6.868513e-06,-0.001155587,7,1
1.873781e-05,-0.001072124,7,1
4.369587e-05,-0.0009525195,7,1
6.249545e-05,-0.0007941817,7,1
6.638502e-05,-0.0006107238,7,1
5.244739e-05,-0.0004331002,7,1
2.149292e-05,-0.0003013411,7,1
-1.967167e-05,-0.0002455907,7,1
-5.500191e-05,-0.0002648765,7,1
-7.428769e-05,-0.0003253268,7,1
-7.704279e-05,-0.0003835083,7,1
-6.731888e-05,-0.0004083043,7,1
-4.560212e-05,-0.0003841565,7,1
-1.707863e-05,-0.0003070135,7,1
1.744129e-05,-0.0001893541,7,1
5.179914e-05,-4.738484e-05,7,1
8.923623e-05,9.798775e-05,7,1
0.0001399627,0.0002331503,7,1
0.0002068957,0.0003579406,7,1
0.0002788527,0.0004875929,7,1
0.0003407616,0.0006279415,7,1
0.0003866261,0.0007747728,7,1
0.0004128807,0.0009099355,7,1
0.0004204978,0.001017061,7,1
0.0004096394,0.001078321,7,1
0.0003783608,0.001077511,7,1
0.0003266619,0.001011875,7,1
0.0002611876,0.0008870842,7,1
0.0001979821,0.0007217774,7,1
0.000148228,0.0005433434,7,1
0.0001185701,0.0003835469,7,1
0.0001056048,0.0002615117,7,1
0.0001047945,0.0001809652,7,1
0.0001098185,0.0001325077,7,1
0.0001098185,0.0001078737,7,1
9.68533e-05,9.798775e-05,7,1
6.962632e-05,9.766362e-05,7,1
3.024445e-05,0.0001081979,7,1
-1.529591e-05,0.0001355869,7,1
-6.326724e-05,0.0001863134,7,1
-0.0001088076,0.0002654013,7,1
-0.0001418689,0.0003691231,7,1
-0.0001465688,0.0004895377,7,1
-0.0001105903,0.0006153004,7,1
-3.393342e-05,0.0007324737,7,1
7.108491e-05,0.0008290648,7,1
0.0001793446,0.0008966461,7,1
0.0002657254,0.0009314902,7,1
0.0003107795,0.0009310039,7,1
0.0003049452,0.0008966461,7,1
0.0002525981,0.0008329543,7,1
0.0001676758,0.0007460872,7,1
6.719535e-05,0.0006405826,7,1
-3.587821e-05,0.0005271368,7,1
-0.0001287416,0.0004167703,7,1
-0.0002003745,0.0003159656,7,1
-0.0002444563,0.0002253711,7,1
-0.0002627696,0.0001495245,7,1
-0.0002603387,8.615699e-05,7,1
-0.0002480217,3.008238e-05,7,1
-0.0002412149,-2.631635e-05,7,1
-0.000251263,-8.579432e-05,7,1
-0.0002791382,-0.0001451102,7,1
-0.0003110651,-0.0002024813,7,1
-0.0003293785,-0.0002533699,7,1
-0.0003303509,-0.0002956689,7,1
-0.0003224097,-0.0003253268,7,1
-0.0003160891,-0.0003483401,7,1
-0.0003160891,-0.0003700569,7,1
-0.0003078238,-0.0003967976,7,1
-0.0002668213,-0.0004253211,7,1
-0.0001818991,-0.0004514136,7,1
-6.780507e-05,-0.000472158,7,1
4.061663e-05,-0.0004865818,7,1
0.0001096565,-0.0004964678,7,1
0.0001252147,-0.0005084606,7,1
9.831188e-05,-0.0005222362,7,1
5.714729e-05,-0.0005334187,7,1
2.716521e-05,-0.0005387668,7,1
1.014835e-05,-0.0005363359,7,1
-1.010982e-05,-0.0005230465,7,1
-4.835724e-05,-0.0004951713,7,1
-9.892161e-05,-0.0004540067,7,1
-0.0001399241,-0.0004047388,7,1
-0.0001512687,-0.0003525538,7,1
-0.0001263107,-0.0003003688,7,1
-7.493595e-05,-0.0002444563,7,1
-5.734056e-06,-0.0001825473,7,1
7.367795e-05,-0.0001169109,7,1
0.0001537382,-5.192267e-05,7,1
0.0002240746,2.693341e-06,7,1
0.0002738286,3.494434e-05,7,1
0.0002983005,3.93201e-05,7,1
0.0002992729,1.54965e-05,7,1
0.0002856594,-2.518189e-05,7,1
0.0002696149,-6.650855e-05,7,1
0.0002616738,-9.519411e-05,7,1
0.0002637806,-0.0001062146,7,1
0.0002676702,-9.956988e-05,7,1
0.0002610255,-8.352541e-05,7,1
0.0002360674,-6.780507e-05,7,1
0.0001932822,-5.727083e-05,7,1
0.0001414213,-5.176061e-05,7,1
9.426025e-05,-4.689865e-05,7,1
6.41161e-05,-4.05781e-05,7,1
5.487838e-05,-3.409549e-05,7,1
5.909208e-05,-2.550602e-05,7,1
7.076078e-05,-1.286493e-05,7,1
8.226741e-05,7.485573e-07,7,1
8.826383e-05,1.322759e-05,7,1
8.956036e-05,2.81376e-05,7,1
8.972242e-05,4.807163e-05,7,1
8.907416e-05,7.367795e-05,7,1
8.583286e-05,0.0001033359,7,1
7.351589e-05,0.0001341283,7,1
4.239934e-05,0.0001615174,7,1
-1.383732e-05,0.0001824238,7,1
-8.530812e-05,0.0001932822,7,1
-0.0001483515,0.0001916615,7,1
-0.0001820611,0.0001811273,7,1
-0.0001797922,0.0001665414,7,1
-0.0001515928,0.0001517934,7,1
-0.0001209625,0.0001354248,7,1
-0.0001078352,0.0001153287,7,1
-0.0001224211,9.231547e-05,7,1
-0.0001553203,7.400208e-05,7,1
-0.0001914609,6.622294e-05,7,1
-0.0002217671,6.78436e-05,7,1
-0.0002381357,7.124698e-05,7,1
-0.0002266291,6.087479e-05,7,1
-0.0001755785,2.489629e-05,7,1
-9.405965e-05,-3.393342e-05,7,1
1.072688e-06,-9.973194e-05,7,1
8.810177e-05,-0.0001556445,7,1
0.0001493625,-0.0001895161,7,1
0.000170593,-0.0001972953,7,1
0.0001459591,-0.0001862748,7,1
8.405014e-05,-0.0001715269,7,1
5.448452e-06,-0.0001606685,7,1
-6.731888e-05,-0.0001564548,7,1
-0.0001185315,-0.0001618029,7,1
-0.0001441378,-0.0001765509,7,1
-0.0001507825,-0.0001984297,7,1
-0.0001455964,-0.0002232257,7,1
-0.0001318209,-0.0002417012,7,1
-0.0001126972,-0.0002392702,7,1
-9.19528e-05,-0.0002036158,7,1
-8.060823e-05,-0.0001349001,7,1
-9.130454e-05,-3.944364e-05,7,1
-0.0001289037,7.90261e-05,7,1
-0.0001861127,0.0002248849,7,1
-0.000248832,0.0004098015,7,1
-0.0003097686,0.0006422033,7,1
-0.0003660052,0.0009099355,7,1
-0.0004152731,0.00116373,7,1
-0.0004397449,0.001332278,7,1
-0.0004206212,0.001357561,7,1
-0.0003473677,0.001229042,7,1
-0.0002342462,0.0009875648,7,1
-0.0001105903,0.0006990883,7,1
-6.706447e-06,0.0004307079,7,1
5.860588e-05,0.0002273159,7,1
8.323981e-05,0.0001038221,7,1
9.004655e-05,5.034055e-05,7,1
0.0001143563,4.207521e-05,7,1
0.0001736723,5.601284e-05,7,1
0.0002521119,8.113296e-05,7,1
0.0003164518,0.0001106288,7,1
0.0003287688,0.0001406109,7,1
0.0002681563,0.0001639484,7,1
0.0001389903,0.0001798307,7,1
-2.84232e-05,0.0001866375,7,1
-0.0001953505,0.0001859892,7,1
-0.0003156029,0.0001824238,7,1
-0.0003470436,0.0001795066,7,1
-0.0002715212,0.0001761032,7,1
-0.0001041077,0.0001692965,7,1
0.0001096565,0.0001543865,7,1
0.0003127243,0.0001286181,7,1
0.0004595556,8.79397e-05,7,1
0.0005290816,3.397195e-05,7,1
0.0005276231,-2.761287e-05,7,1
0.0004770586,-8.725291e-05,7,1
0.000403643,-0.0001358725,7,1
0.0003310377,-0.00016942,7,1
0.0002812837,-0.0001924333,7,1
0.0002701012,-0.0002131776,7,1
0.0002958695,-0.0002348944,7,1
0.0003370341,-0.0002559629,7,1
0.0003576164,-0.0002749245,7,1
0.0003358997,-0.0002906449,7,1
0.0002793389,-0.0003021515,7,1
0.0002078681,-0.0003053928,7,1
0.0001391524,-0.0003013411,7,1
7.886404e-05,-0.0002946965,7,1
2.603075e-05,-0.0002924276,7,1
-1.691656e-05,-0.0002942103,7,1
-4.349527e-05,-0.0002956689,7,1
-4.819517e-05,-0.0002946965,7,1
-2.988179e-05,-0.0002908069,7,1
7.485573e-07,-0.0002846485,7,1
2.052053e-05,-0.0002823795,7,1
1.241726e-05,-0.000283514,7,1
-2.0482e-05,-0.0002872415,7,1
-6.245691e-05,-0.0002917793,7,1
-9.519411e-05,-0.0002924276,7,1
-0.0001146419,-0.0002880518,7,1
-0.0001302002,-0.0002789762,7,1
-0.0001478653,-0.000271197,7,1
-0.0001562927,-0.0002676316,7,1
-0.0001352242,-0.000266011,7,1
-7.039812e-05,-0.0002627696,7,1
2.862379e-05,-0.0002522354,7,1
0.000130887,-0.0002352185,7,1
0.0001961994,-0.000216581,7,1
0.000200251,-0.0001995642,7,1
0.0001438522,-0.0001864369,7,1
4.385793e-05,-0.0001778474,7,1
-7.120844e-05,-0.000174444,7,1
-0.0001759026,-0.0001724993,7,1
-0.0002535319,-0.000176713,7,1
-0.0002971275,-0.0001890299,7,1
-0.0003050687,-0.0002055606,7,1
-0.0002867553,-0.0002209568,7,1
-0.0002585559,-0.0002305186,7,1
-0.0002326255,-0.0002290601,7,1
-0.0002112329,-0.0002156086,7,1
-0.0001956746,-0.0001909747,7,1
-0.0001875713,-0.0001561307,7,1
-0.000189192,-0.0001177212,7,1
-0.0002008607,-8.417367e-05,7,1
-0.0002180396,-6.618442e-05,7,1
-0.0002395943,-6.780507e-05,7,1
-0.0002650386,-8.530812e-05,7,1
-0.0002896725,-0.00010978,7,1
-0.0003031239,-0.0001302002,7,1
-0.0002940482,-0.0001400862,7,1
-0.0002545043,-0.0001334415,7,1
-0.0001893541,-0.0001110765,7,1
-0.0001183694,-8.060823e-05,7,1
-6.132246e-05,-4.738484e-05,7,1
-1.707863e-05,-1.043395e-05,7,1
2.457216e-05,2.76514e-05,7,1
6.606088e-05,5.325772e-05,7,1
9.474644e-05,5.666109e-05,7,1
0.0001047945,3.818565e-05,7,1
9.782569e-05,3.341602e-06,7,1
7.286763e-05,-3.668853e-05,7,1
3.073064e-05,-7.590833e-05,7,1
-2.631635e-05,-0.0001154523,7,1
-8.514606e-05,-0.00015451,7,1
-0.0001237176,-0.0001901644,7,1
-0.0001245279,-0.0002251705,7,1
-8.433573e-05,-0.0002647144,7,1
-9.299493e-06,-0.0003040963,7,1
9.442231e-05,-0.0003344025,7,1
0.0002164575,-0.0003499608,7,1
0.0003397893,-0.0003486642,7,1
0.000440756,-0.0003259751,7,1
0.0004942376,-0.0002912931,7,1
0.0004875929,-0.0002585559,7,1
0.000428439,-0.0002434839,7,1
0.0003388169,-0.000253694,7,1
0.0002446569,-0.0002891863,7,1
0.0001654069,-0.0003436402,7,1
0.0001086841,-0.0004060354,7,1
7.935024e-05,-0.0004531963,7,1
