EMG1,EMG2,class,user
-7.55842e-05,6.476436e-05,7,1
-1.367526e-05,1.54965e-05,7,1
3.121684e-05,-1.756482e-05,7,1
3.964424e-05,-3.377136e-05,7,1
6.90704e-06,-3.409549e-05,7,1
-5.32192e-05,-2.258885e-05,7,1
-0.0001104282,-6.868513e-06,7,1
-0.0001358725,9.986281e-06,7,1
-0.0001225832,2.359977e-05,7,1
-8.271508e-05,2.894792e-05,7,1
-3.198864e-05,1.776542e-05,7,1
1.22552e-05,-1.886135e-05,7,1
3.818565e-05,-8.854943e-05,7,1
3.915804e-05,-0.0001864369,7,1
2.359977e-05,-0.0002950206,7,1
8.527692e-06,-0.0003950149,7,1
1.234753e-06,-0.0004737787,7,1
-3.951337e-06,-0.000529205,7,1
-2.372331e-05,-0.0005663179,7,1
-6.91016e-05,-0.0005911139,7,1
-0.0001253383,-0.0006159099,7,1
-0.0001656925,-0.0006541573,7,1
-0.0001611547,-0.0007047217,7,1
-0.0001000561,-0.0007499378,7,1
7.069105e-06,-0.0007684134,7,1
0.0001227837,-0.0007492896,7,1
0.0002145127,-0.0006932151,7,1
0.0002807975,-0.0006089411,7,1
0.0003459477,-0.0005087847,7,1
0.000428439,-0.0004037664,7,1
0.0005182233,-0.0002998826,7,1
0.0005789978,-0.0002003745,7,1
0.000579646,-0.0001041077,7,1
0.0005122268,-7.678839e-06,7,1
0.0004033189,9.280167e-05,7,1
0.0003010556,0.0001932822,7,1
0.0002430362,0.0002887387,7,1
0.0002329882,0.000373823,7,1
0.0002459534,0.000438325,7,1
0.0002464396,0.0004764104,7,1
0.0002179161,0.0004862963,7,1
0.0001701068,0.0004683071,7,1
0.0001187321,0.0004253598,7,1
6.233338e-05,0.0003634508,7,1
-5.247859e-06,0.0002851732,7,1
-8.547019e-05,0.0001936063,7,1
-0.0001648822,9.247754e-05,7,1
-0.0002287359,-9.785688e-06,7,1
-0.0002640662,-0.0001021629,7,1
-0.0002681178,-0.0001750923,7,1
-0.0002603387,-0.0002253326,7,1
-0.0002639041,-0.0002556388,7,1
-0.000293562,-0.0002708729,7,1
-0.0003452609,-0.00027849,7,1
-0.0004021458,-0.0002862691,7,1
-0.0004439586,-0.0002980999,7,1
-0.0004530343,-0.0003134961,7,1
-0.0004194868,-0.0003318095,7,1
-0.0003447747,-0.0003441264,7,1
-0.0002360289,-0.0003441264,7,1
-0.0001044318,-0.0003311612,7,1
3.267542e-05,-0.0003123616,7,1
0.0001495245,-0.0002989102,7,1
0.0002219677,-0.0002987481,7,1
0.0002388225,-0.0003146305,7,1
0.0002154851,-0.0003371576,7,1
0.0001801549,-0.000358064,7,1
0.0001560072,-0.0003747568,7,1
0.0001464453,-0.0003893426,7,1
0.0001376938,-0.0004019837,7,1
0.0001175977,-0.0004092767,7,1
8.939829e-05,-0.0004086284,7,1
6.962632e-05,-0.000400201,7,1
6.622294e-05,-0.0003867496,7,1
7.108491e-05,-0.0003684362,7,1
6.962632e-05,-0.0003478539,7,1
5.779555e-05,-0.0003262992,7,1
3.98063e-05,-0.0003050687,7,1
2.441009e-05,-0.0002844864,7,1
1.468618e-05,-0.0002630937,7,1
1.9224e-05,-0.0002399184,7,1
4.045456e-05,-0.0002169052,7,1
7.076078e-05,-0.0001958367,7,1
9.523264e-05,-0.0001770371,7,1
9.993253e-05,-0.0001609926,7,1
7.983644e-05,-0.0001441378,7,1
3.867184e-05,-0.000122259,7,1
-1.480971e-05,-9.29252e-05,7,1
-6.48879e-05,-5.662256e-05,7,1
-9.730096e-05,-1.886135e-05,7,1
-0.0001058904,1.54965e-05,7,1
-9.2439e-05,4.499239e-05,7,1
-6.132246e-05,6.881599e-05,7,1
-1.513384e-05,8.210535e-05,7,1
4.158902e-05,8.242948e-05,7,1
9.68533e-05,7.400208e-05,7,1
0.0001305629,6.476436e-05,7,1
0.0001266733,6.298164e-05,7,1
8.242948e-05,7.643307e-05,7,1
1.484824e-05,0.0001064152,7,1
-4.544006e-05,0.0001488763,7,1
-6.974985e-05,0.0001992786,7,1
-5.338126e-05,0.0002503292,7,1
-1.610624e-05,0.0002887387,7,1
1.679302e-05,0.0003083486,7,1
2.959619e-05,0.0003120761,7,1
1.679302e-05,0.0003064038,7,1
-1.432352e-05,0.0002958695,7,1
-4.673658e-05,0.0002867939,7,1
-6.48879e-05,0.0002803113,7,1
-6.504996e-05,0.0002814457,7,1
-5.889148e-05,0.0002901973,7,1
-5.824322e-05,0.000307052,7,1
-6.06742e-05,0.0003279585,7,1
-5.532604e-05,0.0003506476,7,1
-3.782299e-05,0.0003707437,7,1
-1.189254e-05,0.000388733,7,1
1.760335e-05,0.0004052637,7,1
4.839576e-05,0.0004217943,7,1
8.437427e-05,0.0004477248,7,1
0.0001297526,0.0004942376,7,1
0.0001775618,0.0005613327,7,1
0.0002114335,0.0006352345,7,1
0.00021273,0.0006922815,7,1
0.0001671896,0.0007152948,7,1
7.400208e-05,0.0006992503,7,1
-5.808115e-05,0.0006506307,7,1
-0.0002060468,0.0005832114,7,1
-0.0003334301,0.000505258,7,1
-0.0004146248,0.0004242253,7,1
-0.0004387725,0.0003477304,7,1
-0.0004040906,0.0002786906,7,1
-0.0003113892,0.0002166196,7,1
-0.0001723372,0.0001637863,7,1
-1.62683e-05,0.0001218114,7,1
0.0001128978,9.588091e-05,7,1
0.0001786963,8.453633e-05,7,1
0.0001701068,8.291568e-05,7,1
0.0001070634,8.113296e-05,7,1
2.489629e-05,7.027458e-05,7,1
-5.078821e-05,5.212327e-05,7,1
-0.0001128592,2.910999e-05,7,1
-0.0001656925,4.80019e-06,7,1
-0.0002042641,-1.821308e-05,7,1
-0.0002122053,-3.944364e-05,7,1
-0.0001786577,-6.423963e-05,7,1
-0.0001089697,-9.000802e-05,7,1
-2.113026e-05,-0.0001136696,7,1
5.585077e-05,-0.0001290658,7,1
9.571884e-05,-0.0001334415,7,1
9.766362e-05,-0.0001290658,7,1
8.097089e-05,-0.0001243659,7,1
7.789165e-05,-0.0001285796,7,1
0.0001124116,-0.0001421931,7,1
0.0001806411,-0.0001614788,7,1
0.0002556773,-0.0001846542,7,1
0.0003133726,-0.0002057227,7,1
0.0003383307,-0.0002198223,7,1
0.0003323342,-0.0002269532,7,1
0.0003091589,-0.0002298704,7,1
0.000277232,-0.0002297083,7,1
0.0002303951,-0.0002284118,7,1
0.0001620036,-0.0002279256,7,1
7.935024e-05,-0.0002274394,7,1
6.258778e-06,-0.0002248464,7,1
-3.506788e-05,-0.0002183637,7,1
-3.68506e-05,-0.0002055606,7,1
-6.706447e-06,-0.0001820611,7,1
3.850978e-05,-0.0001473791,7,1
7.270556e-05,-0.0001013526,7,1
7.853991e-05,-4.884343e-05,7,1
5.179914e-05,8.365628e-06,7,1
6.420843e-06,6.962632e-05,7,1
-3.944364e-05,0.0001312112,7,1
-7.898758e-05,0.0001840444,7,1
-0.0001136696,0.0002159713,7,1
-0.0001426792,0.0002154851,7,1
-0.000161965,0.0001796687,7,1
-0.0001746061,0.0001216493,7,1
-0.0001796301,6.119892e-05,7,1
-0.0001724993,1.663096e-05,7,1
-0.0001489998,-6.544382e-06,7,1
-0.0001083214,-9.137427e-06,7,1
-5.775702e-05,5.934648e-06,7,1
-1.140634e-05,3.348575e-05,7,1
1.54965e-05,6.622294e-05,7,1
1.468618e-05,0.0001013911,7,1
-1.237873e-05,0.0001409351,7,1
-4.997789e-05,0.0001843686,7,1
-7.461182e-05,0.0002307193,7,1
-7.428769e-05,0.0002754493,7,1
-5.937768e-05,0.0003078624,7,1
-3.733679e-05,0.0003156415,7,1
3.179537e-06,0.0002937627,7,1
7.384002e-05,0.0002436845,7,1
0.0001689724,0.0001733481,7,1
0.0002654013,9.669123e-05,7,1
0.0003284447,2.667901e-05,7,1
0.000339303,-2.728874e-05,7,1
0.0003064038,-6.667062e-05,7,1
0.0002550291,-9.940781e-05,7,1
0.0002015475,-0.0001336036,7,1
0.0001479039,-0.0001690959,7,1
8.939829e-05,-0.0002036158,7,1
3.008238e-05,-0.0002323013,7,1
-1.934754e-05,-0.0002528836,7,1
-5.208474e-05,-0.000266173,7,1
-6.780507e-05,-0.0002763831,7,1
-7.412562e-05,-0.0002874036,7,1
-7.931171e-05,-0.0002946965,7,1
-8.676672e-05,-0.0002924276,7,1
-9.66527e-05,-0.000276221,7,1
-0.000107349,-0.0002498044,7,1
-0.0001253383,-0.0002235498,7,1
-0.0001642339,-0.000206533,7,1
-0.0002373254,-0.0002029675,7,1
-0.0003434782,-0.0002088019,7,1
-0.0004674581,-0.0002227395,7,1
-0.0005823624,-0.0002420253,7,1
-0.0006569124,-0.0002639041,7,1
-0.0006680949,-0.0002841623,7,1
-0.0006032689,-0.0002966413,7,1
-0.00047232,-0.0002980999,7,1
-0.0002934,-0.0002856209,7,1
-8.838737e-05,-0.0002606628,7,1
0.0001140322,-0.0002251705,7,1
0.0002801492,-0.0001849783,7,1
0.0003903536,-0.0001459206,7,1
0.0004470765,-0.0001088076,7,1
0.0004553419,-7.169464e-05,7,1
0.0004153117,-2.874733e-05,7,1
0.0003344411,2.230325e-05,7,1
0.0002315296,7.853991e-05,7,1
0.0001273216,0.0001297526,7,1
4.142696e-05,0.0001584381,7,1
-1.545797e-05,0.0001535762,7,1
-3.733679e-05,0.000108522,7,1
-3.279896e-05,2.748934e-05,7,1
-2.194059e-05,-7.898758e-05,7,1
-2.809907e-05,-0.0001961608,7,1
-6.39155e-05,-0.0003049066,7,1
-0.0001170729,-0.0003895047,7,1
-0.0001489998,-0.000444769,7,1
-0.0001242038,-0.0004728062,7,1
-3.344723e-05,-0.0004773441,7,1
9.31258e-05,-0.0004668098,7,1
0.0002153231,-0.000449955,7,1
0.0003025142,-0.0004340726,7,1
0.0003410858,-0.0004246728,7,1
0.0003371962,-0.0004279142,7,1
0.0003088348,-0.0004457413,7,1
0.000277232,-0.0004749131,7,1
0.000252436,-0.0005061917,7,1
0.0002316917,-0.0005275843,7,1
0.0002114335,-0.0005283947,7,1
0.00018291,-0.0005003574,7,1
0.000133318,-0.0004381243,7,1
5.844381e-05,-0.0003389403,7,1
-3.441962e-05,-0.0002037779,7,1
-0.0001245279,-3.604027e-05,7,1
-0.0001927574,0.0001662173,7,1
-0.0002365151,0.000410936,7,1
-0.0002545043,0.0007080019,7,1
-0.0002331117,0.001061143,7,1
-0.0001582375,0.001454152,7,1
-2.242678e-05,0.001839544,7,1
0.0001542244,0.002142607,7,1
0.000319207,0.002297056,7,1
0.0004204978,0.002270964,7,1
0.0004420525,0.002079563,7,1
0.0004059119,0.001778607,7,1
0.0003508097,0.001436973,7,1
0.0003052694,0.001111221,7,1
0.0002762596,0.0008331164,7,1
0.0002511395,0.0006086557,7,1
0.0002109473,0.0004339493,7,1
0.0001475797,0.0002989488,7,1
6.525056e-05,0.0001960373,7,1
-2.080613e-05,0.0001174356,7,1
-9.535618e-05,5.228533e-05,7,1
-0.0001451102,-1.270286e-05,7,1
-0.0001645581,-9.2439e-05,7,1
-0.0001564548,-0.0001971332,7,1
-0.0001269589,-0.0003220855,7,1
-9.227693e-05,-0.0004467137,7,1
-7.250496e-05,-0.0005522182,7,1
-7.963584e-05,-0.0006319543,7,1
-0.0001136696,-0.0006852738,7,1
-0.0001601823,-0.000712987,7,1
-0.000206695,-0.0007220627,7,1
-0.0002468872,-0.0007227109,7,1
-0.0002744383,-0.0007233592,7,1
-0.0002749245,-0.0007300039,7,1
-0.0002402425,-0.0007441035,7,1
-0.0001812508,-0.0007622549,7,1
-0.000127121,-0.0007787855,7,1
-0.0001050801,-0.0007838095,7,1
-0.0001242038,-0.0007669547,7,1
-0.0001759026,-0.0007128249,7,1
-0.0002470493,-0.0006183409,7,1
-0.0003277578,-0.000482044,7,1
-0.0004139766,-0.0003049066,7,1
-0.0004974402,-8.952183e-05,7,1
-0.0005535148,0.0001504969,7,1
-0.0005397392,0.0003817642,7,1
-0.000424997,0.0005636016,7,1
-0.000216581,0.0006626236,7,1
2.197911e-05,0.0006694303,7,1
0.0002067336,0.0005981215,7,1
0.0002832284,0.0004793275,7,1
0.0002444948,0.0003530786,7,1
0.0001247285,0.0002566497,7,1
-2.583016e-05,0.0002065715,7,1
-0.0001642339,0.0001940925,7,1
-0.0002653627,0.0001960373,7,1
-0.0003217614,0.0001861513,7,1
-0.0003303509,0.0001469315,7,1
-0.0002836761,7.270556e-05,7,1
-0.0001723372,-3.101625e-05,7,1
-1.043395e-05,-0.0001483515,7,1
0.0001603829,-0.0002585559,7,1
0.0002958695,-0.0003460712,7,1
0.0003681507,-0.000405225,7,1
0.0003730126,-0.0004403932,7,1
0.0003258516,-0.0004595169,7,1
0.0002547049,-0.0004674581,7,1
0.0001924718,-0.0004643789,7,1
0.0001590864,-0.0004496309,7,1
0.0001551968,-0.0004177041,7,1
0.0001662173,-0.0003632501,7,1
0.000175455,-0.0002932379,7,1
0.0001739964,-0.000216419,7,1
0.0001563313,-0.000137169,7,1
0.0001169494,-5.467778e-05,7,1
5.698522e-05,2.992031e-05,7,1
-1.594417e-05,0.0001101427,7,1
-8.952183e-05,0.0001799928,7,1
-0.000147055,0.0002331503,7,1
-0.0001676373,0.0002644289,7,1
-0.0001311726,0.0002694529,7,1
-3.360929e-05,0.0002490327,7,1
0.0001049566,0.0002148369,7,1
0.0002446569,0.0001895547,7,1
0.0003388169,0.0001924718,7,1
0.000353889,0.0002240746,7,1
0.0002940868,0.0002678322,7,1
0.0002008992,0.0002974902,7,1
0.0001257009,0.0002926282,7,1
9.798775e-05,0.0002581083,7,1
0.0001177597,0.0002156472,7,1
0.0001579519,0.0001817755,7,1
0.0001803169,0.0001620036,7,1
0.0001564933,0.0001466074,7,1
8.323981e-05,0.0001273216,7,1
-2.615429e-05,9.63671e-05,7,1
-0.0001571031,5.244739e-05,7,1
-0.0002914552,-8.002969e-06,7,1
-0.0004115456,-8.709085e-05,7,1
-0.0004967919,-0.0001776853,7,1
-0.0005256396,-0.0002684419,7,1
-0.0004783165,-0.000350609,7,1
-0.0003493125,-0.000420135,7,1
-0.0001650443,-0.0004802613,7,1
3.121684e-05,-0.0005343911,7,1
0.0002036544,-0.000583821,7,1
0.0003397893,-0.0006296854,7,1
0.0004331389,-0.0006740913,7,1
0.0004673347,-0.0007199558,7,1
0.0004230909,-0.0007671168,7,1
0.0003089969,-0.0008116848,7,1
0.0001608691,-0.0008497701,7,1
2.797553e-05,-0.0008750523,7,1
-5.824322e-05,-0.0008769971,7,1
-9.438378e-05,-0.0008483115,7,1
-9.989401e-05,-0.0007855922,7,1
-9.632857e-05,-0.0006873807,7,1
-9.713889e-05,-0.0005572423,7,1
-0.0001031353,-0.000400039,7,1
-0.0001141558,-0.0002267911,7,1
-0.0001292278,-4.981582e-05,7,1
-0.0001455964,0.0001269974,7,1
-0.0001564548,0.000316938,7,1
-0.0001488377,0.0005443158,7,1
-0.000119828,0.0008229063,7,1
-7.65566e-05,0.001134558,7,1
-3.668853e-05,0.001422225,7,1
-1.545797e-05,0.001622376,7,1
-2.031993e-05,0.001691416,7,1
-4.625038e-05,0.001617028,7,1
-8.320128e-05,0.001423197,7,1
-0.0001157764,0.001162596,7,1
-0.000134738,0.0008998874,7,1
-0.0001352242,0.0006913091,7,1
-0.0001175591,0.0005642498,7,1
-8.757704e-05,0.000520168,7,1
-5.581224e-05,0.0005371849,7,1
-3.198864e-05,0.0005802943,7,1
-2.145439e-05,0.000606873,7,1
-2.761287e-05,0.0005856425,7,1
-4.932962e-05,0.0005060683,7,1
-8.02841e-05,0.0003746333,7,1
-9.989401e-05,0.0002036544,7,1
-7.833932e-05,1.64689e-05,7,1
2.207145e-06,-0.0001583996,7,1
0.0001321835,-0.000301017,7,1
0.0002863077,-0.0004073319,7,1
0.0004392974,-0.0004857715,7,1
0.0005658705,-0.0005473563,7,1
0.0006370172,-0.0005980827,7,1
0.0006310208,-0.0006423265,7,1
0.0005475571,-0.0006813843,7,1
0.000413529,-0.0007126629,7,1
0.0002626462,-0.000737783,7,1
0.0001214872,-0.0007630652,7,1
1.047248e-05,-0.0007928851,7,1
-5.710876e-05,-0.0008303223,7,1
-7.704279e-05,-0.0008695421,7,1
-5.775702e-05,-0.0008925553,7,1
-1.513384e-05,-0.0008795901,7,1
3.218923e-05,-0.0008158985,7,1
6.703327e-05,-0.0006979149,7,1
8.550872e-05,-0.0005282326,7,1
9.458438e-05,-0.0003160891,7,1
0.0001033359,-7.039812e-05,7,1
0.0001151667,0.0002060853,7,1
0.000128294,0.0005159543,7,1
0.0001375317,0.0008522401,7,1
0.0001321835,0.00117783,7,1
0.0001086841,0.001437459,7,1
7.076078e-05,0.001580887,7,1
2.797553e-05,0.001589963,7,1
-8.813297e-06,0.001487051,7,1
-3.328516e-05,0.001319475,7,1
-4.657452e-05,0.001142337,7,1
-5.338126e-05,0.0009930751,7,1
-6.099833e-05,0.0008848152,7,1
-7.526008e-05,0.0008088066,7,1
-0.0001010285,0.0007498147,7,1
-0.0001302002,0.000695847,7,1
-0.0001504584,0.0006376655,7,1
-0.0001475412,0.0005700842,7,1
-0.0001152902,0.0004940755,7,1
-7.60704e-05,0.0004076947,7,1
-6.683268e-05,0.00030689,7,1
-0.0001112386,0.0001890685,7,1
-0.0001947022,5.811968e-05,7,1
-0.0002758969,-7.088431e-05,7,1
-0.0003042584,-0.0001825473,7,1
-0.0002480217,-0.0002673075,7,1
-0.0001091317,-0.0003274337,7,1
7.90261e-05,-0.000370543,7,1
0.000262322,-0.0004006872,7,1
0.000386302,-0.0004219178,7,1
0.0004132049,-0.0004421759,7,1
0.0003423823,-0.000464703,7,1
0.0002094887,-0.0004904714,7,1
7.011252e-05,-0.0005157535,7,1
-2.42095e-05,-0.0005373082,7,1
-5.257093e-05,-0.0005536768,7,1
-1.659243e-05,-0.0005672903,7,1
6.265751e-05,-0.0005773384,7,1
0.0001568175,-0.0005830107,7,1
0.0002303951,-0.0005781487,7,1
0.0002594049,-0.0005621043,7,1
0.0002372019,-0.0005446012,7,1
0.000170593,-0.0005343911,7,1
7.076078e-05,-0.0005335807,7,1
-4.641245e-05,-0.0005395772,7,1
-0.0001577513,-0.000544277,7,1
-0.0002352185,-0.0005460597,7,1
-0.0002640662,-0.0005462218,7,1
-0.0002489941,-0.000541846,7,1
-0.000216581,-0.0005272602,7,1
-0.0001940539,-0.0005003574,7,1
-0.000204102,-0.0004640547,7,1
-0.0002593663,-0.0004262935,7,1
-0.0003593606,-0.0003922598,7,1
-0.0004937127,-0.00036795,7,1
-0.0006345474,-0.000355471,7,1
-0.0007374589,-0.0003502849,7,1
-0.0007588515,-0.0003481781,7,1
-0.0006867325,-0.0003462333,7,1
-0.0005551354,-0.0003446126,7,1
-0.0004159214,-0.0003392644,7,1
-0.0002985861,-0.0003238683,7,1
-0.0001981056,-0.0002951827,7,1
-9.162867e-05,-0.0002566112,7,1
3.834771e-05,-0.0002151224,7,1
0.0001895547,-0.000176875,7,1
0.0003431926,-0.0001451102,7,1
0.0004799758,-0.0001170729,7,1
0.0005807805,-9.357346e-05,7,1
0.0006321552,-7.33153e-05,7,1
0.0006289139,-5.208474e-05,7,1
0.0005710566,-2.955766e-05,7,1
0.0004613383,-9.137427e-06,7,1
0.0003182346,1.014835e-05,7,1
0.0001689724,3.364782e-05,7,1
4.061663e-05,6.152305e-05,7,1
-4.738484e-05,9.393612e-05,7,1
-8.384954e-05,0.0001292664,7,1
-7.007399e-05,0.0001645966,7,1
-2.46957e-05,0.000195227,7,1
1.9224e-05,0.0002166196,7,1
3.753739e-05,0.0002295848,7,1
2.003433e-05,0.0002344468,7,1
-2.599222e-05,0.0002320158,7,1
-7.995997e-05,0.0002216436,7,1
-0.0001199901,0.0002075439,7,1
-0.0001357104,0.000192958,7,1
-0.000137169,0.0001827479,7,1
-0.0001430034,0.0001811273,7,1
-0.0001629374,0.000185341,7,1
-0.0001958367,0.0001916615,7,1
-0.0002327876,0.0001986303,7,1
-0.0002673075,0.0002072198,7,1
-0.0002958309,0.0002182402,7,1
-0.0003199787,0.0002359054,7,1
-0.0003426678,0.000259891,7,1
-0.0003635742,0.0002786906,7,1
-0.0003783222,0.0002835526,7,1
-0.0003781601,0.0002735045,7,1
-0.0003475298,0.0002534084,7,1
-0.0002755728,0.0002313675,7,1
-0.0001660166,0.0002112714,7,1
-3.652646e-05,0.0001992786,7,1
8.907416e-05,0.0001940925,7,1
0.0001871237,0.0001874478,7,1
0.0002359054,0.0001736723,7,1
0.0002357433,0.0001498487,7,1
0.0002083542,0.0001266733,7,1
0.0001808031,0.0001158149,7,1
0.0001600588,0.0001274836,7,1
0.0001385041,0.0001553589,7,1
0.0001062531,0.0001902029,7,1
6.768154e-05,0.0002237505,7,1
3.380988e-05,0.0002545429,7,1
1.517237e-05,0.0002892249,7,1
1.857574e-05,0.0003303894,7,1
3.883391e-05,0.0003718782,7,1
5.828175e-05,0.0003995914,7,1
6.281957e-05,0.000401212,7,1
3.883391e-05,0.0003699334,7,1
-1.367526e-05,0.0003149933,7,1
-7.153257e-05,0.0002478982,7,1
-0.0001063766,0.0001824238,7,1
-9.260107e-05,0.0001261871,7,1
-1.918548e-05,8.04847e-05,7,1
9.604298e-05,4.790957e-05,7,1
0.0002140265,2.39239e-05,7,1
0.0002966799,5.934648e-06,7,1
0.0003286068,-8.489166e-06,7,1
0.0003149933,-2.015787e-05,7,1
0.0002782044,-2.907146e-05,7,1
0.0002448189,-3.247483e-05,7,1
0.0002245608,-2.907146e-05,7,1
0.0002161334,-2.015787e-05,7,1
0.0002166196,-8.327101e-06,7,1
0.0002261814,1.072688e-06,7,1
0.00024255,4.151929e-06,7,1
0.0002637806,-3.627206e-06,7,1
0.0002775562,-2.307504e-05,7,1
0.0002739907,-5.046408e-05,7,1
0.0002462775,-8.125649e-05,7,1
0.0001970097,-0.0001101041,7,1
0.0001376938,-0.0001311726,7,1
8.826383e-05,-0.0001365208,7,1
6.78436e-05,-0.0001259865,7,1
8.648112e-05,-0.0001054042,7,1
0.0001380179,-8.854943e-05,7,1
0.0001884202,-8.887356e-05,7,1
0.0001955511,-0.0001112386,7,1
0.0001389903,-0.0001473791,7,1
3.899597e-05,-0.0001846542,7,1
-6.002594e-05,-0.0002112329,7,1
-0.000122097,-0.0002232257,7,1
-0.0001433275,-0.0002199844,7,1
-0.0001459206,-0.0002081536,7,1
-0.0001527273,-0.0001934057,7,1
-0.0001658546,-0.0001770371,7,1
-0.0001616409,-0.0001624512,7,1
-0.0001083214,-0.0001485136,7,1
1.234753e-06,-0.0001334415,7,1
0.0001367214,-0.000117235,7,1
0.0002547049,-0.0001045939,7,1
0.0003211517,-9.875954e-05,7,1
0.0003347652,-9.940781e-05,7,1
0.0003159656,-0.0001032974,7,1
0.0002869559,-0.0001044318,7,1
0.0002547049,-9.470791e-05,7,1
0.0002090025,-6.618442e-05,7,1
0.0001480659,-1.983374e-05,7,1
8.210535e-05,3.93201e-05,7,1
2.635488e-05,0.0001098185,7,1
-1.286493e-05,0.0001897167,7,1
-3.766092e-05,0.0002790148,7,1
-5.111234e-05,0.0003756057,7,1
-5.532604e-05,0.0004712243,7,1
-5.435365e-05,0.0005488536,7,1
-5.629844e-05,0.000594556,7,1
-6.197072e-05,0.0005971491,7,1
-5.856735e-05,0.0005527431,7,1
-3.425755e-05,0.0004744656,7,1
-2.978945e-06,0.0003846814,7,1
1.209313e-05,0.0003039728,7,1
-7.100305e-07,0.0002428742,7,1
-3.992984e-05,0.000205275,7,1
-9.503204e-05,0.0001916615,7,1
-0.0001567789,0.0001991165,7,1
-0.0002194982,0.0002222919,7,1
-0.0002841623,0.0002582704,7,1
-0.0003475298,0.0003046211,7,1
-0.0003997148,0.0003469201,7,1
-0.0004188385,0.0003629646,7,1
-0.0003916115,0.0003360618,7,1
-0.0003254889,0.0002577842,7,1
-0.000248832,0.0001331559,7,1
-0.0001903264,-1.934754e-05,7,1
-0.0001648822,-0.00016942,7,1
-0.0001647201,-0.0002912931,7,1
-0.0001736337,-0.0003745947,7,1
-0.0001806025,-0.0004245108,7,1
-0.0001815749,-0.0004577342,7,1
-0.000176713,-0.0004893369,7,1
-0.0001656925,-0.0005303394,7,1
-0.0001481895,-0.0005856037,7,1
-0.0001261486,-0.0006504298,7,1
-0.0001016767,-0.000715418,7,1
-8.093236e-05,-0.0007645238,7,1
-6.942573e-05,-0.0007847819,7,1
-7.23429e-05,-0.0007740856,7,1
-8.984595e-05,-0.000737783,7,1
-0.0001135075,-0.0006773326,7,1
-0.0001344139,-0.0005870623,7,1
-0.0001447861,-0.0004585445,7,1
-0.0001363587,-0.0002917793,7,1
-0.0001016767,-9.875954e-05,7,1
-4.203669e-05,0.0001013911,7,1
2.197911e-05,0.0002866318,7,1
6.152305e-05,0.0004360561,7,1
5.633696e-05,0.0005287575,7,1
1.387585e-05,0.0005577672,7,1
-3.814712e-05,0.0005242196,7,1
-7.526008e-05,0.0004438352,7,1
-9.098041e-05,0.0003362238,7,1
-9.357346e-05,0.0002179161,7,1
-9.29252e-05,9.426025e-05,7,1
-8.692878e-05,-3.020592e-05,7,1
-5.937768e-05,-0.0001439758,7,1
2.04508e-06,-0.0002352185,7,1
9.863601e-05,-0.0003002067,7,1
0.0002188885,-0.0003465574,7,1
0.0003354135,-0.0003841565,7,1
0.0004067223,-0.0004155972,7,1
0.0003981328,-0.0004332623,7,1
0.0003067279,-0.0004332623,7,1
0.000170431,-0.000420135,7,1
4.807163e-05,-0.0004005251,7,1
-1.497178e-05,-0.0003867496,7,1
-3.789272e-06,-0.0003872358,7,1
6.541262e-05,-0.0004034423,7,1
0.000160545,-0.0004301831,7,1
0.00024255,-0.0004601652,7,1
0.0002903593,-0.0004862577,7,1
0.0003017039,-0.0005016539,7,1
0.0002910076,-0.000496954,7,1
0.0002681563,-0.0004619479,7,1
0.0002359054,-0.0003912874,7,1
0.0001921477,-0.0002823795,7,1
0.0001367214,-0.0001339277,7,1
8.356394e-05,4.839576e-05,7,1
4.839576e-05,0.000249843,7,1
4.061663e-05,0.0004608521,7,1
6.265751e-05,0.0006845024,7,1
0.0001086841,0.0009392693,7,1
0.000160707,0.001240387,7,1
0.0001937684,0.001575701,7,1
0.0001859892,0.001890757,7,1
0.0001336421,0.002105818,7,1
5.066468e-05,0.002154114,7,1
-4.284701e-05,0.002013279,7,1
-0.0001305243,0.001713943,7,1
-0.0001984297,0.001328227,7,1
-0.0002371633,0.0009355418,7,1
-0.000233922,0.0005977973,7,1
-0.0001888679,0.0003440029,7,1
-0.0001229073,0.0001702689,7,1
-6.44017e-05,5.487838e-05,7,1
-2.696461e-05,-2.501983e-05,7,1
-9.947754e-06,-8.303922e-05,7,1
-9.137427e-06,-0.0001290658,7,1
-2.631635e-05,-0.0001737958,7,1
-6.618442e-05,-0.0002241981,7,1
-0.0001327933,-0.0002793003,7,1
-0.0002183637,-0.0003340784,7,1
-0.0002966413,-0.0003817256,7,1
-0.0003309991,-0.0004186764,7,1
-0.0003042584,-0.0004462276,7,1
-0.0002245222,-0.0004645409,7,1
-0.0001115627,-0.0004736166,7,1
9.500085e-06,-0.0004750752,7,1
0.0001096565,-0.0004692408,7,1
0.0001628139,-0.0004551412,7,1
0.0001613553,-0.000434883,7,1
0.0001130598,-0.00041268,7,1
3.753739e-05,-0.0003925839,7,1
-4.43056e-05,-0.0003744326,7,1
-0.0001162626,-0.0003567675,7,1
-0.0001648822,-0.0003395886,7,1
-0.0001853024,-0.0003198166,7,1
-0.0001734716,-0.0002937241,7,1
-0.0001407345,-0.0002626076,7,1
-0.0001104282,-0.0002327876,7,1
-0.0001007043,-0.0002169052,7,1
-0.0001050801,-0.0002220912,7,1
-0.0001058904,-0.0002410529,7,1
-9.146661e-05,-0.0002593663,7,1
-6.796714e-05,-0.000263742,7,1
-4.787104e-05,-0.0002446183,7,1
-4.041603e-05,-0.0001995642,7,1
-4.641245e-05,-0.0001353863,7,1
-5.710876e-05,-6.81292e-05,7,1
-6.197072e-05,-2.356124e-05,7,1
-5.240886e-05,-2.615429e-05,7,1
-3.004385e-05,-8.579432e-05,7,1
-1.520357e-06,-0.0001935677,7,1
2.473423e-05,-0.0003277578,7,1
4.320967e-05,-0.0004609755,7,1
5.082674e-05,-0.0005724764,7,1
5.131294e-05,-0.000653185,7,1
5.001642e-05,-0.0007024527,7,1
5.034055e-05,-0.0007235213,7,1
5.260946e-05,-0.0007222248,7,1
5.585077e-05,-0.0007082871,7,1
5.698522e-05,-0.0006902979,7,1
5.131294e-05,-0.0006719845,7,1
3.462021e-05,-0.0006588572,7,1
7.555301e-06,-0.0006528608,7,1
-1.432352e-05,-0.0006471885,7,1
-9.137427e-06,-0.0006257959,7,1
3.154097e-05,-0.0005745832,7,1
9.831188e-05,-0.0004852853,7,1
0.0001720516,-0.0003574158,7,1
0.0002315296,-0.0002005366,7,1
0.0002652392,-2.761287e-05,7,1
0.0002793389,0.0001563313,7,1
0.0002924662,0.0003621543,7,1
0.0003211517,0.0006065489,7,1
0.0003597233,0.0008950254,7,1
0.0003872744,0.001204408,7,1
0.0003840331,0.001482837,7,1
0.0003503235,0.001666458,7,1
0.0003004074,0.001710216,7,1
0.0002540567,0.001602766,7,1
0.000230071,0.001377332,7,1
0.0002337985,0.001090476,7,1
0.0002529222,0.0008060515,7,1
0.0002558394,0.0005704083,7,1
0.0002205092,0.0003994293,7,1
0.0001435281,0.0002885766,7,1
4.191315e-05,0.000222616,7,1
-5.889148e-05,0.0001848548,7,1
-0.0001373311,0.0001634622,7,1
-0.0001697442,0.0001469315,7,1
-0.0001473791,0.0001320215,7,1
-8.384954e-05,0.000113384,7,1
-1.67545e-05,9.037068e-05,7,1
1.452411e-05,6.476436e-05,7,1
-1.432352e-05,4.045456e-05,7,1
-9.778715e-05,2.408596e-05,7,1
-0.0002023193,1.760335e-05,7,1
-0.000286107,1.484824e-05,7,1
-0.0003206269,9.986281e-06,7,1
-0.0003091203,-2.978945e-06,7,1
-0.0002747625,-2.599222e-05,7,1
-0.000241377,-5.435365e-05,7,1
-0.0002185258,-8.012204e-05,7,1
-0.0001995642,-9.551824e-05,7,1
-0.000174444,-9.405965e-05,7,1
-0.0001447861,-7.688073e-05,7,1
-0.0001235555,-4.657452e-05,7,1
-0.0001229073,-1.010982e-05,7,1
-0.0001431655,2.81376e-05,7,1
-0.0001763888,6.78436e-05,7,1
-0.0002104225,0.000110953,7,1
-0.0002350565,0.0001492004,7,1
-0.0002400805,0.000165569,7,1
-0.0002194982,0.0001477418,7,1
-0.0001752544,9.134307e-05,7,1
-0.0001214487,4.47606e-06,7,1
-7.266703e-05,-9.843541e-05,7,1
-3.879538e-05,-0.0001995642,7,1
-1.967167e-05,-0.0002843243,7,1
-1.25408e-05,-0.000345585,7,1
-1.918548e-05,-0.0003862634,7,1
-3.604027e-05,-0.0004104111,7,1
-6.359137e-05,-0.0004211074,7,1
-9.794922e-05,-0.0004196489,7,1
-0.0001331174,-0.0004110594,7,1
-0.0001590478,-0.0004005251,7,1
-0.0001655305,-0.0003885323,7,1
-0.0001428413,-0.0003690845,7,1
-8.628052e-05,-0.00033813,7,1
-2.978945e-06,-0.0002998826,7,1
8.129502e-05,-0.0002622834,7,1
0.0001422316,-0.0002253326,7,1
0.0001796687,-0.0001904885,7,1
0.0002164575,-0.0001600202,7,1
0.0002637806,-0.0001376552,7,1
0.0003111037,-0.0001211246,7,1
0.0003409237,-0.0001034594,7,1
0.0003459477,-7.833932e-05,7,1
0.0003273102,-4.47918e-05,7,1
0.0002863077,-1.075808e-05,7,1
0.0002289366,1.582063e-05,7,1
0.0001652449,3.154097e-05,7,1
0.0001125736,3.721326e-05,7,1
8.194328e-05,3.915804e-05,7,1
7.238143e-05,4.223728e-05,7,1
7.108491e-05,4.72613e-05,7,1
6.136099e-05,5.666109e-05,7,1
4.239934e-05,7.465034e-05,7,1
2.278944e-05,0.000101067,7,1
1.257933e-05,0.0001305629,7,1
1.468618e-05,0.0001526038,7,1
2.894792e-05,0.000160545,7,1
6.03886e-05,0.0001508211,7,1
0.0001195424,0.0001261871,7,1
0.0002081922,9.944634e-05,7,1
0.0003114278,8.453633e-05,7,1
0.0003903536,8.631905e-05,7,1
0.0004080188,9.993253e-05,7,1
0.0003574544,0.0001148425,7,1
0.0002590807,0.0001263492,7,1
0.0001480659,0.0001372076,7,1
6.055066e-05,0.0001503349,7,1
2.327564e-05,0.0001662173,7,1
3.251336e-05,0.0001850168,7,1
6.573675e-05,0.0002057612,7,1
9.053275e-05,0.0002253711,7,1
8.226741e-05,0.0002355812,7,1
3.154097e-05,0.0002321778,7,1
-5.629844e-05,0.0002109473,7,1
-0.0001658546,0.0001733481,7,1
-0.0002805968,0.0001247285,7,1
-0.0003838324,7.384002e-05,7,1
-0.0004603272,2.586868e-05,7,1
-0.0004877163,-1.756482e-05,7,1
-0.0004392588,-5.840528e-05,7,1
-0.0003024756,-9.746302e-05,7,1
-0.0001086455,-0.000132145,7,1
7.30297e-05,-0.000164396,7,1
0.0001717275,-0.0001945401,7,1
0.0001564933,-0.0002204706,7,1
5.844381e-05,-0.0002374874,7,1
-6.116039e-05,-0.000241377,7,1
-0.0001481895,-0.0002272773,7,1
-0.0001812508,-0.0001912988,7,1
-0.0001674752,-0.0001357104,7,1
-0.000127121,-6.035007e-05,7,1
-8.368748e-05,3.656499e-05,7,1
-5.516398e-05,0.000155521,7,1
-5.305713e-05,0.0002814457,7,1
-8.530812e-05,0.0003940812,7,1
-0.0001509446,0.0004793275,7,1
-0.0002366771,0.0005242196,7,1
-0.0003212752,0.0005217887,7,1
-0.0003807532,0.0004726828,7,1
-0.0003961493,0.0003885709,7,1
-0.0003687603,0.0002856594,7,1
-0.0003214373,0.0001791825,7,1
-0.0002699005,8.291568e-05,7,1
-0.0002156086,6.258778e-06,7,1
-0.000151917,-4.187462e-05,7,1
-8.514606e-05,-6.148453e-05,7,1
-3.004385e-05,-6.326724e-05,7,1
6.096713e-06,-6.213279e-05,7,1
3.364782e-05,-6.375344e-05,7,1
6.735741e-05,-6.877746e-05,7,1
0.0001175977,-7.898758e-05,7,1
0.0001806411,-9.681477e-05,7,1
0.000244981,-0.0001224211,7,1
0.0002918179,-0.0001514308,7,1
0.0002999212,-0.0001789819,7,1
0.0002571359,-0.0002034537,7,1
0.0001717275,-0.0002254946,7,1
7.076078e-05,-0.0002439701,7,1
-1.869928e-05,-0.0002616352,7,1
-8.271508e-05,-0.0002801106,7,1
-0.0001157764,-0.0002948586,7,1
-0.0001201522,-0.0003052308,7,1
-9.956988e-05,-0.0003125237,7,1
-6.504996e-05,-0.0003206269,7,1
-3.150244e-05,-0.000328082,7,1
-1.918548e-05,-0.0003248407,7,1
-3.377136e-05,-0.0003037722,7,1
-6.261898e-05,-0.0002600145,7,1
-7.509801e-05,-0.0001963229,7,1
-4.349527e-05,-0.0001211246,7,1
3.883391e-05,-4.770897e-05,7,1
0.000155521,9.013889e-06,7,1
0.0002705873,4.434413e-05,7,1
0.0003474063,6.41161e-05,7,1
0.0003700955,7.708133e-05,7,1
0.0003487029,8.79397e-05,7,1
0.0003078624,0.0001000946,7,1
0.0002684805,0.0001122495,7,1
0.0002412535,0.000123432,7,1
0.0002227781,0.0001365593,7,1
0.0002065715,0.0001551968,7,1
0.0001843686,0.0001793446,7,1
0.000153252,0.0002021958,7,1
0.0001143563,0.0002161334,7,1
7.011252e-05,0.0002213195,7,1
3.235129e-05,0.0002248849,7,1
1.938607e-05,0.0002360674,7,1
4.677511e-05,0.0002645909,7,1
9.798775e-05,0.0003114278,7,1
0.0001368834,0.0003616681,7,1
0.0001373696,0.0003919743,7,1
0.0001067393,0.0003806297,7,1
7.870197e-05,0.0003188828,7,1
9.004655e-05,0.0002135403,7,1
0.0001501728,7.837785e-05,7,1
0.0002294227,-6.586029e-05,7,1
0.0002817699,-0.0002031296,7,1
0.0002652392,-0.000325813,7,1
0.0001728619,-0.0004295348,7,1
3.915804e-05,-0.0005076503,7,1
-8.709085e-05,-0.0005494631,7,1
-0.0001733096,-0.000554001,7,1
-0.000208964,-0.0005287188,7,1
-0.0002000504,-0.0004810716,7,1
-0.0001618029,-0.0004253211,7,1
-0.0001167488,-0.000385291,7,1
-8.903562e-05,-0.00038286,7,1
-8.968389e-05,-0.0004311555,7,1
-0.0001141558,-0.0005249913,7,1
-0.000149486,-0.0006356818,7,1
-0.0001851404,-0.0007238454,7,1
-0.000216581,-0.000757555,7,1
-0.0002426735,-0.0007147697,7,1
-0.0002622834,-0.0005933828,7,1
-0.0002737901,-0.0003985804,7,1
-0.0002713591,-0.0001425172,7,1
-0.0002502906,0.0001670276,7,1
-0.0002167431,0.0005248679,7,1
-0.0001853024,0.0009196594,7,1
-0.0001757406,0.001313317,7,1
-0.0001938919,0.001646848,7,1
-0.0002211189,0.001870336,7,1
-0.0002263049,0.001967252,7,1
-0.0001919471,0.001957042,7,1
-0.0001305243,0.00187293,7,1
-6.877746e-05,0.001742142,7,1
-3.004385e-05,0.001573756,7,1
-9.461558e-06,0.001364205,7,1
1.22552e-05,0.001110735,7,1
5.536457e-05,0.0008254994,7,1
0.0001257009,0.000534916,7,1
0.0002141886,0.0002715597,7,1
0.0003000832,6.719535e-05,7,1
0.0003451374,-6.278104e-05,7,1
0.0003098072,-0.0001310105,7,1
0.0001882582,-0.0001665028,7,1
9.338019e-06,-0.0001968091,7,1
-0.0001759026,-0.0002399184,7,1
-0.0003134961,-0.0003002067,7,1
-0.0003616295,-0.0003734602,7,1
-0.0003037722,-0.0004506033,7,1
-0.0001543479,-0.0005235327,7,1
4.709924e-05,-0.0005856037,7,1
0.0002443328,-0.0006340612,7,1
0.0003843572,-0.0006721465,7,1
0.0004326527,-0.0007024527,7,1
0.0003966742,-0.0007266005,7,1
0.0003106175,-0.0007442656,7,1
0.0002161334,-0.0007531792,7,1
0.0001446626,-0.0007544757,7,1
0.0001075496,-0.0007496137,7,1
9.490851e-05,-0.0007392416,7,1
8.810177e-05,-0.0007173628,7,1
7.027458e-05,-0.0006716604,7,1
3.624086e-05,-0.0005956517,7,1
-7.516774e-06,-0.0004963057,7,1
-5.159854e-05,-0.0003857772,7,1
-8.465986e-05,-0.000278652,7,1
-0.0001075111,-0.0001831956,7,1
-0.0001342519,-0.0001029732,7,1
-0.0001749302,-3.960571e-05,7,1
-0.0002201465,8.365628e-06,7,1
-0.0002441321,4.888196e-05,7,1
-0.0002300324,8.875003e-05,7,1
-0.0001818991,0.0001287802,7,1
-0.000119666,0.0001665414,7,1
-5.808115e-05,0.0001979821,7,1
-2.654814e-06,0.0002205092,7,1
4.920609e-05,0.0002263435,7,1
0.0001080358,0.000202844,7,1
0.0001783722,0.0001354248,7,1
0.0002509774,2.116879e-05,7,1
0.0003078624,-0.0001394379,7,1
0.0003271482,-0.0003386162,7,1
0.0002965178,-0.0005601594,7,1
0.0002245608,-0.0007839716,7,1
0.0001391524,-0.0009907669,7,1
6.589881e-05,-0.001167256,7,1
1.355172e-05,-0.001307605,7,1
-2.485776e-05,-0.001418133,7,1
-5.727083e-05,-0.001506783,7,1
-8.952183e-05,-0.001576957,7,1
-0.0001227452,-0.001625415,7,1
-0.0001583996,-0.001640649,7,1
-0.0001947022,-0.001601915,7,1
-0.0002290601,-0.001485552,7,1
-0.0002570974,-0.00127584,7,1
-0.0002754107,-0.0009701846,7,1
-0.0002804347,-0.0005760419,7,1
-0.0002720074,-0.0001044318,7,1
-0.000256287,0.0004266563,7,1
-0.0002421874,0.0009935612,7,1
-0.0002371633,0.001570191,7,1
-0.0002420253,0.002121539,7,1
-0.0002532078,0.002593151,7,1
-0.0002617972,0.002920201,7,1
-0.0002588801,0.003060874,7,1
-0.0002421874,0.003002206,7,1
-0.00021415,0.002760241,7,1
-0.0001765509,0.002382303,7,1
-0.000127121,0.001939539,7,1
-6.229485e-05,0.001508768,7,1
1.274139e-05,0.001148334,7,1
8.761557e-05,0.0008853014,7,1
0.0001483901,0.0007146465,7,1
0.0001842065,0.000611735,7,1
0.0001902029,0.0005482053,7,1
0.0001692965,0.0004994237,7,1
0.0001328318,0.0004498317,7,1
9.199134e-05,0.0003897054,7,1
6.03886e-05,0.0003179104,7,1
5.082674e-05,0.0002370398,7,1
7.092284e-05,0.0001459591,7,1
0.0001169494,4.175109e-05,7,1
0.000177886,-7.428769e-05,7,1
0.0002393087,-0.0001911368,7,1
0.0002851732,-0.0002940482,7,1
0.0003077003,-0.0003736223,7,1
0.0003060797,-0.0004356933,7,1
0.0002835526,-0.0004917679,7,1
0.0002454672,-0.0005562698,7,1
0.0002020337,-0.0006324406,7,1
0.0001668655,-0.0007123387,7,1
0.0001402868,-0.0007818647,7,1
0.0001078737,-0.0008309705,7,1
5.730935e-05,-0.0008603043,7,1
-1.67545e-05,-0.000876673,7,1
-9.908367e-05,-0.0008898003,7,1
-0.0001627754,-0.0008998482,7,1
-0.0001859507,-0.0009001724,7,1
-0.0001567789,-0.0008781315,7,1
-7.979791e-05,-0.0008306464,7,1
2.327564e-05,-0.0007624169,7,1
0.0001158149,-0.000683005,7,1
0.0001701068,-0.0006000275,7,1
0.0001811273,-0.0005154294,7,1
0.0001647587,-0.0004181903,7,1
0.000140773,-0.0002922655,7,1
0.0001252147,-0.0001306864,7,1
0.0001227837,5.293359e-05,7,1
0.0001325077,0.0002312055,7,1
0.0001410971,0.0003751195,7,1
0.000130725,0.0004666864,7,1
9.085688e-05,0.0005055821,7,1
2.716521e-05,0.0005119027,7,1
-3.539201e-05,0.0005162785,7,1
-6.81292e-05,0.0005483674,7,1
-5.565017e-05,0.00061919,7,1
-5.247859e-06,0.000715781,7,1
6.136099e-05,0.0008036205,7,1
0.0001197045,0.000842192,7,1
0.0001550348,0.0008094548,7,1
0.0001623277,0.0007008709,7,1
0.0001466074,0.0005345919,7,1
0.000121001,0.0003428685,7,1
9.199134e-05,0.0001587623,7,1
5.795762e-05,4.962256e-06,7,1
9.500085e-06,-0.0001076731,7,1
-5.856735e-05,-0.0001802784,7,1
-0.0001336036,-0.0002259808,7,1
-0.0001893541,-0.0002619593,7,1
-0.0002049123,-0.0003015032,7,1
-0.0001835197,-0.0003514194,7,1
-0.0001426792,-0.0004079801,7,1
-0.000107349,-0.0004625961,7,1
-0.0001005423,-0.0005084606,7,1
-0.0001412206,-0.0005364979,7,1
-0.0002300324,-0.0005468701,7,1
-0.0003514194,-0.000544115,7,1
-0.0004653512,-0.0005377944,7,1
-0.0005126743,-0.0005369841,7,1
-0.0004488206,-0.000544277,7,1
-0.0002838381,-0.000556594,7,1
-8.125649e-05,-0.0005674524,7,1
7.90261e-05,-0.000571504,7,1
0.000150659,-0.0005619422,7,1
0.0001365593,-0.0005361738,7,1
7.254349e-05,-0.0005003574,7,1
8.203562e-06,-0.0004645409,7,1
-6.868513e-06,-0.0004371519,7,1
5.034055e-05,-0.0004183523,7,1
0.0001633001,-0.0004016596,7,1
0.0002892249,-0.0003815635,7,1
0.0003783608,-0.0003544986,7,1
0.000398619,-0.0003215994,7,1
0.0003410858,-0.0002857829,7,1
0.0002268297,-0.0002525595,7,1
9.620504e-05,-0.0002245222,7,1
-1.448558e-05,-0.0001969711,7,1
-8.368748e-05,-0.000161965,7,1
-0.0001011905,-0.0001162626,7,1
-7.623246e-05,-6.537409e-05,7,1
-3.036798e-05,-2.09682e-05,7,1
1.59827e-05,9.66215e-06,7,1
5.260946e-05,2.667901e-05,7,1
8.161915e-05,3.380988e-05,7,1
0.00010366,3.445814e-05,7,1
0.0001151667,3.510641e-05,7,1
0.0001081979,3.867184e-05,7,1
8.113296e-05,4.547859e-05,7,1
5.034055e-05,5.455425e-05,7,1
3.867184e-05,6.249545e-05,7,1
5.066468e-05,6.687121e-05,7,1
7.189524e-05,6.995045e-05,7,1
8.291568e-05,7.999851e-05,7,1
8.129502e-05,9.750156e-05,7,1
8.502253e-05,0.0001203528,7,1
0.0001177597,0.0001475797,7,1
0.0001830721,0.0001783722,7,1
0.0002608634,0.0002065715,7,1
0.0003172622,0.0002256952,7,1
0.0003219621,0.0002378501,7,1
0.0002619979,0.0002482223,7,1
0.0001508211,0.0002595669,7,1
1.987227e-05,0.0002760976,7,1
-9.000802e-05,0.0002997591,7,1
-0.0001486757,0.0003339549,7,1
-0.00015451,0.000378685,7,1
-0.0001293899,0.0004334631,7,1
-0.0001005423,0.0004952099,7,1
-8.158062e-05,0.0005639257,7,1
-7.218083e-05,0.0006405826,7,1
-6.618442e-05,0.0007190223,7,1
-5.159854e-05,0.0007903311,7,1
-2.064406e-05,0.0008447851,7,1
2.246531e-05,0.0008721742,7,1
6.444023e-05,0.0008639088,7,1
8.810177e-05,0.0008204753,7,1
7.967438e-05,0.0007522457,7,1
3.915804e-05,0.0006686199,7,1
-2.550602e-05,0.0005760806,7,1
-0.0001005423,0.0004812723,7,1
-0.00016942,0.0003931088,7,1
-0.0002180396,0.0003224483,7,1
-0.0002423494,0.0002720459,7,1
-0.0002483458,0.0002397949,7,1
-0.0002467252,0.0002218057,7,1
-0.0002433218,0.000210137,7,1
-0.0002332737,0.0001963614,7,1
-0.0002160948,0.0001718896,7,1
-0.0002032917,0.0001363972,7,1
-0.0002081536,9.426025e-05,7,1
-0.0002386219,5.19612e-05,7,1
-0.0002964792,1.160693e-05,7,1
-0.0003741085,-2.550602e-05,7,1
-0.0004538446,-6.035007e-05,7,1
-0.0005204534,-8.935975e-05,7,1
-0.0005611319,-0.0001086455,7,1
-0.0005622663,-0.0001167488,7,1
-0.0005107295,-0.0001149661,7,1
-0.0004016596,-0.0001034594,7,1
-0.0002494803,-8.725291e-05,7,1
-9.049421e-05,-7.120844e-05,7,1
3.494434e-05,-5.678463e-05,7,1
0.0001056048,-4.511593e-05,7,1
0.0001299146,-3.166451e-05,7,1
0.0001401247,-7.192643e-06,7,1
0.0001723757,3.624086e-05,7,1
0.0002331503,9.863601e-05,7,1
0.0002924662,0.0001689724,7,1
0.0003109416,0.0002256952,7,1
0.0002773941,0.0002433604,7,1
0.0002141886,0.0002111094,7,1
0.0001592484,0.0001336421,7,1
0.0001412592,2.910999e-05,7,1
0.0001571416,-8.093236e-05,7,1
0.0001921477,-0.0001788198,7,1
0.0002363916,-0.0002515871,7,1
0.0002835526,-0.0002924276,7,1
0.0003302274,-0.0003013411,7,1
0.0003629646,-0.0002932379,7,1
0.0003679886,-0.0002843243,7,1
0.0003371962,-0.0002896725,7,1
0.0002743149,-0.000310903,7,1
0.0001914995,-0.0003365093,7,1
9.507057e-05,-0.0003546606,7,1
-9.299493e-06,-0.0003559572,7,1
-0.0001128592,-0.0003363473,7,1
-0.0002039399,-0.0003040963,7,1
-0.0002733039,-0.000271197,7,1
-0.0003143064,-0.0002481838,7,1
-0.0003243544,-0.0002392702,7,1
-0.0002963172,-0.000238946,7,1
-0.0002233878,-0.0002371633,7,1
-0.0001114006,-0.0002318152,7,1
1.582063e-05,-0.0002290601,7,1
0.0001378558,-0.0002358668,7,1
0.0002467637,-0.0002520733,7,1
0.000341572,-0.000268604,7,1
0.0004174185,-0.000273628,7,1
0.0004704139,-0.0002635799,7,1
0.0004982892,-0.0002454286,7,1
0.0005073649,-0.0002219292,7,1
0.0004965065,-0.0001950263,7,1
0.0004589073,-0.0001684476,7,1
0.0003850055,-0.0001396,7,1
0.0002790148,-9.681477e-05,7,1
0.0001667035,-3.393342e-05,7,1
8.550872e-05,4.45062e-05,7,1
4.969229e-05,0.0001252147,7,1
4.596478e-05,0.000190365,7,1
4.499239e-05,0.0002287745,7,1
2.133085e-05,0.0002401191,7,1
-2.372331e-05,0.0002346088,7,1
-7.428769e-05,0.0002234263,7,1
-0.0001130213,0.0002112714,7,1
-0.0001240417,0.0002013854,7,1
-0.0001036215,0.0001923098,7,1
-5.59743e-05,0.0001791825,7,1
9.338019e-06,0.0001586002,7,1
7.999851e-05,0.0001318594,7,1
0.000133318,0.0001020394,7,1
0.0001467694,7.270556e-05,7,1
0.0001158149,4.871989e-05,7,1
5.536457e-05,3.591673e-05,7,1
-1.286493e-05,4.02925e-05,7,1
-7.039812e-05,5.649903e-05,7,1
-0.0001070249,6.930219e-05,7,1
-0.0001261486,6.865393e-05,7,1
-0.0001397621,5.115087e-05,7,1
-0.0001580754,2.01964e-05,7,1
-0.0001831956,-2.226472e-05,7,1
-0.0002147983,-7.704279e-05,7,1
-0.0002580697,-0.000144462,7,1
-0.0003073376,-0.0002222533,7,1
-0.0003502849,-0.0003027998,7,1
-0.0003781601,-0.0003737844,7,1
-0.0003989045,-0.0004261314,7,1
-0.0004227281,-0.0004585445,7,1
-0.0004544929,-0.000477182,7,1
-0.0004914437,-0.0004950092,7,1
-0.0005159156,-0.000519481,7,1
-0.0005091089,-0.0005501114,7,1
-0.0004676201,-0.0005825245,7,1
-0.0004167317,-0.0006139652,7,1
-0.0003922598,-0.0006382749,7,1
-0.0004068457,-0.0006478368,7,1
-0.0004363416,-0.0006369784,7,1
-0.000437314,-0.0006034309,7,1
-0.0003716775,-0.0005499493,7,1
-0.0002444563,-0.0004775062,7,1
-9.892161e-05,-0.0003862634,7,1
1.322759e-05,-0.0002767073,7,1
5.99024e-05,-0.0001459206,7,1
4.077869e-05,6.582909e-06,7,1
-2.177852e-05,0.0001756171,7,1
-8.757704e-05,0.0003430306,7,1
-0.0001169109,0.0004825689,7,1
-9.081835e-05,0.0005728393,7,1
-2.258885e-05,0.0006029835,7,1
4.969229e-05,0.0005736496,7,1
8.907416e-05,0.0004961824,7,1
8.810177e-05,0.0003981328,7,1
6.978839e-05,0.0003136967,7,1
7.059871e-05,0.0002736666,7,1
0.0001101427,0.0003015418,7,1
0.0001856651,0.0004068843,7,1
0.0002777182,0.0005854804,7,1
0.0003613439,0.000814803,7,1
0.0004133669,0.001048177,7,1
0.0004268184,0.001217698,7,1
0.0004083429,0.001257404,7,1
0.0003793332,0.001142824,7,1
0.0003593992,0.0009075044,7,1
0.0003556717,0.0006224313,7,1
0.000361506,0.0003559958,7,1
0.000368799,0.000150659,7,1
0.000373985,2.035846e-05,7,1
0.0003736609,-4.138842e-05,7,1
0.0003610198,-5.953974e-05,7,1
0.0003305515,-5.69467e-05,7,1
0.000279663,-5.062615e-05,7,1
0.0002128921,-4.317115e-05,7,1
0.0001398006,-3.26369e-05,7,1
6.930219e-05,-2.015787e-05,7,1
8.527692e-06,-8.002969e-06,7,1
-3.150244e-05,4.962256e-06,7,1
-4.122636e-05,2.408596e-05,7,1
-1.221667e-05,5.212327e-05,7,1
5.714729e-05,9.182927e-05,7,1
0.0001548727,0.0001453108,7,1
0.000259729,0.0002093267,7,1
0.0003483787,0.0002782044,7,1
0.0004023465,0.0003480546,7,1
0.0004153117,0.0004298976,7,1
0.0003893813,0.0005443158,7,1
0.0003260137,0.0007028158,7,1
0.0002303951,0.000884167,7,1
0.000118408,0.00103035,7,1
1.419998e-05,0.001080104,7,1
-5.986387e-05,0.0009925888,7,1
-9.081835e-05,0.0007723419,7,1
-8.595638e-05,0.000473007,7,1
-6.48879e-05,0.000165569,7,1
-4.47918e-05,-8.757704e-05,7,1
-2.728874e-05,-0.0002614731,7,1
2.04508e-06,-0.0003648708,7,1
5.228533e-05,-0.0004245108,7,1
0.0001198666,-0.0004635685,7,1
0.0001919856,-0.000489661,7,1
0.0002488706,-0.0005014918,7,1
0.0002795009,-0.0004948471,7,1
0.0002739907,-0.0004706994,7,1
0.0002234263,-0.0004361795,7,1
0.0001279698,-0.0003998769,7,1
3.341602e-06,-0.0003596847,7,1
-0.0001261486,-0.000310741,7,1
-0.0002361909,-0.0002436459,7,1
-0.0003078238,-0.0001630995,7,1
-0.0003428299,-8.433573e-05,7,1
-0.0003587123,-2.534396e-05,7,1
-0.0003723258,7.485573e-07,7,1
-0.0003880461,-9.785688e-06,7,1
-0.000395177,-5.856735e-05,7,1
-0.000380267,-0.0001447861,7,1
-0.0003410472,-0.0002632558,7,1
-0.0002963172,-0.0004003631,7,1
-0.000266173,-0.0005309877,7,1
-0.0002556388,-0.0006348715,7,1
-0.000251263,-0.0007039114,7,1
-0.0002379736,-0.0007423208,7,1
-0.0002084778,-0.0007573929,7,1
-0.0001673132,-0.0007603101,7,1
-0.0001324691,-0.0007659824,7,1
-0.000127283,-0.0007883473,7,1
-0.0001627754,-0.0008390738,7,1
-0.0002258187,-0.0009167031,7,1
-0.0002848105,-0.001008756,7,1
-0.0003117133,-0.001100647,7,1
-0.0002904828,-0.001179249,7,1
-0.0002233878,-0.001234675,7,1
-0.0001310105,-0.001268547,7,1
-4.43056e-05,-0.001291074,7,1
2.700314e-05,-0.001311008,7,1
9.101894e-05,-0.001335642,7,1
0.0001526038,-0.001366434,7,1
0.000200251,-0.001395282,7,1
0.0002239125,-0.001410678,7,1
0.0002316917,-0.001400792,7,1
0.0002438466,-0.001352659,7,1
0.0002720459,-0.001254609,7,1
0.0003015418,-0.001102916,7,1
0.0003106175,-0.0009022792,7,1
0.000284525,-0.0006573986,7,1
0.000225209,-0.0003689224,7,1
0.0001475797,-3.296103e-05,7,1
7.108491e-05,0.0003597233,7,1
1.517237e-05,0.0008232304,7,1
-1.124428e-05,0.001365178,7,1
-7.840905e-06,0.001963038,7,1
1.54965e-05,0.002549393,7,1
4.580272e-05,0.003029271,7,1
7.092284e-05,0.003308026,7,1
8.388807e-05,0.003323098,7,1
8.145709e-05,0.003074002,7,1
6.768154e-05,0.002633343,7,1
5.066468e-05,0.00211068,7,1
3.364782e-05,0.001609573,7,1
2.01964e-05,0.001199384,7,1
1.501031e-05,0.0009008598,7,1
1.64689e-05,0.0007060571,7,1
1.9224e-05,0.0005937457,7,1
2.149292e-05,0.0005371849,7,1
3.13789e-05,0.0005119027,7,1
6.233338e-05,0.0004961824,7,1
0.0001125736,0.0004762483,7,1
0.0001657311,0.000450642,7,1
0.0001976579,0.0004170944,7,1
0.0001968476,0.0003734989,7,1
0.0001624898,0.000314345,7,1
0.00010366,0.0002407673,7,1
2.797553e-05,0.0001602208,7,1
-5.435365e-05,8.210535e-05,7,1
-0.0001376552,1.241726e-05,7,1
-0.0002180396,-5.370539e-05,7,1
-0.0002908069,-0.0001259865,7,1
-0.0003457471,-0.0002118811,7,1
-0.0003645466,-0.0003102548,7,1
-0.0003196545,-0.000410087,7,1
-0.0001972953,-0.0004958195,7,1
-2.404744e-05,-0.0005574043,7,1
0.0001389903,-0.0005916001,7,1
0.0002336365,-0.0006021344,7,1
0.0002339606,-0.0005937069,7,1
0.0001571416,-0.0005773384,7,1
4.920609e-05,-0.0005658317,7,1
-4.706071e-05,-0.0005637249,7,1
-0.0001083214,-0.0005635628,7,1
-0.0001276072,-0.0005546492,7,1
-0.0001183694,-0.0005259637,7,1
-9.746302e-05,-0.0004741028,7,1
-7.671866e-05,-0.0004073319,7,1
-6.278104e-05,-0.0003363473,7,1
-5.64605e-05,-0.0002694143,7,1
-5.856735e-05,-0.0002133397,7,1
-7.769106e-05,-0.0001759026,7,1
-0.0001245279,-0.0001582375,7,1
-0.0001968091,-0.0001574272,7,1
-0.0002741142,-0.0001724993,7,1
-0.0003287302,-0.0001987538,7,1
-0.0003392644,-0.0002279256,7,1
-0.0003036101,-0.000246239,7,1
-0.0002426735,-0.0002522354,7,1
-0.0001887058,-0.000248832,7,1
-0.0001707166,-0.0002384598,7,1
-0.0001994021,-0.0002207947,7,1
-0.0002626076,-0.0002028055,7,1
-0.0003348887,-0.0001955125,7,1
-0.0003963114,-0.0002011848,7,1
-0.0004282383,-0.000216419,7,1
-0.0004211074,-0.0002321393,7,1
-0.0003697327,-0.0002431597,7,1
-0.0002817312,-0.0002486699,7,1
-0.0001746061,-0.0002554767,7,1
-6.699475e-05,-0.0002640662,7,1
2.505836e-05,-0.0002699005,7,1
9.004655e-05,-0.000268766,7,1
0.0001263492,-0.0002567732,7,1
0.0001423936,-0.0002348944,7,1
0.0001487142,-0.0002037779,7,1
0.0001561692,-0.0001656925,7,1
0.0001720516,-0.0001232314,7,1
0.000200251,-8.336335e-05,7,1
0.0002412535,-4.706071e-05,7,1
0.0002936006,-1.351319e-05,7,1
0.0003527545,1.776542e-05,7,1
0.0004081808,4.256141e-05,7,1
0.00044578,6.330578e-05,7,1
0.0004579349,7.951231e-05,7,1
0.0004486972,9.863601e-05,7,1
0.0004336251,0.0001250527,7,1
0.0004302217,0.0001592484,7,1
0.0004350837,0.0001965235,7,1
0.0004318424,0.0002305572,7,1
0.0004119083,0.0002530843,7,1
0.0003845193,0.0002644289,7,1
0.0003697714,0.0002692908,7,1
0.0003767402,0.0002744769,7,1
0.0003926226,0.0002848491,7,1
0.0003958639,0.0002979764,7,1
0.0003725265,0.0003109416,7,1
0.0003182346,0.0003247172,7,1
0.0002347709,0.0003384927,7,1
0.0001239182,0.0003477304,7,1
-3.627206e-06,0.0003509718,7,1
-0.0001285796,0.0003469201,7,1
-0.000228898,0.0003363859,7,1
-0.000288538,0.000321638,7,1
-0.0003019894,0.0003049452,7,1
-0.0002848105,0.0002854973,7,1
-0.0002629317,0.000259891,7,1
-0.0002558008,0.0002292607,7,1
-0.0002677937,0.0001973338,7,1
-0.0002878898,0.0001718896,7,1
-0.0003019894,0.0001563313,7,1
-0.0002887001,0.0001492004,7,1
-0.0002382978,0.0001477418,7,1
-0.0001543479,0.0001449867,7,1
-5.629844e-05,0.0001388282,7,1
3.202716e-05,0.0001292664,7,1
9.231547e-05,0.0001177597,7,1
0.0001153287,0.0001073875,7,1
0.0001026876,0.0001004187,7,1
6.849186e-05,9.701536e-05,7,1
3.202716e-05,9.831188e-05,7,1
1.630683e-05,0.0001017153,7,1
3.526847e-05,0.0001013911,7,1
7.789165e-05,9.26396e-05,7,1
0.0001156529,7.416415e-05,7,1
0.0001172735,5.082674e-05,7,1
6.703327e-05,2.943412e-05,7,1
-2.258885e-05,1.468618e-05,7,1
-0.0001201522,5.772582e-06,7,1
-0.0001950263,5.86492e-07,7,1
-0.0002279256,-4.437533e-06,7,1
-0.0002154466,-7.840905e-06,7,1
-0.0001640719,-1.010982e-05,7,1
-8.433573e-05,-1.010982e-05,7,1
1.727922e-05,-1.010982e-05,7,1
0.000135749,-1.270286e-05,7,1
0.0002605393,-2.113026e-05,7,1
0.0003647473,-4.009191e-05,7,1
0.000413529,-7.18567e-05,7,1
0.0003853296,-0.0001131834,7,1
0.0002918179,-0.0001554824,7,1
0.0001718896,-0.0001911368,7,1
7.367795e-05,-0.0002199844,7,1
2.862379e-05,-0.0002439701,7,1
3.073064e-05,-0.0002671454,7,1
5.131294e-05,-0.0002898345,7,1
6.541262e-05,-0.0003136581,7,1
5.504044e-05,-0.0003400748,7,1
1.371378e-05,-0.0003687603,7,1
-5.240886e-05,-0.0003920977,7,1
-0.0001287416,-0.0004063595,7,1
-0.0001974573,-0.0004063595,7,1
-0.0002473734,-0.0003917736,7,1
-0.0002768693,-0.0003674638,7,1
-0.0002987481,-0.0003402368,7,1
-0.0003240303,-0.0003102548,7,1
-0.0003583881,-0.0002758969,7,1
-0.0003979321,-0.0002345703,7,1
-0.0004332623,-0.0001809267,7,1
-0.0004528722,-0.0001138316,7,1
-0.0004496309,-3.312309e-05,7,1
-0.0004240246,5.666109e-05,7,1
-0.0003809152,0.0001504969,7,1
-0.0003156029,0.0002438466,7,1
-0.0002191741,0.0003397893,7,1
-8.919769e-05,0.0004435111,7,1
5.811968e-05,0.000557281,7,1
0.0001913374,0.0006739681,7,1
0.000284687,0.0007783383,7,1
0.0003435168,0.0008506195,7,1
0.0003989431,0.0008724983,7,1
0.0004833792,0.0008374922,7,1
0.0005958526,0.0007587284,7,1
0.0006971435,0.0006601926,7,1
0.0007399287,0.000562143,7,1
0.0007003848,0.0004728449,7,1
0.0005908285,0.0003973225,7,1
0.0004516144,0.0003368721,7,1
0.0003290929,0.0002853353,7,1
0.000252274,0.0002316917,7,1
0.0002174299,0.0001710792,7,1
0.0001919856,0.000106091,7,1
0.0001446626,3.93201e-05,7,1
7.351589e-05,-2.501983e-05,7,1
4.244267e-07,-8.044617e-05,7,1
-5.32192e-05,-0.000117235,7,1
-8.141856e-05,-0.0001316588,7,1
-9.843541e-05,-0.0001311726,7,1
-0.0001282554,-0.0001274451,7,1
-0.0001896782,-0.0001358725,7,1
-0.0002723315,-0.0001624512,7,1
-0.0003475298,-0.0002036158,7,1
-0.0003888564,-0.0002475355,7,1
-0.0003814014,-0.0002825416,7,1
-0.0003337542,-0.0003023136,7,1
-0.0002844864,-0.0003087962,7,1
-0.0002752487,-0.0003128478,7,1
-0.0003250027,-0.0003230579,7,1
-0.0004177041,-0.0003418575,7,1
-0.0005196431,-0.0003608192,7,1
-0.0005935449,-0.0003747568,7,1
-0.0006199615,-0.0003779981,7,1
-0.000601162,-0.000362926,7,1
-0.0005499493,-0.0003211132,7,1
-0.0004750752,-0.0002540181,7,1
-0.0003810773,-0.0001713648,7,1
-0.0002758969,-8.465986e-05,7,1
-0.0001686097,-1.682422e-06,7,1
-6.456377e-05,7.092284e-05,7,1
3.60788e-05,0.0001232699,7,1
0.0001286181,0.0001462832,7,1
0.0002010613,0.0001344524,7,1
0.0002372019,9.361199e-05,7,1
0.0002321778,4.045456e-05,7,1
0.000200413,-1.124428e-05,7,1
0.0001714034,-5.69467e-05,7,1
0.0001692965,-9.908367e-05,7,1
0.0001963614,-0.0001405724,7,1
0.0002391467,-0.000181737,7,1
0.0002778803,-0.0002284118,7,1
0.0002901973,-0.0002818933,7,1
0.0002564877,-0.0003369955,7,1
0.0001720516,-0.0003893426,7,1
5.358185e-05,-0.0004358554,7,1
-7.18567e-05,-0.0004789647,7,1
-0.0001707166,-0.0005215878,7,1
-0.0002160948,-0.0005659938,7,1
-0.0002034537,-0.0006102377,7,1
-0.0001548341,-0.0006556159,7,1
-0.0001031353,-0.0007052079,7,1
-6.861539e-05,-0.0007539895,7,1
-5.354332e-05,-0.0007881853,7,1
-4.884343e-05,-0.0007977472,7,1
-4.349527e-05,-0.0007742477,7,1
-2.437157e-05,-0.0007175248,7,1
1.630683e-05,-0.0006356818,7,1
7.821578e-05,-0.0005332566,7,1
0.0001441764,-0.000405063,7,1
0.0001814514,-0.0002410529,7,1
0.0001670276,-2.826114e-05,7,1
0.0001023635,0.0002380122,7,1
1.64689e-05,0.0005503122,7,1
-5.500191e-05,0.0008827084,7,1
-9.130454e-05,0.001193874,7,1
-8.968389e-05,0.001424818,7,1
-5.013995e-05,0.001522219,7,1
2.311357e-05,0.001462093,7,1
0.0001167873,0.0012681,7,1
0.0002119197,0.001000854,7,1
0.0002979764,0.0007321496,7,1
0.0003671783,0.0005174129,7,1
0.0004157979,0.0003910019,7,1
0.000433301,0.0003568061,7,1
0.0004138531,0.0003824125,7,1
0.0003686369,0.0004170944,7,1
0.0003182346,0.0004200116,7,1
0.0002764217,0.0003697714,7,1
0.0002451431,0.0002702632,7,1
0.0002125679,0.0001519555,7,1
0.0001675138,5.828175e-05,7,1
0.0001112771,2.473423e-05,7,1
5.52025e-05,6.719535e-05,7,1
1.12828e-05,0.0001833962,7,1
-8.165035e-06,0.0003504856,7,1
-7.100305e-07,0.0005318367,7,1
2.667901e-05,0.0006823955,7,1
5.552663e-05,0.0007682902,7,1
7.52986e-05,0.0007750969,7,1
9.361199e-05,0.0007114052,7,1
0.0001331559,0.0006012007,7,1
0.0001987924,0.0004668485,7,1
0.0002688046,0.0003221241,7,1
0.0003081865,0.0001736723,7,1
0.0002903593,3.364782e-05,7,1
0.0002088404,-8.02841e-05,7,1
8.04847e-05,-0.0001546721,7,1
-6.294311e-05,-0.0001877334,7,1
-0.000184168,-0.0001844921,7,1
-0.0002553146,-0.0001579134,7,1
-0.0002684419,-0.000119666,7,1
-0.0002353806,-7.866345e-05,7,1
-0.0001799543,-4.38194e-05,7,1
-0.0001255003,-2.0482e-05,7,1
-9.000802e-05,-9.947754e-06,7,1
-7.914964e-05,-9.299493e-06,7,1
-8.644259e-05,-2.064406e-05,7,1
-9.746302e-05,-5.59743e-05,7,1
-0.0001031353,-0.0001259865,7,1
-0.0001055663,-0.0002342462,7,1
-0.0001125351,-0.0003698948,7,1
-0.0001316588,-0.0005136467,7,1
-0.0001598582,-0.0006467023,7,1
-0.0001861127,-0.0007557723,7,1
-0.0001972953,-0.0008330774,7,1
-0.0001854645,-0.0008776453,7,1
-0.0001616409,-0.0008969311,7,1
-0.0001408965,-0.0009038999,7,1
-0.0001225832,-0.0009064929,7,1
-9.341139e-05,-0.0009055205,7,1
-4.268495e-05,-0.0008967691,7,1
1.403791e-05,-0.0008740799,7,1
4.466826e-05,-0.0008337257,7,1
2.732727e-05,-0.0007787855,7,1
-3.198864e-05,-0.0007121767,7,1
-0.000107349,-0.0006384369,7,1
-0.000164396,-0.0005630766,7,1
-0.0001765509,-0.0004885266,7,1
-0.0001452723,-0.0004118697,7,1
-9.2439e-05,-0.0003274337,7,1
-4.284701e-05,-0.0002347323,7,1
-6.868513e-06,-0.0001374932,7,1
1.679302e-05,-3.830919e-05,7,1
3.543054e-05,6.03886e-05,7,1
5.1475e-05,0.0001587623,7,1
6.476436e-05,0.000252274,7,1
7.562274e-05,0.0003336308,7,1
8.84259e-05,0.0003906778,7,1
9.31258e-05,0.0004174185,7,1
7.562274e-05,0.0004138531,7,1
3.948217e-05,0.0003825745,7,1
3.503668e-06,0.0003295791,7,1
-1.3027e-05,0.0002631324,7,1
-3.627206e-06,0.0001945787,7,1
2.262738e-05,0.0001365593,7,1
5.56887e-05,9.490851e-05,7,1
8.664318e-05,7.157111e-05,7,1
0.0001030118,6.654708e-05,7,1
0.0001031738,7.983644e-05,7,1
9.555677e-05,0.0001078737,7,1
8.891209e-05,0.0001412592,7,1
8.275361e-05,0.0001676758,7,1
6.881599e-05,0.0001830721,7,1
3.93201e-05,0.0001924718,7,1
-9.947754e-06,0.0001992786,7,1
-8.07703e-05,0.0002020337,7,1
-0.0001658546,0.0001960373,7,1
-0.000246239,0.0001809652,7,1
-0.0002955068,0.0001649207,7,1
-0.000298424,0.0001550348,7,1
-0.0002520733,0.0001543865,7,1
-0.0001707166,0.0001615174,7,1
-7.574627e-05,0.0001697827,7,1
2.068259e-05,0.000173024,7,1
0.0001163011,0.0001597346,7,1
0.0002057612,0.0001231079,7,1
0.0002778803,6.768154e-05,7,1
0.0003182346,6.258778e-06,7,1
0.0003211517,-5.419158e-05,7,1
0.0002968419,-0.0001078352,7,1
0.0002644289,-0.00015451,7,1
0.0002378501,-0.0001956746,7,1
0.0002239125,-0.0002316531,7,1
0.0002213195,-0.0002619593,7,1
0.0002211574,-0.0002856209,7,1
0.0002122438,-0.000301017,7,1
0.0001850168,-0.0003055549,7,1
0.0001318594,-0.0003040963,7,1
5.309566e-05,-0.0003036101,7,1
-4.608832e-05,-0.0003047445,7,1
-0.0001481895,-0.0002924276,7,1
-0.0002282497,-0.0002554767,7,1
-0.0002669833,-0.0001865989,7,1
-0.0002609869,-9.146661e-05,7,1
-0.0002211189,2.181705e-05,7,1
-0.0001679614,0.0001446626,7,1
-0.0001217728,0.0002773941,7,1
-9.438378e-05,0.0004315182,7,1
-8.611845e-05,0.0006229175,7,1
-8.838737e-05,0.0008541849,7,1
-9.179074e-05,0.001100687,7,1
-8.773911e-05,0.001309427,7,1
-7.55842e-05,0.001414608,7,1
-5.937768e-05,0.001372957,7,1
-5.030202e-05,0.001181071,7,1
-5.872941e-05,0.0008859497,7,1
-8.692878e-05,0.0005608465,7,1
-0.0001305243,0.0002762596,7,1
-0.0001875713,7.821578e-05,7,1
-0.0002498044,-2.145439e-05,7,1
-0.0003021515,-3.863332e-05,7,1
-0.000333268,2.207145e-06,7,1
-0.000340561,7.432621e-05,7,1
-0.0003246786,0.0001521176,7,1
-0.0002940482,0.0002172679,7,1
-0.0002572594,0.0002616738,7,1
-0.0002204706,0.0002856594,7,1
-0.0001846542,0.0002910076,7,1
-0.0001502963,0.0002773941,7,1
-0.0001206384,0.0002461155,7,1
-9.973194e-05,0.0002044647,7,1
-8.741498e-05,0.0001589243,7,1
-7.639453e-05,0.000115977,7,1
-5.937768e-05,8.032264e-05,7,1
-3.490581e-05,5.244739e-05,7,1
-2.006553e-06,2.570662e-05,7,1
3.98063e-05,-3.951337e-06,7,1
7.999851e-05,-3.766092e-05,7,1
0.0001017153,-7.477388e-05,7,1
9.16672e-05,-0.0001131834,7,1
5.56887e-05,-0.0001478653,7,1
1.160693e-05,-0.0001763888,7,1
-1.99958e-05,-0.0001998883,7,1
-2.923353e-05,-0.0002191741,7,1
-1.772689e-05,-0.000236353,7,1
7.555301e-06,-0.0002551526,7,1
4.077869e-05,-0.0002749245,7,1
7.708133e-05,-0.0002955068,7,1
0.000118408,-0.0003136581,7,1
0.0001645966,-0.0003277578,7,1
0.0002099749,-0.0003361852,7,1
0.0002462775,-0.00033813,7,1
0.0002735045,-0.0003345645,7,1
0.0002953834,-0.0003267854,7,1
0.0003175863,-0.0003146305,7,1
0.0003370341,-0.0002956689,7,1
0.0003446512,-0.000273628,7,1
0.0003409237,-0.0002567732,7,1
0.000341734,-0.0002483458,7,1
0.0003691231,-0.0002467252,7,1
0.0004310321,-0.0002449425,7,1
0.0005049339,-0.0002368392,7,1
0.000549826,-0.0002182017,7,1
0.0005315126,-0.0001888679,7,1
0.0004360561,-0.0001554824,7,1
0.0002807975,-0.0001238797,7,1
0.0001107909,-9.66527e-05,7,1
-2.09682e-05,-6.586029e-05,7,1
-7.574627e-05,-1.902341e-05,7,1
-4.770897e-05,5.050261e-05,7,1
3.235129e-05,0.0001391524,7,1
0.0001182459,0.0002232643,7,1
0.0001675138,0.0002764217,7,1
0.0001637863,0.0002790148,7,1
0.0001182459,0.0002239125,7,1
5.714729e-05,0.0001231079,7,1
8.203562e-06,5.772582e-06,7,1
-1.691656e-05,-9.973194e-05,7,1
-1.643037e-05,-0.000174444,7,1
2.04508e-06,-0.0002144742,7,1
3.089271e-05,-0.0002282497,7,1
6.152305e-05,-0.0002272773,7,1
8.04847e-05,-0.0002227395,7,1
7.57848e-05,-0.0002203085,7,1
4.547859e-05,-0.000221443,7,1
-6.058186e-06,-0.000224036,7,1
-7.315322e-05,-0.0002274394,7,1
-0.000144624,-0.000233922,7,1
-0.0002070192,-0.000251263,7,1
-0.0002457528,-0.0002822175,7,1
-0.0002561249,-0.0003237062,7,1
-0.0002480217,-0.000365357,7,1
-0.0002444563,-0.0003940425,7,1
-0.0002673075,-0.0003984183,7,1
-0.0003245165,-0.0003752429,7,1
-0.0003943667,-0.0003327818,7,1
-0.0004378002,-0.0002793003,7,1
-0.0004313175,-0.0002212809,7,1
-0.0003771877,-0.0001549962,7,1
-0.0002977757,-7.526008e-05,7,1
-0.0002193361,1.825161e-05,7,1
-0.000156941,0.0001128978,7,1
-0.0001130213,0.000187772,7,1
-9.130454e-05,0.0002242366,7,1
-9.519411e-05,0.0002148369,7,1
-0.0001237176,0.0001647587,7,1
-0.0001655305,9.377406e-05,7,1
-0.0002052365,2.829966e-05,7,1
-0.0002303566,-1.886135e-05,7,1
-0.0002405667,-4.446767e-05,7,1
-0.0002423494,-5.095028e-05,7,1
-0.0002446183,-4.268495e-05,7,1
-0.000246401,-2.826114e-05,7,1
-0.0002368392,-1.497178e-05,7,1
-0.0002045882,-4.275467e-06,7,1
-0.0001389517,9.338019e-06,7,1
-3.717473e-05,3.55926e-05,7,1
8.567078e-05,7.691926e-05,7,1
0.0001934442,0.0001266733,7,1
0.0002513016,0.0001717275,7,1
0.0002453052,0.0001997648,7,1
0.0001918236,0.0002007372,7,1
0.0001266733,0.0001649207,7,1
8.080883e-05,9.782569e-05,7,1
6.022653e-05,1.031041e-05,7,1
6.41161e-05,-8.709085e-05,7,1
9.490851e-05,-0.0001849783,7,1
0.0001702689,-0.0002716832,7,1
0.0002853353,-0.0003345645,7,1
0.0004044533,-0.0003638984,7,1
0.000482893,-0.0003575778,7,1
0.0005021787,-0.0003224097,7,1
0.0004820827,-0.0002648765,7,1
0.0004550177,-0.0001846542,7,1
0.0004337872,-9.049421e-05,7,1
0.0004117463,2.623614e-07,7,1
0.0003798194,7.238143e-05,7,1
0.0003368721,0.0001235941,7,1
0.000284687,0.0001668655,7,1
0.0002237505,0.0002193747,7,1
0.0001584381,0.0002952213,7,1
9.620504e-05,0.0003947294,7,1
4.790957e-05,0.0005094717,7,1
2.846173e-05,0.000621621,7,1
4.499239e-05,0.0007125397,7,1
8.275361e-05,0.0007697488,7,1
0.0001120874,0.0007880622,7,1
0.0001072255,0.000775421,7,1
6.119892e-05,0.0007507871,7,1
-1.383732e-05,0.0007345806,7,1
-9.956988e-05,0.0007465734,7,1
-0.0001786577,0.0007869278,7,1
-0.0002386219,0.0008439748,7,1
-0.0002739521,0.0008951875,7,1
-0.0002854588,0.0009149595,7,1
-0.0002833519,0.0008861118,7,1
-0.0002827037,0.0008092928,7,1
-0.0002925897,0.0007023296,7,1
-0.0003203028,0.0005898562,7,1
-0.0003658432,0.0004846757,7,1
-0.0004094387,0.000383709,7,1
-0.0004269418,0.000284525,7,1
-0.0004079801,0.0001874478,7,1
-0.0003601709,9.831188e-05,7,1
-0.000303448,1.630683e-05,7,1
-0.0002556388,-6.06742e-05,7,1
-0.0002250084,-0.0001352242,7,1
-0.0002138259,-0.0002063709,7,1
-0.0002100984,-0.0002728177,7,1
-0.0002018331,-0.0003318095,7,1
-0.0001859507,-0.0003812394,7,1
-0.0001686097,-0.0004209454,7,1
-0.0001535376,-0.0004575721,7,1
-0.0001357104,-0.0004929024,7,1
-0.0001112386,-0.0005290429,7,1
-7.914964e-05,-0.0005648594,7,1
-3.879538e-05,-0.0006001896,7,1
7.879432e-06,-0.0006316302,7,1
5.795762e-05,-0.0006569124,7,1
0.0001022015,-0.0006799257,7,1
0.0001320215,-0.0007045596,7,1
0.0001393144,-0.0007262764,7,1
0.0001192183,-0.0007410243,7,1
7.90261e-05,-0.0007475069,7,1
3.624086e-05,-0.000747831,7,1
1.063454e-05,-0.0007441035,7,1
1.533444e-05,-0.0007364865,7,1
5.131294e-05,-0.0007225489,7,1
0.0001026876,-0.0007039114,7,1
0.0001487142,-0.0006867325,7,1
0.0001782101,-0.0006794395,7,1
0.0001932822,-0.0006810602,7,1
0.0002008992,-0.0006894876,7,1
0.0002012234,-0.0006938633,7,1
0.0001850168,-0.000678143,7,1
0.0001466074,-0.0006327647,7,1
0.0001004187,-0.0005510838,7,1
6.735741e-05,-0.0004369898,7,1
6.476436e-05,-0.0003027998,7,1
9.490851e-05,-0.0001559686,7,1
0.0001454729,8.041497e-06,7,1
0.0001945787,0.0002005751,7,1
0.0002269918,0.0004392974,7,1
0.0002333123,0.000725667,7,1
0.0002125679,0.001016412,7,1
0.0001723757,0.001236497,7,1
0.0001276457,0.001318665,7,1
9.733949e-05,0.001238929,7,1
9.571884e-05,0.001031323,7,1
0.0001323456,0.0007660213,7,1
0.0001955511,0.0005162785,7,1
0.0002619979,0.0003302274,7,1
0.000309321,0.0002166196,7,1
0.0003166139,0.0001535762,7,1
0.0002751252,0.0001148425,7,1
0.0001908512,8.680524e-05,7,1
8.210535e-05,6.83298e-05,7,1
-2.777494e-05,6.719535e-05,7,1
-0.000119666,8.583286e-05,7,1
-0.0001773612,0.0001195424,7,1
-0.0001937298,0.0001594105,7,1
-0.0001736337,0.0001961994,7,1
-0.0001366828,0.00022764,7,1
-0.0001094559,0.000259891,7,1
-0.0001036215,0.0002900352,7,1
-0.0001193418,0.0003085106,7,1
-0.0001475412,0.0003026763,7,1
-0.0001763888,0.0002556773,7,1
-0.000204102,0.0001521176,7,1
-0.0002318152,-9.137427e-06,7,1
-0.0002664971,-0.0002113949,7,1
-0.0003175477,-0.0004290486,7,1
-0.0003755671,-0.0006405439,7,1
-0.0004107352,-0.000824812,7,1
-0.0003901529,-0.0009662951,7,1
-0.0003036101,-0.001057052,7,1
-0.0001750923,-0.001099189,7,1
-4.868137e-05,-0.001106157,7,1
3.721326e-05,-0.001091896,7,1
6.735741e-05,-0.0010577,7,1
4.531652e-05,-0.0009940083,7,1
-5.89612e-06,-0.0008849383,7,1
-5.727083e-05,-0.0007184973,7,1
-9.29252e-05,-0.0004976023,7,1
-9.908367e-05,-0.000236353,7,1
-6.521203e-05,5.1475e-05,7,1
7.23117e-06,0.0003649094,7,1
0.0001023635,0.0007240463,7,1
0.000195389,0.001157572,7,1
0.0002628082,0.001684609,7,1
0.0002863077,0.002287656,7,1
0.0002662116,0.002897674,7,1
0.0002243987,0.003400566,7,1
0.0001921477,0.003677214,7,1
0.0001979821,0.003644477,7,1
0.0002472499,0.003292792,7,1
0.0003195311,0.002696063,7,1
0.0003820883,0.001982324,7,1
0.0004070464,0.001282686,7,1
0.0003770643,0.0006924436,7,1
0.0002991108,0.0002503292,7,1
0.0001958752,-4.997789e-05,7,1
9.507057e-05,-0.000243808,7,1
1.97102e-05,-0.0003765395,7,1
-2.534396e-05,-0.000484475,7,1
-5.127441e-05,-0.0005841451,7,1
-7.153257e-05,-0.0006761982,7,1
-9.276313e-05,-0.0007522068,7,1
-0.0001133454,-0.000807471,7,1
-0.0001353863,-0.0008426392,7,1
-0.0001600202,-0.0008599802,7,1
-0.0001835197,-0.000861925,7,1
-0.0002013469,-0.0008543079,7,1
-0.0002076674,-0.0008423151,7,1
-0.0002019951,-0.0008299981,7,1
-0.0001924333,-0.0008183295,7,1
-0.0001872472,-0.000812333,7,1
-0.0001888679,-0.0008155743,7,1
-0.0001909747,-0.0008262706,7,1
-0.0001835197,-0.0008374532,7,1
-0.0001590478,-0.0008423151,7,1
-0.0001143178,-0.0008329154,7,1
-5.176061e-05,-0.0008102262,7,1
2.100672e-05,-0.0007787855,7,1
8.502253e-05,-0.0007488034,7,1
0.000120839,-0.0007261143,7,1
0.000120839,-0.0007090974,7,1
8.875003e-05,-0.0006958081,7,1
4.256141e-05,-0.000685598,7,1
7.393236e-06,-0.0006770085,7,1
7.485573e-07,-0.0006695535,7,1
2.603075e-05,-0.0006622606,7,1
7.416415e-05,-0.0006530228,7,1
0.0001289422,-0.0006390853,7,1
0.0001869616,-0.0006230408,7,1
0.0002594049,-0.0006097514,7,1
0.0003496752,-0.0006034309,7,1
0.0004464283,-0.0006000275,7,1
0.0005238955,-0.0005907898,7,1
0.0005520949,-0.0005677765,7,1
0.0005130371,-0.0005334187,7,1
0.0004122325,-0.0004924161,7,1
0.0002790148,-0.0004439586,7,1
0.0001504969,-0.0003872358,7,1
5.763349e-05,-0.0003219235,7,1
9.66215e-06,-0.000253856,7,1
-8.327101e-06,-0.0001925954,7,1
-1.902341e-05,-0.0001452723,7,1
-3.604027e-05,-0.0001133454,7,1
-6.456377e-05,-9.389759e-05,7,1
-9.956988e-05,-7.947377e-05,7,1
-0.0001326312,-6.310517e-05,7,1
-0.000159372,-4.041603e-05,7,1
-0.0001776853,-1.092015e-05,7,1
-0.0001896782,2.181705e-05,7,1
-0.0001979435,5.633696e-05,7,1
-0.0002144742,9.588091e-05,7,1
-0.0002549905,0.000143204,7,1
-0.000328244,0.0001987924,7,1
-0.0004277521,0.0002602152,7,1
-0.000524181,0.0003195311,7,1
-0.0005872243,0.0003653956,7,1
-0.0005946793,0.0003877606,7,1
-0.0005486528,0.0003820883,7,1
-0.0004635685,0.0003534027,7,1
-0.0003566054,0.0003102934,7,1
-0.0002493182,0.0002662116,7,1
-0.0001546721,0.0002278021,7,1
-7.153257e-05,0.0002007372,7,1
1.776542e-05,0.0001874478,7,1
0.0001172735,0.0001914995,7,1
0.0002018716,0.0002119197,7,1
0.0002318537,0.000242388,7,1
0.000190365,0.000277232,7,1
9.766362e-05,0.0003072141,7,1
-1.844488e-06,0.0003234207,7,1
-7.250496e-05,0.0003247172,7,1
-9.762509e-05,0.000316776,7,1
-7.752899e-05,0.0003073762,7,1
-2.583016e-05,0.0003033245,7,1
3.526847e-05,0.0003033245,7,1
8.340187e-05,0.0003010556,7,1
0.0001043083,0.0002908455,7,1
9.26396e-05,0.0002720459,7,1
5.795762e-05,0.0002485465,7,1
1.889987e-05,0.0002243987,7,1
-1.367526e-05,0.0002012234,7,1
-3.960571e-05,0.0001796687,7,1
-6.44017e-05,0.0001584381,7,1
-9.600444e-05,0.0001368834,7,1
-0.0001412206,0.0001143563,7,1
-0.0001995642,9.21534e-05,7,1
-0.0002624455,7.173317e-05,7,1
-0.0003141443,5.293359e-05,7,1
-0.0003454229,3.510641e-05,7,1
-0.0003528779,2.003433e-05,7,1
-0.0003365093,1.1769e-05,7,1
-0.0002963172,1.257933e-05,7,1
-0.0002280877,1.954813e-05,7,1
-0.0001334415,2.457216e-05,7,1
-1.691656e-05,2.34377e-05,7,1
0.0001171115,1.64689e-05,7,1
0.0002713977,7.555301e-06,7,1
0.0004412422,2.369211e-06,7,1
0.000599418,5.448452e-06,7,1
0.0007011951,2.068259e-05,7,1
0.0007125397,4.564065e-05,7,1
0.0006321552,7.448828e-05,7,1
0.0004906721,9.896015e-05,7,1
0.0003234207,0.0001164632,7,1
0.0001561692,0.000125863,7,1
7.717366e-06,0.0001278078,7,1
-0.0001050801,0.0001292664,7,1
-0.0001700683,0.0001386662,7,1
-0.0001812508,0.000162976,7,1
-0.0001386276,0.0002023578,7,1
-5.759496e-05,0.0002506533,7,1
3.218923e-05,0.0003054314,7,1
0.0001018773,0.0003626405,7,1
0.0001385041,0.0004174185,7,1
0.0001477418,0.0004637693,7,1
0.0001420695,0.0004906721,7,1
0.000130887,0.0004892136,7,1
0.0001171115,0.0004572867,7,1
9.977047e-05,0.0004004017,7,1
6.995045e-05,0.0003337929,7,1
2.570662e-05,0.0002678322,7,1
-1.383732e-05,0.0002137024,7,1
-2.0482e-05,0.000178048,7,1
2.408596e-05,0.0001628139,7,1
0.0001094944,0.0001689724,7,1
0.0001968476,0.0001910133,7,1
0.0002496809,0.0002216436,7,1
0.0002550291,0.000252436,7,1
0.0002247229,0.0002757735,7,1
0.0001738343,0.0002906835,7,1
0.0001090082,0.0003017039,7,1
2.684107e-05,0.0003145071,7,1
-7.574627e-05,0.0003297412,7,1
-0.000189192,0.0003427064,7,1
-0.0002925897,0.0003423823,7,1
-0.0003624398,0.0003187208,7,1
-0.0003869116,0.0002665357,7,1
-0.0003702189,0.0001848548,7,1
-0.0003275957,8.502253e-05,7,1
-0.0002775176,-1.221667e-05,7,1
-0.0002344082,-9.179074e-05,7,1
-0.0002049123,-0.0001514308,7,1
-0.0001885437,-0.000199078,7,1
-0.0001809267,-0.0002405667,7,1
-0.0001712027,-0.0002804347,7,1
-0.0001428413,-0.0003215994,7,1
-8.44978e-05,-0.000362926,7,1
-2.006553e-06,-0.0003995528,7,1
8.518459e-05,-0.0004259694,7,1
0.00015309,-0.0004400691,7,1
0.0001885823,-0.0004428242,7,1
0.0001965235,-0.0004408794,7,1
0.0001940925,-0.0004376381,7,1
0.0001963614,-0.0004366657,7,1
0.0002112714,-0.000439907,7,1
0.0002329882,-0.000452224,7,1
0.0002388225,-0.0004715097,7,1
0.0002120818,-0.0004907955,7,1
0.0001537382,-0.0005045711,7,1
8.064677e-05,-0.0005108916,7,1
1.1769e-05,-0.0005087847,7,1
-4.333321e-05,-0.0004958195,7,1
-7.623246e-05,-0.000477182,7,1
-7.914964e-05,-0.0004578962,7,1
-4.414354e-05,-0.0004431483,7,1
1.873781e-05,-0.0004339106,7,1
8.453633e-05,-0.0004285624,7,1
0.0001315353,-0.0004168937,7,1
0.0001534141,-0.0003898288,7,1
0.0001573037,-0.0003410472,7,1
0.0001574657,-0.0002655248,7,1
0.0001590864,-0.000164396,7,1
0.0001540623,-4.997789e-05,7,1
0.0001378558,6.217132e-05,7,1
0.0001128978,0.0001539003,7,1
8.79397e-05,0.0002130541,7,1
7.189524e-05,0.0002431983,7,1
6.492643e-05,0.0002543808,7,1
5.893001e-05,0.0002521119,7,1
4.110282e-05,0.0002469258,7,1
-1.358292e-06,0.000249843,7,1
-7.347736e-05,0.0002629703,7,1
-0.000166989,0.0002816078,7,1
-0.0002677937,0.0002997591,7,1
-0.000360495,0.0003111037,7,1
-0.0004298589,0.000309483,7,1
-0.0004601652,0.0002947351,7,1
-0.0004352071,0.0002713977,7,1
-0.0003457471,0.0002540567,7,1
-0.000191623,0.0002566497,7,1
1.387585e-05,0.0002861456,7,1
0.0002427121,0.0003409237,7,1
0.0004548557,0.0004093153,7,1
0.0006106006,0.000483055,7,1
0.0006794783,0.0005542018,7,1
0.0006522514,0.0006127074,7,1
0.0005451261,0.000648848,7,1
0.0003968363,0.0006520892,7,1
0.0002443328,0.0006153004,7,1
0.0001148425,0.0005386435,7,1
2.846173e-05,0.0004321665,7,1
-5.89612e-06,0.0003154794,7,1
3.179537e-06,0.0002104611,7,1
2.748934e-05,0.0001294284,7,1
3.316162e-05,6.962632e-05,7,1
7.485573e-07,2.214118e-05,7,1
-6.0188e-05,-2.485776e-05,7,1
-0.0001217728,-7.979791e-05,7,1
-0.000152079,-0.0001410586,7,1
-0.0001314967,-0.000196647,7,1
-6.845333e-05,-0.0002368392,7,1
8.203562e-06,-0.0002609869,7,1
7.30297e-05,-0.0002763831,7,1
0.0001041462,-0.0002899966,7,1
9.182927e-05,-0.000305879,7,1
3.948217e-05,-0.0003262992,7,1
-4.284701e-05,-0.0003478539,7,1
-0.0001413827,-0.0003663294,7,1
-0.000238946,-0.0003715154,7,1
-0.000325813,-0.0003585502,7,1
-0.0004053871,-0.0003300267,7,1
-0.000479613,-0.0002922655,7,1
-0.0005434667,-0.0002483458,7,1
-0.000578959,-0.0001971332,7,1
-0.0005634008,-0.0001302002,7,1
-0.0004904714,-4.787104e-05,7,1
-0.0003752429,3.364782e-05,7,1
-0.000246239,8.972242e-05,7,1
-0.0001361966,9.588091e-05,7,1
-6.602235e-05,4.239934e-05,7,1
-3.134038e-05,-5.872941e-05,7,1
-9.461558e-06,-0.0001823853,7,1
1.663096e-05,-0.000298424,7,1
4.515445e-05,-0.0003807532,7,1
6.281957e-05,-0.0004230522,7,1
5.828175e-05,-0.0004457413,7,1
3.283749e-05,-0.000474589,7,1
-5.479652e-07,-0.0005206155,7,1
-2.7937e-05,-0.0005786349,7,1
-4.300908e-05,-0.0006314681,7,1
-4.706071e-05,-0.0006653398,7,1
-4.38194e-05,-0.0006739292,7,1
-3.587821e-05,-0.0006629088,7,1
-2.372331e-05,-0.0006420024,7,1
-1.043395e-05,-0.0006191512,7,1
2.531276e-06,-0.0005964621,7,1
1.322759e-05,-0.0005719902,7,1
1.987227e-05,-0.0005444391,7,1
2.651694e-05,-0.0005133225,7,1
4.320967e-05,-0.0004791268,7,1
7.221937e-05,-0.0004387725,7,1
0.0001138702,-0.0003912874,7,1
0.0001702689,-0.0003379679,7,1
0.0002373639,-0.0002802727,7,1
0.0002976523,-0.0002118811,7,1
0.0003339549,-0.0001263107,7,1
0.0003357376,-1.99958e-05,7,1
0.0003013798,9.669123e-05,7,1
0.0002354192,0.0002114335,7,1
0.0001504969,0.0003219621,7,1
6.46023e-05,0.0004415663,7,1
-2.81688e-06,0.0005866149,7,1
-4.041603e-05,0.0007580801,7,1
-4.641245e-05,0.000933597,7,1
-2.550602e-05,0.001073622,7,1
1.079661e-05,0.001139744,7,1
4.839576e-05,0.001116245,7,1
7.610894e-05,0.001017385,7,1
8.79397e-05,0.0008806016,7,1
7.90261e-05,0.0007434942,7,1
5.860588e-05,0.0006321552,7,1
4.499239e-05,0.0005533914,7,1
5.455425e-05,0.000507527,7,1
8.696731e-05,0.0004869446,7,1
0.0001287802,0.0004812723,7,1
0.0001577899,0.0004814344,7,1
0.0001616794,0.0004835413,7,1
0.0001386662,0.0004848378,7,1
0.0001028497,0.000483055,7,1
7.335383e-05,0.0004746277,7,1
6.46023e-05,0.0004558281,7,1
7.67572e-05,0.0004247115,7,1
9.588091e-05,0.000383709,7,1
0.0001002567,0.0003313618,7,1
7.546067e-05,0.000267346,7,1
2.149292e-05,0.0001906891,7,1
-4.38194e-05,0.0001083599,7,1
-9.66527e-05,3.18651e-05,7,1
-0.0001250141,-2.858527e-05,7,1
-0.0001282554,-7.250496e-05,7,1
-0.0001068628,-0.0001058904,7,1
-7.137051e-05,-0.0001355484,7,1
-4.155049e-05,-0.0001582375,7,1
-3.895745e-05,-0.0001708786,7,1
-6.083626e-05,-0.0001789819,7,1
-8.968389e-05,-0.0001937298,7,1
-9.730096e-05,-0.0002282497,7,1
-6.472583e-05,-0.0002856209,7,1
5.286387e-06,-0.0003637363,7,1
8.161915e-05,-0.0004551412,7,1
0.0001214872,-0.0005546492,7,1
0.000101067,-0.0006564262,7,1
2.01964e-05,-0.0007546378,7,1
-0.0001034594,-0.0008389117,7,1
-0.0002433218,-0.0008919071,7,1
-0.0003690845,-0.0008967691,7,1
-0.0004491447,-0.0008458805,7,1
-0.0004648651,-0.0007394037,7,1
-0.0004141386,-0.0005797693,7,1
-0.0003190063,-0.0003745947,7,1
-0.0002169052,-0.0001360346,7,1
-0.0001455964,0.0001244044,7,1
-0.0001229073,0.0003927847,7,1
-0.0001413827,0.0006550064,7,1
-0.0001780095,0.0008875704,7,1
-0.0002052365,0.001057091,7,1
-0.0002073433,0.001131641,7,1
-0.000181737,0.001099228,7,1
-0.0001368449,0.0009752478,7,1
-9.049421e-05,0.0007942207,7,1
-5.743289e-05,0.0005903424,7,1
-4.398147e-05,0.0003882468,7,1
-4.641245e-05,0.0002049509,7,1
-5.289507e-05,5.260946e-05,7,1
-5.176061e-05,-5.921561e-05,7,1
-3.587821e-05,-0.0001305243,7,1
-1.237873e-05,-0.0001674752,7,1
1.209313e-05,-0.0001802784,7,1
3.672706e-05,-0.0001812508,7,1
6.962632e-05,-0.0001799543,7,1
0.0001119254,-0.000179306,7,1
0.0001519555,-0.0001726613,7,1
0.0001814514,-0.0001489998,7,1
0.0002023578,-9.519411e-05,7,1
0.0002279642,-1.691656e-05,7,1
0.0002650771,6.622294e-05,7,1
0.0003138588,0.0001266733,7,1
0.0003642611,0.0001441764,7,1
0.0004020224,0.0001143563,7,1
0.0004136911,4.807163e-05,7,1
0.0003955397,-3.182657e-05,7,1
0.0003542131,-0.0001034594,7,1
0.0003023522,-0.0001538618,7,1
0.0002550291,-0.0001861127,7,1
0.0002305572,-0.0002112329,7,1
0.0002329882,-0.0002434839,7,1
0.0002501671,-0.0002890242,7,1
0.0002592428,-0.0003395886,7,1
0.0002414156,-0.0003843186,7,1
0.0001997648,-0.0004167317,7,1
0.000158114,-0.000442338,7,1
0.000135749,-0.0004663236,7,1
0.0001365593,-0.0004877163,7,1
0.0001428799,-0.0005048952,7,1
0.0001352628,-0.0005164018,7,1
0.0001073875,-0.0005167259,7,1
6.670914e-05,-0.0005026262,7,1
2.846173e-05,-0.0004732924,7,1
5.934648e-06,-0.0004311555,7,1
-3.858999e-07,-0.0003814014,7,1
-3.303076e-06,-0.0003321336,7,1
-1.173047e-05,-0.0002846485,7,1
-3.004385e-05,-0.0002407288,7,1
-6.197072e-05,-0.0001989159,7,1
-0.0001075111,-0.0001504584,7,1
-0.0001527273,-8.158062e-05,7,1
-0.0001801163,1.808955e-05,7,1
-0.0001737958,0.0001470936,7,1
-0.0001392759,0.0002986247,7,1
-9.973194e-05,0.0004564763,7,1
-7.752899e-05,0.0006016869,7,1
-8.465986e-05,0.0007195085,7,1
-0.0001175591,0.0008079963,7,1
-0.0001655305,0.0008780085,7,1
-0.0002178775,0.0009368383,7,1
-0.0002689281,0.0009784892,7,1
-0.0003126857,0.0009888613,7,1
-0.0003441264,0.0009616343,7,1
-0.0003562813,0.0009034528,7,1
-0.00033813,0.0008254994,7,1
-0.0002843243,0.0007376599,7,1
-0.0002170672,0.000641393,7,1
-0.0001674752,0.0005355643,7,1
-0.0001511067,0.0004156358,7,1
-0.0001543479,0.0002827423,7,1
-0.0001473791,0.0001461212,7,1
-0.0001086455,2.295151e-05,7,1
-3.296103e-05,-7.201877e-05,7,1
6.346784e-05,-0.0001391138,7,1
0.0001503349,-0.0001880575,7,1
0.0001991165,-0.0002287359,7,1
0.000202844,-0.0002700626,7,1
0.0001720516,-0.0003164132,7,1
0.0001250527,-0.0003669776,7,1
7.659513e-05,-0.0004181903,7,1
3.802358e-05,-0.0004624341,7,1
1.22552e-05,-0.0004980884,7,1
1.072688e-06,-0.0005274223,7,1
4.151929e-06,-0.0005483287,7,1
1.54965e-05,-0.0005599973,7,1
2.732727e-05,-0.0005575664,7,1
3.105477e-05,-0.0005421702,7,1
2.327564e-05,-0.0005207775,7,1
7.717366e-06,-0.0004959816,7,1
-4.923729e-06,-0.0004724821,7,1
-1.967167e-05,-0.0004507654,7,1
-4.203669e-05,-0.0004340726,7,1
-7.461182e-05,-0.0004233763,7,1
-0.0001136696,-0.0004167317,7,1
-0.0001451102,-0.0004094387,7,1
-0.0001447861,-0.0003982562,7,1
-9.66527e-05,-0.0003797808,7,1
-8.165035e-06,-0.0003527159,7,1
9.134307e-05,-0.0003160891,7,1
0.0001678379,-0.0002663351,7,1
0.0002034923,-0.0002026434,7,1
0.0001979821,-0.0001331174,7,1
0.0001573037,-6.731888e-05,7,1
9.766362e-05,-1.108221e-05,7,1
4.288554e-05,2.992031e-05,7,1
2.052053e-05,4.969229e-05,7,1
3.867184e-05,4.920609e-05,7,1
9.134307e-05,3.705119e-05,7,1
0.0001613553,2.586868e-05,7,1
0.0002278021,2.246531e-05,7,1
0.000274801,2.927205e-05,7,1
0.000294573,4.337174e-05,7,1
0.0002803113,5.909208e-05,7,1
0.0002316917,7.351589e-05,7,1
0.0001545486,8.518459e-05,7,1
5.99024e-05,9.458438e-05,7,1
-3.328516e-05,0.0001086841,7,1
-0.0001052422,0.0001313732,7,1
-0.0001408965,0.0001577899,7,1
-0.0001323071,0.0001816135,7,1
-8.514606e-05,0.0001983062,7,1
-1.983374e-05,0.0002096508,7,1
2.959619e-05,0.0002169437,7,1
3.55926e-05,0.0002213195,7,1
-1.351319e-05,0.0002221298,7,1
-0.0001031353,0.0002216436,7,1
-0.0002084778,0.0002224539,7,1
-0.0003091203,0.0002273159,7,1
-0.0003930701,0.0002359054,7,1
-0.0004441207,0.000244981,7,1
-0.0004444448,0.000252274,7,1
-0.0003838324,0.0002556773,7,1
-0.0002733039,0.0002543808,7,1
-0.000147055,0.0002495189,7,1
-4.544006e-05,0.0002415777,7,1
1.517237e-05,0.0002297469,7,1
4.369587e-05,0.0002088404,7,1
5.293359e-05,0.0001777239,7,1
5.406805e-05,0.0001441764,7,1
4.985435e-05,0.0001206769,7,1
4.499239e-05,0.0001122495,7,1
4.418206e-05,0.0001138702,7,1
4.888196e-05,0.0001185701,7,1
6.346784e-05,0.0001195424,7,1
9.377406e-05,0.0001141943,7,1
0.0001453108,0.0001005808,7,1
0.0002124059,8.42122e-05,7,1
0.0002743149,6.881599e-05,7,1
0.0003034866,5.374392e-05,7,1
0.0002861456,3.834771e-05,7,1
0.000227478,1.873781e-05,7,1
0.0001422316,-5.247859e-06,7,1
5.163707e-05,-2.501983e-05,7,1
-2.42095e-05,-3.749886e-05,7,1
-7.850138e-05,-4.657452e-05,7,1
-0.0001112386,-5.775702e-05,7,1
-0.0001224211,-7.493595e-05,7,1
-0.0001141558,-9.875954e-05,7,1
-8.871149e-05,-0.0001248521,7,1
-5.483985e-05,-0.0001478653,7,1
-2.113026e-05,-0.0001632615,7,1
6.420843e-06,-0.0001686097,7,1
2.797553e-05,-0.0001640719,7,1
4.790957e-05,-0.0001522411,7,1
5.99024e-05,-0.0001373311,7,1
5.471631e-05,-0.0001255003,7,1
3.040651e-05,-0.0001130213,7,1
-1.124428e-05,-9.341139e-05,7,1
-6.796714e-05,-5.727083e-05,7,1
-0.0001332795,-2.238346e-07,7,1
-0.0001906506,7.724339e-05,7,1
-0.0002211189,0.0001718896,7,1
-0.0002196603,0.0002780424,7,1
-0.0001955125,0.0003866261,7,1
-0.0001635857,0.0004796517,7,1
-0.0001266348,0.0005366987,7,1
-7.914964e-05,0.0005477191,7,1
-1.416145e-05,0.0005110924,7,1
7.562274e-05,0.0004313562,7,1
0.000187772,0.0003235827,7,1
0.0003055935,0.0002104611,7,1
0.0004046154,0.0001098185,7,1
0.0004639314,3.008238e-05,7,1
0.0004835413,-2.388537e-05,7,1
0.0004786793,-5.030202e-05,7,1
0.0004666864,-4.949169e-05,7,1
0.0004642555,-2.696461e-05,7,1
0.0004702519,9.013889e-06,7,1
0.0004634451,4.547859e-05,7,1
0.000408505,7.124698e-05,7,1
0.0002827423,8.550872e-05,7,1
0.0001046324,9.393612e-05,7,1
-7.412562e-05,0.0001026876,7,1
-0.0002032917,0.0001146805,7,1
-0.0002572594,0.0001297526,7,1
-0.0002347323,0.0001441764,7,1
-0.0001603444,0.0001564933,7,1
-7.007399e-05,0.0001637863,7,1
1.558884e-06,0.0001590864,7,1
3.575467e-05,0.0001399627,7,1
3.93201e-05,0.0001088461,7,1
3.13789e-05,7.367795e-05,7,1
2.457216e-05,4.272347e-05,7,1
1.808955e-05,2.181705e-05,7,1
2.04508e-06,1.112074e-05,7,1
-2.874733e-05,3.179537e-06,7,1
-6.569822e-05,-6.706447e-06,7,1
-8.757704e-05,-1.643037e-05,7,1
-7.850138e-05,-2.275091e-05,7,1
-4.446767e-05,-2.501983e-05,7,1
-7.354709e-06,-2.404744e-05,7,1
1.095867e-05,-2.210265e-05,7,1
1.883015e-06,-2.485776e-05,7,1
-3.182657e-05,-4.138842e-05,7,1
-7.833932e-05,-7.493595e-05,7,1
-0.0001259865,-0.0001185315,7,1
-0.0001737958,-0.0001642339,7,1
-0.0002206326,-0.000206533,7,1
-0.0002561249,-0.0002405667,7,1
-0.0002703867,-0.0002585559,7,1
-0.0002558008,-0.0002566112,7,1
-0.0002123673,-0.0002415391,7,1
-0.0001489998,-0.0002277635,7,1
-8.206682e-05,-0.0002311669,7,1
-2.923353e-05,-0.0002626076,7,1
-7.516774e-06,-0.0003175477,7,1
-3.069211e-05,-0.0003831841,7,1
-9.924574e-05,-0.000444931,7,1
-0.0002021572,-0.0004857715,7,1
-0.0003092824,-0.0005000332,7,1
-0.0003916115,-0.0004912817,7,1
-0.0004352071,-0.0004713477,7,1
-0.000449793,-0.0004446069,7,1
-0.0004514136,-0.0004099249,7,1
-0.0004512515,-0.0003643846,7,1
-0.0004507654,-0.0003123616,7,1
-0.0004454172,-0.0002635799,7,1
-0.000427428,-0.0002232257,7,1
-0.000392746,-0.0001953505,7,1
-0.0003413713,-0.0001757406,7,1
-0.0002752487,-0.0001554824,7,1
-0.0002003745,-0.000122097,7,1
-0.0001314967,-7.088431e-05,7,1
-8.02841e-05,4.244267e-07,7,1
-5.289507e-05,8.939829e-05,7,1
-4.47918e-05,0.0001827479,7,1
-3.830919e-05,0.0002644289,7,1
-1.399939e-05,0.000329255,7,1
3.526847e-05,0.0003824125,7,1
0.0001005808,0.0004271425,7,1
0.0001644345,0.0004644175,7,1
0.0002031682,0.0004950479,7,1
0.0001921477,0.000512713,7,1
0.0001261871,0.000497803,7,1
2.910999e-05,0.0004311941,7,1
-4.787104e-05,0.0003085106,7,1
-4.997789e-05,0.0001466074,7,1
4.126489e-05,-1.983374e-05,7,1
0.0002012234,-0.0001543479,7,1
0.0003751195,-0.0002384598,7,1
0.0005078511,-0.0002801106,7,1
0.0005783495,-0.0002995585,7,1
0.0006084936,-0.0003110651,7,1
0.0006412309,-0.0003173856,7,1
0.0007000606,-0.0003128478,7,1
0.0007817416,-0.0002917793,7,1
0.0008590469,-0.0002551526,7,1
0.0008961599,-0.0002023193,7,1
0.000861964,-0.000132145,7,1
0.0007503009,-4.495386e-05,7,1
0.000582077,5.682316e-05,7,1
0.000398619,0.0001735102,7,1
0.0002454672,0.0003033245,7,1
0.0001551968,0.0004418904,7,1
0.0001287802,0.000579646,7,1
0.0001453108,0.000705895,7,1
0.000173024,0.0008170719,7,1
0.0001850168,0.0009096113,7,1
0.0001620036,0.0009736272,7,1
0.0001012291,0.001001827,7,1
1.679302e-05,0.0009872407,7,1
-6.926366e-05,0.0009284109,7,1
-0.0001415448,0.0008301992,7,1
-0.0001995642,0.0007037881,7,1
-0.000243808,0.0005666808,7,1
-0.0002684419,0.0004342734,7,1
-0.000266173,0.0003179104,7,1
-0.0002381357,0.0002211574,7,1
-0.0001938919,0.0001394765,7,1
-0.0001512687,6.379197e-05,7,1
-0.000129714,-5.247859e-06,7,1
-0.0001410586,-6.877746e-05,7,1
-0.0001861127,-0.0001366828,7,1
-0.0002528836,-0.0002110708,7,1
-0.0003194925,-0.0002899966,7,1
-0.0003707051,-0.0003640605,7,1
-0.0003935563,-0.0004308313,7,1
-0.0003833462,-0.0004974402,7,1
-0.0003438023,-0.0005729626,7,1
-0.0002899966,-0.0006645294,7,1
-0.0002434839,-0.0007706822,7,1
-0.0002206326,-0.0008761868,7,1
-0.0002274394,-0.0009701846,7,1
-0.0002535319,-0.001051055,7,1
-0.0002733039,-0.001118636,7,1
-0.0002697385,-0.001176818,7,1
-0.0002371633,-0.001236458,7,1
-0.0001831956,-0.001299501,7,1
-0.0001245279,-0.001357521,7,1
-8.320128e-05,-0.001397875,7,1
-7.088431e-05,-0.001408571,7,1
-8.417367e-05,-0.001383289,7,1
-0.0001086455,-0.001325594,7,1
-0.0001311726,-0.00123743,7,1
-0.000142031,-0.001119447,7,1
-0.0001353863,-0.0009611089,7,1
-0.000112211,-0.0007382692,7,1
-7.65566e-05,-0.0004292107,7,1
-3.506788e-05,-4.462973e-05,7,1
3.827799e-06,0.0003618301,7,1
3.543054e-05,0.0007130259,7,1
5.747142e-05,0.0009614723,7,1
6.914012e-05,0.0011049,7,1
7.108491e-05,0.001180261,7,1
6.508849e-05,0.001235363,7,1
5.390598e-05,0.001287062,7,1
3.818565e-05,0.001315261,7,1
1.387585e-05,0.001290141,7,1
-2.404744e-05,0.001193064,7,1
-7.412562e-05,0.001032133,7,1
-0.0001279313,0.0008407335,7,1
-0.0001720131,0.0006545202,7,1
-0.0001925954,0.0004986133,7,1
-0.0001801163,0.0003942432,7,1
-0.0001407345,0.0003559958,7,1
-9.29252e-05,0.0003926226,7,1
-4.446767e-05,0.0004981271,7,1
1.079661e-05,0.0006375034,7,1
8.907416e-05,0.0007559733,7,1
0.0001963614,0.0008086445,7,1
0.0003132105,0.0007738004,7,1
0.0004062361,0.0006580857,7,1
0.000448211,0.000492779,7,1
0.0004334631,0.0003124002,7,1
0.0003746333,0.0001425557,7,1
0.0002965178,-4.599598e-06,7,1
0.0002253711,-0.0001178833,7,1
0.0001793446,-0.0001901644,7,1
0.0001592484,-0.0002237119,7,1
0.0001574657,-0.0002241981,7,1
0.0001639484,-0.0001977815,7,1
0.0001720516,-0.0001499722,7,1
0.0001809652,-7.850138e-05,7,1
0.0001902029,2.570662e-05,7,1
0.0001963614,0.000170593,7,1
0.0001965235,0.0003558337,7,1
0.000187934,0.000567167,7,1
0.000170431,0.0007767176,7,1
0.0001474177,0.0009464002,7,1
0.0001226217,0.001042505,7,1
0.0001038221,0.001047367,7,1
9.766362e-05,0.0009651998,7,1
9.523264e-05,0.0008167478,7,1
8.826383e-05,0.0006281036,7,1
7.57848e-05,0.0004243874,7,1
6.006447e-05,0.00022764,7,1
4.677511e-05,5.390598e-05,7,1
3.867184e-05,-9.19528e-05,7,1
2.878586e-05,-0.000206533,7,1
7.393236e-06,-0.0002872415,7,1
-3.134038e-05,-0.0003366714,7,1
-7.769106e-05,-0.0003634122,7,1
-0.0001139937,-0.0003781601,7,1
-0.0001316588,-0.0003935563,7,1
-0.0001358725,-0.0004170558,7,1
-0.0001384655,-0.0004489826,7,1
-0.0001464067,-0.000484637,7,1
-0.0001598582,-0.0005186707,7,1
-0.0001778474,-0.0005494631,7,1
-0.0001959987,-0.0005757177,7,1
-0.0002107467,-0.0005948414,7,1
-0.0002276015,-0.0006048895,7,1
-0.000248832,-0.0006081308,7,1
-0.0002639041,-0.0006048895,7,1
-0.000256287,-0.000593869,7,1
-0.0002193361,-0.0005792832,7,1
-0.0001613168,-0.0005676145,7,1
-0.0001054042,-0.0005653456,7,1
-7.120844e-05,-0.000574097,7,1
-6.634648e-05,-0.0005909518,7,1
-8.547019e-05,-0.0006125065,7,1
-0.0001128592,-0.0006347094,7,1
-0.0001318209,-0.0006505919,7,1
-0.0001311726,-0.0006585331,7,1
-0.0001076731,-0.0006601537,7,1
-6.877746e-05,-0.0006580469,7,1
-2.566809e-05,-0.0006552918,7,1
8.851824e-06,-0.0006465403,7,1
2.748934e-05,-0.0006254718,7,1
2.34377e-05,-0.0005903036,7,1
-6.382317e-06,-0.0005426564,7,1
-6.035007e-05,-0.000489499,7,1
-0.0001289037,-0.0004425001,7,1
-0.000191623,-0.0004104111,7,1
-0.0002279256,-0.0003943667,7,1
-0.0002170672,-0.0003862634,7,1
-0.0001572651,-0.0003770257,7,1
-5.548811e-05,-0.0003575778,7,1
7.011252e-05,-0.0003250027,7,1
0.0001965235,-0.0002789762,7,1
0.0002898731,-0.0002188499,7,1
0.0003245551,-0.0001454344,7,1
0.0003010556,-6.310517e-05,7,1
0.0002444948,1.825161e-05,7,1
0.0001926339,9.426025e-05,7,1
0.0001752929,0.0001603829,7,1
0.0002034923,0.0002091646,7,1
0.0002610255,0.0002372019,7,1
0.000316776,0.0002472499,7,1
0.0003443271,0.000252274,7,1
0.0003320101,0.0002613496,7,1
0.000289387,0.0002760976,7,1
0.0002372019,0.0002926282,7,1
0.0002041406,0.0003033245,7,1
0.0002049509,0.000302028,7,1
0.0002292607,0.0002913317,7,1
0.000252274,0.0002718839,7,1
0.0002508154,0.0002461155,7,1
0.0002114335,0.0002193747,7,1
0.0001367214,0.0001947408,7,1
4.82337e-05,0.0001691344,7,1
-2.696461e-05,0.0001412592,7,1
-7.299116e-05,0.0001116012,7,1
-8.82253e-05,8.356394e-05,7,1
-8.012204e-05,5.909208e-05,7,1
-6.180866e-05,4.077869e-05,7,1
-4.219875e-05,3.429608e-05,7,1
-2.42095e-05,4.369587e-05,7,1
-8.651231e-06,6.525056e-05,7,1
3.341602e-06,9.507057e-05,7,1
9.500085e-06,0.0001281319,7,1
7.393236e-06,0.0001595726,7,1
-4.599598e-06,0.000185341,7,1
-2.242678e-05,0.0002090025,7,1
-4.560212e-05,0.0002368777,7,1
-7.801519e-05,0.0002696149,7,1
-0.0001143178,0.0003049452,7,1
-0.0001366828,0.0003449753,7,1
-0.0001279313,0.0003976466,7,1
-9.162867e-05,0.0004715484,7,1
-4.916756e-05,0.0005694359,7,1
-2.113026e-05,0.0006913091,7,1
-1.578211e-05,0.0008340888,7,1
-2.129233e-05,0.0009901578,7,1
-2.0482e-05,0.001142175,7,1
-5.247859e-06,0.001266966,7,1
2.311357e-05,0.001338923,7,1
5.811968e-05,0.001338923,7,1
9.31258e-05,0.001263725,7,1
0.0001166253,0.001127427,7,1
0.0001026876,0.0009536931,7,1
1.889987e-05,0.0007695867,7,1
-0.0001442999,0.0006047662,7,1
-0.000350609,0.0004760863,7,1
-0.0005429805,0.0003859779,7,1
-0.0006721465,0.0003240689,7,1
-0.0007168766,0.0002705873,7,1
-0.000688191,0.0002081922,7,1
-0.0006165582,0.0001354248,7,1
-0.0005272602,6.217132e-05,7,1
-0.0004352071,-8.720959e-07,7,1
-0.0003507711,-5.354332e-05,7,1
-0.0002846485,-0.0001024871,7,1
-0.000238784,-0.0001517549,7,1
-0.000204102,-0.0002008607,7,1
-0.0001734716,-0.0002472114,7,1
-0.0001465688,-0.000288538,7,1
-0.0001339277,-0.0003238683,7,1
-0.0001391138,-0.0003523917,7,1
-0.0001596961,-0.0003773498,7,1
-0.0001806025,-0.0004024699,7,1
-0.0001901644,-0.0004272659,7,1
-0.0001773612,-0.0004507654,7,1
-0.0001350622,-0.0004687546,7,1
-6.81292e-05,-0.0004779923,7,1
1.371378e-05,-0.0004805854,7,1
0.0001017153,-0.0004794509,7,1
0.0001921477,-0.0004794509,7,1
0.0002806354,-0.0004835025,7,1
0.0003624784,-0.0004903093,7,1
0.0004277907,-0.0004940368,7,1
0.0004610142,-0.0004927403,7,1
0.0004517764,-0.0004825302,7,1
0.0004020224,-0.0004635685,7,1
0.0003300653,-0.0004415277,7,1
0.0002637806,-0.0004224039,7,1
0.0002268297,-0.0004097628,7,1
0.0002282883,-0.0004008493,7,1
0.0002537325,-0.0003919357,7,1
0.000282256,-0.0003797808,7,1
0.0002952213,-0.000360495,7,1
0.0002906835,-0.0003335922,7,1
0.0002804733,-0.0003026377,7,1
0.0002819319,-0.000271197,7,1
0.0003073762,-0.0002412149,7,1
0.0003542131,-0.0002130156,7,1
0.0004065602,-0.0001856265,7,1
0.0004439973,-0.0001579134,7,1
0.0004402698,-0.0001316588,7,1
0.0003749574,-0.0001091317,7,1
0.0002464396,-9.2439e-05,7,1
8.129502e-05,-7.898758e-05,7,1
-7.088431e-05,-6.180866e-05,7,1
-0.0001596961,-3.604027e-05,7,1
-0.0001590478,-1.682422e-06,7,1
-7.169464e-05,3.656499e-05,7,1
7.432621e-05,6.83298e-05,7,1
0.0002342847,8.875003e-05,7,1
0.0003623164,9.733949e-05,7,1
0.000428277,0.0001009049,7,1
0.0004261701,0.0001103047,7,1
0.0003675024,0.0001304008,7,1
0.0002767458,0.0001624898,7,1
0.0001739964,0.0002047888,7,1
6.881599e-05,0.0002521119,7,1
-3.26369e-05,0.0003005694,7,1
-0.0001209625,0.0003469201,7,1
-0.0001877334,0.0003864641,7,1
-0.0002279256,0.0004112601,7,1
-0.0002400805,0.0004141773,7,1
-0.0002353806,0.0003921364,7,1
-0.0002284118,0.0003517821,7,1
-0.0002274394,0.0002984626,7,1
-0.000231329,0.0002372019,7,1
-0.0002327876,0.0001723757,7,1
-0.0002300324,0.0001072255,7,1
-0.0002269532,3.98063e-05,7,1
-0.0002311669,-3.247483e-05,7,1
-0.0002478596,-0.0001057284,7,1
-0.0002767073,-0.0001708786,7,1
-0.0003097686,-0.0002211189,7,1
-0.0003425058,-0.0002580697,7,1
-0.0003739464,-0.0002901587,7,1
-0.0004070078,-0.0003238683,7,1
-0.0004421759,-0.0003579019,7,1
-0.000469727,-0.000387884,7,1
-0.0004775062,-0.0004058733,7,1
-0.0004569239,-0.0004078181,7,1
-0.0004074939,-0.0003930701,7,1
-0.0003319715,-0.0003638984,7,1
-0.0002282497,-0.0003225718,7,1
-0.0001067007,-0.0002720074,7,1
7.717366e-06,-0.00021415,7,1
9.490851e-05,-0.0001515928,7,1
0.0001420695,-8.287715e-05,7,1
0.0001425557,-4.113403e-06,7,1
9.944634e-05,8.080883e-05,7,1
2.34377e-05,0.0001626518,7,1
-6.893953e-05,0.0002326641,7,1
-0.0001562927,0.0002874421,7,1
-0.000219012,0.0003256896,7,1
-0.0002417012,0.0003522683,7,1
-0.0002185258,0.0003699334,7,1
-0.0001449482,0.0003796573,7,1
-3.198864e-05,0.0003803056,7,1
0.0001033359,0.0003746333,7,1
0.0002397949,0.0003681507,7,1
0.0003525924,0.0003696093,7,1
0.0004237391,0.0003845193,7,1
0.0004517764,0.0004052637,7,1
0.0004459421,0.0004192013,7,1
0.0004172565,0.0004164462,7,1
0.0003717161,0.0003989431,7,1
0.0003140208,0.0003668542,7,1
0.0002561635,0.0003205035,7,1
0.0002049509,0.000254867,7,1
0.0001561692,0.0001701068,7,1
0.0001046324,7.594687e-05,7,1
4.693717e-05,-1.092015e-05,7,1
-1.707863e-05,-7.542214e-05,7,1
-8.40116e-05,-0.0001104282,7,1
-0.0001412206,-0.0001243659,7,1
-0.0001754164,-0.0001331174,7,1
-0.0001778474,-0.0001483515,7,1
-0.0001439758,-0.0001682856,7,1
-8.303922e-05,-0.0001859507,7,1
-1.643037e-05,-0.0001953505,7,1
3.202716e-05,-0.0001972953,7,1
5.325772e-05,-0.0001972953,7,1
4.82337e-05,-0.0001994021,7,1
2.635488e-05,-0.0001998883,7,1
1.002961e-07,-0.0001945401,7,1
-1.67545e-05,-0.0001773612,7,1
-8.002969e-06,-0.0001430034,7,1
4.466826e-05,-9.600444e-05,7,1
0.0001362352,-4.349527e-05,7,1
0.0002368777,4.80019e-06,7,1
0.0003067279,4.434413e-05,7,1
0.0003200173,7.594687e-05,7,1
0.0002775562,0.0001067393,7,1
0.0002034923,0.0001398006,7,1
0.0001376938,0.0001725378,7,1
0.0001083599,0.0002030061,7,1
0.0001193804,0.0002203471,7,1
0.0001535762,0.0002138645,7,1
0.0001869616,0.0001809652,7,1
0.0001974959,0.0001325077,7,1
0.0001764274,8.097089e-05,7,1
0.0001320215,3.737532e-05,7,1
8.04847e-05,5.610517e-06,7,1
3.348575e-05,-1.497178e-05,7,1
-6.706447e-06,-2.728874e-05,7,1
-4.025397e-05,-3.425755e-05,7,1
-7.23429e-05,-3.571614e-05,7,1
-0.0001078352,-3.247483e-05,7,1
-0.0001499722,-2.826114e-05,7,1
-0.0001875713,-3.231277e-05,7,1
-0.0002039399,-5.305713e-05,7,1
-0.0001890299,-9.211487e-05,7,1
-0.0001441378,-0.000149486,7,1
-8.547019e-05,-0.000228898,7,1
-2.939559e-05,-0.0003233821,7,1
2.278944e-05,-0.0004136524,7,1
8.145709e-05,-0.0004791268,7,1
0.000145797,-0.0005115399,7,1
0.0001983062,-0.0005227224,7,1
0.0002161334,-0.0005399013,7,1
0.0001801549,-0.0005844692,7,1
8.729144e-05,-0.0006564262,7,1
-4.155049e-05,-0.0007372968,7,1
-0.0001750923,-0.00080974,7,1
-0.0002799486,-0.0008719731,7,1
-0.0003279199,-0.0009345302,7,1
-0.000318196,-0.001013132,7,1
-0.0002724935,-0.001106806,7,1
-0.0002217671,-0.001196752,7,1
-0.0001904885,-0.001259309,7,1
-0.0001807646,-0.001266764,7,1
-0.0001650443,-0.001197076,7,1
-0.000117235,-0.001044248,7,1
-3.976777e-05,-0.0008165467,7,1
2.76514e-05,-0.0005308256,7,1
4.418206e-05,-0.0001948643,7,1
2.623614e-07,0.0001887444,7,1
-7.882551e-05,0.0006128695,7,1
-0.0001527273,0.001051581,7,1
-0.0001875713,0.00146031,7,1
-0.0001702304,0.001795624,7,1
-0.0001067007,0.002037913,7,1
-1.983374e-05,0.002204354,7,1
7.059871e-05,0.00233498,7,1
0.0001501728,0.002464633,7,1
0.0002072198,0.002596392,7,1
0.0002344468,0.002690877,7,1
0.0002321778,0.002681801,7,1
0.0002059233,0.00251698,7,1
0.0001633001,0.002192686,7,1
0.0001206769,0.001754622,7,1
8.907416e-05,0.001281552,7,1
6.735741e-05,0.000846892,7,1
4.515445e-05,0.000490348,7,1
1.808955e-05,0.0002213195,7,1
-1.610624e-05,3.462021e-05,7,1
-5.257093e-05,-8.060823e-05,7,1
-8.611845e-05,-0.000142031,7,1
-0.0001114006,-0.000166989,7,1
-0.0001263107,-0.0001741199,7,1
-0.0001277692,-0.0001786577,7,1
-0.0001161005,-0.0001840059,7,1
-9.616651e-05,-0.0001885437,7,1
-7.201877e-05,-0.0001906506,7,1
-4.527799e-05,-0.0001893541,7,1
-1.805102e-05,-0.0001869231,7,1
6.258778e-06,-0.000179306,7,1
2.39239e-05,-0.0001605064,7,1
2.894792e-05,-0.0001264727,7,1
1.59827e-05,-8.465986e-05,7,1
-1.383732e-05,-6.148453e-05,7,1
-5.532604e-05,-7.850138e-05,7,1
-9.811128e-05,-0.0001363587,7,1
-0.0001276072,-0.0002258187,7,1
-0.0001282554,-0.0003347266,7,1
-9.017008e-05,-0.0004556273,7,1
-8.165035e-06,-0.0005859278,7,1
0.0001116012,-0.0007167145,7,1
0.0002466017,-0.0008358325,7,1
0.0003611819,-0.0009309648,7,1
0.0004227667,-0.001000977,7,1
0.0004099636,-0.001058672,7,1
0.0003235827,-0.001121392,7,1
0.0001926339,-0.001205341,7,1
5.649903e-05,-0.001312791,7,1
-5.305713e-05,-0.001432881,7,1
-0.0001217728,-0.001539196,7,1
-0.0001489998,-0.001607101,7,1
-0.0001459206,-0.001623308,7,1
-0.0001208004,-0.001587167,7,1
-8.174268e-05,-0.001507107,7,1
-4.138842e-05,-0.001385558,7,1
-2.145439e-05,-0.001214903,7,1
-3.522994e-05,-0.0009734259,7,1
-7.428769e-05,-0.0006264441,7,1
-0.0001170729,-0.0001509446,7,1
-0.0001376552,0.0004132049,7,1
-0.0001180453,0.0009711962,7,1
-6.132246e-05,0.001413311,7,1
1.59827e-05,0.001642634,7,1
8.453633e-05,0.001613948,7,1
0.0001201907,0.001356912,7,1
0.0001096565,0.000958393,7,1
6.217132e-05,0.0005310264,7,1
2.693341e-06,0.000170593,7,1
-4.203669e-05,-7.282909e-05,7,1
-5.775702e-05,-0.0002008607,7,1
-6.002594e-05,-0.000243808,7,1
-6.893953e-05,-0.0002365151,7,1
-9.989401e-05,-0.0002039399,7,1
-0.0001467309,-0.0001655305,7,1
-0.0001864369,-0.0001274451,7,1
-0.0001934057,-9.114248e-05,7,1
-0.0001579134,-5.629844e-05,7,1
-9.324933e-05,-2.404744e-05,7,1
-2.809907e-05,-3.627206e-06,7,1
1.517237e-05,-1.196227e-06,7,1
3.18651e-05,-1.869928e-05,7,1
3.235129e-05,-5.289507e-05,7,1
2.619281e-05,-9.600444e-05,7,1
1.095867e-05,-0.0001454344,7,1
-2.258885e-05,-0.0001964849,7,1
-7.347736e-05,-0.0002431597,7,1
-0.0001302002,-0.0002768693,7,1
-0.0001828714,-0.0002924276,7,1
-0.0002235498,-0.0002914552,7,1
-0.0002483458,-0.0002789762,7,1
-0.000256287,-0.0002601766,7,1
-0.000246401,-0.0002392702,7,1
-0.0002109087,-0.0002198223,7,1
-0.0001438137,-0.0002036158,7,1
-4.770897e-05,-0.0001862748,7,1
6.071273e-05,-0.0001655305,7,1
0.0001636242,-0.0001399241,7,1
0.0002448189,-0.0001120489,7,1
0.0002960316,-8.368748e-05,7,1
0.0003089969,-5.613637e-05,7,1
0.0002850112,-2.89094e-05,7,1
0.0002337985,-1.358292e-06,7,1
0.0001739964,2.327564e-05,7,1
0.0001287802,4.580272e-05,7,1
0.0001117633,7.076078e-05,7,1
0.0001273216,9.798775e-05,7,1
0.0001658931,0.0001235941,7,1
0.0002109473,0.0001427178,7,1
0.0002475741,0.0001540623,7,1
0.0002636185,0.0001610312,7,1
0.0002564877,0.0001701068,7,1
0.0002290986,0.0001827479,7,1
0.0001902029,0.0002010613,7,1
0.0001527658,0.0002234263,7,1
0.0001245665,0.0002459534,7,1
0.000113384,0.0002621599,7,1
0.0001224596,0.0002660495,7,1
0.0001469315,0.0002592428,7,1
0.0001767515,0.0002483844,7,1
0.0002047888,0.0002378501,7,1
0.0002242366,0.0002303951,7,1
0.0002232643,0.0002261814,7,1
0.0001970097,0.0002248849,7,1
0.0001524417,0.0002260194,7,1
0.0001009049,0.0002287745,7,1
5.1475e-05,0.0002355812,7,1
3.341602e-06,0.0002457913,7,1
-5.402952e-05,0.0002542187,7,1
-0.0001279313,0.0002568118,7,1
-0.0002131776,0.0002485465,7,1
-0.0002966413,0.0002333123,7,1
-0.0003588744,0.000217754,7,1
-0.0003865875,0.0002075439,7,1
-0.0003788084,0.000202844,7,1
-0.000345585,0.0002034923,7,1
-0.0003002067,0.0002039785,7,1
-0.0002595283,0.0001971717,7,1
-0.0002386219,0.0001786963,7,1
-0.0002329496,0.0001498487,7,1
-0.0002280877,0.0001128978,7,1
-0.0002076674,6.670914e-05,7,1
-0.0001684476,7.555301e-06,7,1
-0.0001240417,-5.824322e-05,7,1
-9.713889e-05,-0.0001209625,7,1
-9.892161e-05,-0.0001715269,7,1
-0.0001248521,-0.0002013469,7,1
-0.0001579134,-0.0002120432,7,1
-0.0001726613,-0.0002113949,7,1
-0.0001572651,-0.0002076674,7,1
-0.0001165867,-0.0002052365,7,1
-6.764301e-05,-0.0002005366,7,1
-3.117831e-05,-0.0001853024,7,1
-1.886135e-05,-0.0001522411,7,1
-2.09682e-05,-9.713889e-05,7,1
-2.194059e-05,-1.983374e-05,7,1
-1.173047e-05,8.210535e-05,7,1
1.760335e-05,0.0002109473,7,1
6.03886e-05,0.000359075,7,1
0.0001030118,0.0005102821,7,1
0.0001273216,0.0006362069,7,1
0.0001201907,0.0007146465,7,1
8.097089e-05,0.000735553,7,1
1.711715e-05,0.0007065432,7,1
-5.970181e-05,0.0006441481,7,1
-0.000127121,0.0005673291,7,1
-0.0001601823,0.0004906721,7,1
-0.0001536997,0.0004190393,7,1
-0.0001225832,0.0003530786,7,1
-9.486997e-05,0.00029198,7,1
-8.547019e-05,0.0002396328,7,1
-9.065628e-05,0.0001976579,7,1
-9.179074e-05,0.0001642725,7,1
-6.861539e-05,0.0001399627,7,1
-1.399939e-05,0.0001231079,7,1
5.309566e-05,0.0001128978,7,1
0.0001015532,0.0001077117,7,1
0.0001086841,0.0001026876,7,1
7.076078e-05,9.280167e-05,7,1
9.986281e-06,7.837785e-05,7,1
-4.138842e-05,6.006447e-05,7,1
-6.699475e-05,4.094075e-05,7,1
-7.55842e-05,2.100672e-05,7,1
-7.590833e-05,4.244267e-07,7,1
-6.683268e-05,-1.691656e-05,7,1
-3.21507e-05,-2.874733e-05,7,1
4.920609e-05,-3.652646e-05,7,1
0.0001918236,-4.511593e-05,7,1
0.0003871123,-5.500191e-05,7,1
0.0005948802,-6.521203e-05,7,1
0.0007548388,-6.861539e-05,7,1
0.0008185305,-6.504996e-05,7,1
0.0007909794,-5.192267e-05,7,1
0.0007287462,-3.182657e-05,7,1
0.0006951987,-1.448558e-05,7,1
0.0007146465,-4.599598e-06,7,1
0.0007762314,-6.544382e-06,7,1
0.0008431645,-2.177852e-05,7,1
0.0008695811,-4.495386e-05,7,1
0.0008162616,-6.650855e-05,7,1
0.0006691061,-7.704279e-05,7,1
0.0004550177,-7.072225e-05,7,1
0.0002221298,-4.932962e-05,7,1
1.630683e-05,-2.291298e-05,7,1
-0.000137169,-4.599598e-06,7,1
-0.0002382978,2.623614e-07,7,1
-0.0003015032,-7.516774e-06,7,1
-0.0003423437,-2.437157e-05,7,1
-0.0003664914,-4.754691e-05,7,1
-0.0003776739,-7.65566e-05,7,1
-0.0003857772,-0.0001094559,7,1
-0.000400201,-0.0001408965,7,1
-0.0004232143,-0.0001632615,7,1
-0.000444931,-0.0001723372,7,1
-0.000449955,-0.0001710407,7,1
-0.0004288866,-0.0001666649,7,1
-0.0003899909,-0.00016942,7,1
-0.0003502849,-0.0001856265,7,1
-0.0003203028,-0.0002123673,7,1
-0.0002864312,-0.0002423494,7,1
-0.0002222533,-0.0002648765,7,1
-0.0001219349,-0.0002733039,7,1
-7.840905e-06,-0.0002681178,7,1
8.502253e-05,-0.0002532078,7,1
0.0001271595,-0.000233922,7,1
0.0001007429,-0.0002233878,7,1
1.355172e-05,-0.0002350565,7,1
-0.0001058904,-0.0002733039,7,1
-0.0002277635,-0.0003264613,7,1
-0.0003225718,-0.0003794566,7,1
-0.000370543,-0.0004194868,7,1
-0.0003681121,-0.0004433104,7,1
-0.0003238683,-0.0004546549,7,1
-0.0002603387,-0.0004609755,7,1
-0.0001977815,-0.0004656754,7,1
-0.0001459206,-0.0004694029,7,1
-0.0001028112,-0.0004687546,7,1
-6.148453e-05,-0.0004554653,7,1
-8.651231e-06,-0.0004227281,7,1
6.525056e-05,-0.0003731361,7,1
0.0001490383,-0.000313334,7,1
0.0002140265,-0.0002517492,7,1
0.0002357433,-0.0001963229,7,1
0.000207706,-0.0001522411,7,1
0.0001398006,-0.0001232314,7,1
5.228533e-05,-0.0001101041,7,1
-3.247483e-05,-0.000112373,7,1
-9.600444e-05,-0.0001232314,7,1
-0.0001259865,-0.0001300382,7,1
-0.0001206384,-0.0001183694,7,1
-8.498399e-05,-7.282909e-05,7,1
-3.26369e-05,9.824215e-06,7,1
2.246531e-05,0.0001197045,7,1
6.703327e-05,0.0002409294,7,1
9.118101e-05,0.0003512959,7,1
7.886404e-05,0.0004329769,7,1
1.565857e-05,0.0004790034,7,1
-9.162867e-05,0.0004948858,7,1
-0.0002097743,0.000492779,7,1
-0.000301017,0.0004814344,7,1
-0.0003472056,0.0004602039,7,1
-0.0003585502,0.0004253598,7,1
-0.0003548227,0.0003770643,7,1
-0.0003446126,0.0003161277,7,1
-0.000325651,0.0002490327,7,1
-0.0002921034,0.00018291,7,1
-0.0002428356,0.0001197045,7,1
-0.0001814128,5.860588e-05,7,1
-0.0001141558,5.772582e-06,7,1
-4.592625e-05,-2.664048e-05,7,1
1.679302e-05,-2.955766e-05,7,1
6.946425e-05,-2.006553e-06,7,1
0.0001065772,5.115087e-05,7,1
0.0001245665,0.0001240803,7,1
0.0001206769,0.0002083542,7,1
9.604298e-05,0.0002918179,7,1
5.001642e-05,0.0003632887,7,1
-5.085794e-06,0.0004156358,7,1
-4.219875e-05,0.0004439973,7,1
-3.895745e-05,0.000440756,7,1
4.313994e-06,0.0003989431,7,1
6.298164e-05,0.0003219621,7,1
0.0001091703,0.0002190506,7,1
0.0001295905,0.0001052807,7,1
0.0001240803,-8.720959e-07,7,1
9.879808e-05,-8.158062e-05,7,1
6.41161e-05,-0.0001203142,7,1
3.040651e-05,-0.0001133454,7,1
4.313994e-06,-7.769106e-05,7,1
-7.030578e-06,-4.05781e-05,7,1
-3.951337e-06,-2.647842e-05,7,1
2.04508e-06,-4.932962e-05,7,1
1.720949e-06,-0.0001042698,7,1
-4.275467e-06,-0.0001728234,7,1
-1.034161e-06,-0.0002308428,7,1
2.554455e-05,-0.0002606628,7,1
7.67572e-05,-0.0002564491,7,1
0.0001393144,-0.0002191741,7,1
0.000195227,-0.000144624,7,1
0.0002316917,-2.84232e-05,7,1
0.0002444948,0.0001302388,7,1
0.000235095,0.0003153174,7,1
0.0002072198,0.0004924549,7,1
0.0001633001,0.0006180556,7,1
0.0001099806,0.0006624615,7,1
4.969229e-05,0.0006156246,7,1
-5.89612e-06,0.0004937514,7,1
-4.414354e-05,0.0003339549,7,1
-5.727083e-05,0.0001709172,7,1
-4.738484e-05,2.376183e-05,7,1
-1.983374e-05,-0.0001039456,7,1
1.355172e-05,-0.0002172293,7,1
4.142696e-05,-0.0003261372,7,1
5.860588e-05,-0.0004429862,7,1
6.281957e-05,-0.0005747453,7,1
5.19612e-05,-0.0007147697,7,1
2.862379e-05,-0.0008483115,7,1
2.693341e-06,-0.0009578677,7,1
-1.805102e-05,-0.001033228,7,1
-2.988179e-05,-0.001070179,7,1
-3.766092e-05,-0.001070503,7,1
-4.657452e-05,-0.001047652,7,1
-6.197072e-05,-0.001010053,7,1
-8.352541e-05,-0.0009520333,7,1
-0.0001075111,-0.000857063,7,1
-0.0001267968,-0.0007074767,7,1
-0.0001279313,-0.000489499,7,1
-0.0001016767,-0.0001927574,7,1
-4.592625e-05,0.0001786963,7,1
3.008238e-05,0.0005871011,7,1
0.0001088461,0.0009674687,7,1
0.0001675138,0.001259997,7,1
0.0001801549,0.001441835,7,1
0.0001461212,0.001527729,7,1
9.31258e-05,0.00154977,7,1
5.828175e-05,0.001527568,7,1
5.876794e-05,0.001455286,7,1
9.020862e-05,0.001309589,7,1
0.0001362352,0.001081725,7,1
0.0001785342,0.0007926,7,1
0.0001961994,0.000485324,7,1
0.0001736723,0.0002047888,7,1
0.0001137081,-1.480971e-05,7,1
4.369587e-05,-0.0001652063,7,1
-3.14101e-06,-0.0002564491,7,1
-2.492749e-06,-0.0003115513,7,1
4.369587e-05,-0.0003501228,7,1
0.0001177597,-0.0003882082,7,1
0.0002031682,-0.0004314796,7,1
0.0002901973,-0.0004708614,7,1
0.000368961,-0.0004810716,7,1
0.0004230909,-0.0004400691,7,1
0.0004401077,-0.000348016,7,1
0.0004219564,-0.0002254946,7,1
0.0003781987,-9.616651e-05,7,1
0.0003175863,1.306552e-05,7,1
0.0002483844,7.853991e-05,7,1
0.0001739964,9.588091e-05,7,1
9.442231e-05,7.497447e-05,7,1
1.873781e-05,2.829966e-05,7,1
-3.976777e-05,-4.236082e-05,7,1
-6.602235e-05,-0.0001399241,7,1
-5.59743e-05,-0.0002671454,7,1
-2.615429e-05,-0.000422566,7,1
-4.275467e-06,-0.0005907898,7,1
-9.785688e-06,-0.000755124,7,1
-4.495386e-05,-0.0009003344,7,1
-9.892161e-05,-0.001018318,7,1
-0.0001582375,-0.001104861,7,1
-0.0002099363,-0.001156884,7,1
-0.0002442942,-0.00116288,7,1
-0.0002522354,-0.00110713,7,1
-0.0002331117,-0.000976181,7,1
-0.0001979435,-0.0007708443,7,1
-0.0001642339,-0.0005121881,7,1
-0.000147055,-0.0002311669,7,1
-0.0001460826,4.888196e-05,7,1
-0.0001493239,0.0003274723,7,1
-0.0001434896,0.0006328035,7,1
-0.0001266348,0.001000368,7,1
-0.0001037836,0.001439404,7,1
-8.838737e-05,0.001907125,7,1
-9.762509e-05,0.002316504,7,1
-0.0001381414,0.002567706,7,1
-0.0002036158,0.00259153,7,1
-0.0002775176,0.002381492,7,1
-0.0003441264,0.001999827,7,1
-0.0003961493,0.001546529,7,1
-0.0004322899,0.001123052,7,1
-0.0004484965,0.0007990826,7,1
-0.0004376381,0.0006012007,7,1
-0.0003875599,0.0005136854,7,1
-0.0002877277,0.0004875929,7,1
-0.0001373311,0.0004657141,7,1
4.499239e-05,0.0004083429,7,1
0.0002132162,0.0002987867,7,1
0.0003132105,0.0001417454,7,1
0.0003124002,-3.733679e-05,7,1
0.0002205092,-0.0002105846,7,1
9.101894e-05,-0.0003562813,7,1
-1.934754e-05,-0.0004643789,7,1
-8.125649e-05,-0.0005352014,7,1
-9.859748e-05,-0.0005729626,7,1
-8.968389e-05,-0.0005872243,7,1
-7.299116e-05,-0.0005909518,7,1
-5.548811e-05,-0.0006013241,7,1
-4.025397e-05,-0.0006300096,7,1
-3.150244e-05,-0.0006771705,7,1
-3.458168e-05,-0.0007325969,7,1
-5.257093e-05,-0.000782351,7,1
-8.547019e-05,-0.0008162226,7,1
-0.0001243659,-0.000829674,7,1
-0.0001546721,-0.0008215707,7,1
-0.0001632615,-0.0007988816,7,1
-0.0001475412,-0.0007682513,7,1
-0.0001060525,-0.0007411864,7,1
-4.041603e-05,-0.0007272488,7,1
3.996837e-05,-0.0007277349,7,1
0.0001269974,-0.0007379451,7,1
0.0002145127,-0.0007488034,7,1
0.0003041349,-0.0007567446,7,1
0.0003934329,-0.0007594998,7,1
0.0004809482,-0.0007556102,7,1
0.0005576051,-0.0007423208,7,1
0.0006057385,-0.0007181731,7,1
0.0006118971,-0.0006828429,7,1
0.0005728393,-0.000643299,7,1
0.000497803,-0.0006050515,7,1
0.0004062361,-0.0005706937,7,1
0.0003151553,-0.0005360117,7,1
0.0002287745,-0.0004984126,7,1
0.0001534141,-0.0004520619,7,1
9.620504e-05,-0.0003935563,7,1
6.330578e-05,-0.0003225718,7,1
5.56887e-05,-0.0002431597,7,1
7.30297e-05,-0.0001549962,7,1
0.0001046324,-6.342931e-05,7,1
0.0001365593,2.716521e-05,7,1
0.0001511452,0.0001128978,7,1
0.0001360731,0.0001910133,7,1
9.21534e-05,0.0002543808,7,1
3.105477e-05,0.0002955454,7,1
-3.539201e-05,0.0003132105,7,1
-9.535618e-05,0.0003083486,7,1
-0.0001405724,0.0002854973,7,1
-0.0001676373,0.0002495189,7,1
-0.000179306,0.0002106232,7,1
-0.0001880575,0.0001783722,7,1
-0.0002037779,0.0001584381,7,1
-0.0002293842,0.0001477418,7,1
-0.000256287,0.0001422316,7,1
-0.0002791382,0.0001362352,7,1
-0.000298424,0.0001292664,7,1
-0.0003217614,0.0001273216,7,1
-0.0003540124,0.0001378558,7,1
-0.0003896668,0.0001645966,7,1
-0.0004149489,0.0002047888,7,1
-0.0004172179,0.0002532463,7,1
-0.0004013355,0.0003080245,7,1
-0.0003909633,0.000366368,7,1
-0.000410087,0.0004245494,7,1
-0.0004729683,0.0004746277,7,1
-0.0005692351,0.0005037994,7,1
-0.0006620985,0.0004971547,7,1
-0.000700508,0.0004498317,7,1
-0.0006548056,0.0003705817,7,1
-0.0005387668,0.0002785285,7,1
-0.0003989045,0.0001898788,7,1
-0.0002804347,0.0001182459,7,1
-0.0002010227,6.865393e-05,7,1
-0.0001467309,4.02925e-05,7,1
-9.486997e-05,2.295151e-05,7,1
-2.631635e-05,2.531276e-06,7,1
6.816773e-05,-2.777494e-05,7,1
0.0001885823,-6.780507e-05,7,1
0.000316938,-0.0001068628,7,1
0.0004167703,-0.0001344139,7,1
0.0004577728,-0.0001449482,7,1
0.0004329769,-0.0001415448,7,1
0.0003686369,-0.0001279313,7,1
0.0003023522,-0.00010978,7,1
0.0002665357,-9.179074e-05,7,1
0.0002741528,-7.493595e-05,7,1
0.0003171001,-6.0188e-05,7,1
0.0003751195,-4.884343e-05,7,1
0.0004242253,-3.992984e-05,7,1
0.0004545315,-3.020592e-05,7,1
0.0004665244,-1.3027e-05,7,1
0.0004584211,1.257933e-05,7,1
0.0004248736,4.369587e-05,7,1
0.0003642611,7.821578e-05,7,1
0.0002890628,0.0001141943,7,1
0.0002182402,0.0001504969,7,1
0.0001639484,0.000185503,7,1
0.0001316974,0.0002198609,7,1
0.0001171115,0.0002508154,7,1
0.0001128978,0.0002783665,7,1
0.0001132219,0.000304297,7,1
0.0001120874,0.0003315239,7,1
0.0001026876,0.0003613439,7,1
8.923623e-05,0.0003926226,7,1
7.935024e-05,0.0004192013,7,1
8.161915e-05,0.0004370285,7,1
0.0001080358,0.0004441593,7,1
0.0001696206,0.0004410801,7,1
0.0002632944,0.000425846,7,1
0.0003692851,0.0003991052,7,1
0.0004537212,0.0003666921,7,1
0.0004827309,0.0003388169,7,1
0.0004376768,0.0003175863,7,1
0.0003311998,0.000299597,7,1
0.0002018716,0.0002824181,7,1
0.0001025256,0.000267184,7,1
6.103686e-05,0.0002555152,7,1
6.735741e-05,0.0002448189,7,1
8.502253e-05,0.0002362295,7,1
7.189524e-05,0.0002290986,7,1
8.689758e-06,0.0002234263,7,1
-9.66527e-05,0.0002180782,7,1
-0.0002154466,0.0002133783,7,1
-0.0003188442,0.0002067336,7,1
-0.0003888564,0.0001950649,7,1
-0.0004220798,0.0001817755,7,1
-0.0004254832,0.0001696206,7,1
-0.0004066836,0.0001587623,7,1
-0.0003668155,0.0001467694,7,1
-0.0003029619,0.0001325077,7,1
-0.0002178775,0.0001150046,7,1
-0.0001269589,9.669123e-05,7,1
-5.338126e-05,7.756752e-05,7,1
-1.529591e-05,5.811968e-05,7,1
-1.643037e-05,3.867184e-05,7,1
-4.932962e-05,2.084466e-05,7,1
-9.827335e-05,2.855407e-06,7,1
-0.0001465688,-1.545797e-05,7,1
-0.0001896782,-3.539201e-05,7,1
-0.0002227395,-5.69467e-05,7,1
-0.0002415391,-7.412562e-05,7,1
-0.000243808,-8.255302e-05,7,1
-0.000231491,-8.02841e-05,7,1
-0.0002086398,-7.33153e-05,7,1
-0.0001831956,-6.893953e-05,7,1
-0.0001600202,-7.282909e-05,7,1
-0.0001438137,-8.628052e-05,7,1
-0.0001392759,-0.0001112386,7,1
-0.0001392759,-0.0001493239,7,1
-0.0001276072,-0.000201509,7,1
-9.130454e-05,-0.0002605007,7,1
-4.138842e-05,-0.0003220855,7,1
-1.270286e-05,-0.0003807532,7,1
-3.782299e-05,-0.0004361795,7,1
-0.0001216107,-0.0004888507,7,1
-0.0002306807,-0.0005387668,7,1
-0.0003118754,-0.0005812279,7,1
-0.0003267854,-0.0006141272,7,1
-0.000271197,-0.0006397335,7,1
-0.0001665028,-0.0006614503,7,1
-4.171256e-05,-0.000680736,7,1
7.416415e-05,-0.0006946736,7,1
0.000153252,-0.0006985632,7,1
0.0001777239,-0.0006924047,7,1
0.0001470936,-0.0006797637,7,1
7.610894e-05,-0.0006635571,7,1
-1.351319e-05,-0.0006437852,7,1
-9.66527e-05,-0.0006147755,7,1
-0.0001468929,-0.0005716661,7,1
-0.0001423551,-0.0005139708,7,1
-8.158062e-05,-0.0004452552,7,1
1.387585e-05,-0.0003661673,7,1
0.0001150046,-0.0002752487,7,1
0.0001949028,-0.0001652063,7,1
0.000242388,-3.085418e-05,7,1
0.0002595669,0.0001329939,7,1
0.0002543808,0.0003258516,7,1
0.0002394708,0.0005410745,7,1
0.0002281262,0.0007639144,7,1
0.000227478,0.0009715204,7,1
0.000234933,0.001138286,7,1
0.0002336365,0.001244763,7,1
0.000205275,0.001272962,7,1
0.0001419075,0.001218346,7,1
5.066468e-05,0.001084804,7,1
-4.560212e-05,0.0008935668,7,1
-0.0001109144,0.0006796404,7,1
-0.0001125351,0.0004741415,7,1
-4.495386e-05,0.0002944109,7,1
6.573675e-05,0.0001430419,7,1
0.0001809652,1.014835e-05,7,1
0.000284687,-0.0001154523,7,1
0.0003832228,-0.0002394322,7,1
0.0004867825,-0.0003640605,7,1
0.000589532,-0.0004906334,7,1
0.0006728336,-0.0006207718,7,1
0.0007144845,-0.0007523688,7,1
0.0006953608,-0.0008735937,7,1
0.0006127074,-0.0009659709,7,1
0.0004757621,-0.00101297,7,1
0.000309483,-0.001011997,7,1
0.0001453108,-0.0009700225,7,1
1.257933e-05,-0.0008962828,7,1
-7.444975e-05,-0.0007930472,7,1
-0.0001180453,-0.0006570745,7,1
-0.0001383035,-0.0004833405,7,1
-0.000151917,-0.0002609869,7,1
-0.0001650443,2.34377e-05,7,1
-0.0001796301,0.0003731747,7,1
-0.0001919471,0.0007629421,7,1
-0.0001927574,0.001133262,7,1
-0.0001799543,0.001417363,7,1
-0.0001551583,0.001559981,7,1
-0.0001224211,0.001546043,7,1
-0.0001005423,0.001415418,7,1
-0.0001138316,0.001246059,7,1
-0.0001814128,0.001116245,7,1
-0.0002925897,0.00106487,7,1
-0.000410087,0.001081563,7,1
-0.000494523,0.001123052,7,1
-0.0005287188,0.0011425,7,1
-0.0005159156,0.001110735,7,1
-0.0004731304,0.00102095,7,1
-0.0004217557,0.0008815739,7,1
-0.000387884,0.0007165913,7,1
-0.0003958252,0.0005525811,7,1
-0.0004520619,0.0004039671,7,1
-0.0005355255,0.0002683184,7,1
-0.000603755,0.0001342904,7,1
-0.0006183409,-3.951337e-06,7,1
-0.000561456,-0.0001415448,7,1
-0.0004488206,-0.0002705488,7,1
-0.0003154408,-0.0003844807,7,1
-0.0001997262,-0.0004888507,7,1
-0.0001227452,-0.0005907898,7,1
-8.368748e-05,-0.0006919185,7,1
-7.039812e-05,-0.0007919128,7,1
-6.650855e-05,-0.0008881796,7,1
-5.856735e-05,-0.0009755327,7,1
-3.490581e-05,-0.001044411,7,1
1.193106e-05,-0.001093678,7,1
7.416415e-05,-0.001125767,7,1
0.0001300767,-0.001146187,7,1
0.000158114,-0.001163366,7,1
0.0001495245,-0.001183949,7,1
0.0001174356,-0.001209069,7,1
8.599492e-05,-0.001232244,7,1
7.659513e-05,-0.001244561,7,1
9.409818e-05,-0.001238889,7,1
0.0001321835,-0.001207286,7,1
0.0001709172,-0.001146998,7,1
0.0001937684,-0.001052838,7,1
0.0001944166,-0.0009235098,7,1
0.0001796687,-0.0007619307,7,1
0.0001650828,-0.0005749074,7,1
0.0001636242,-0.0003674638,7,1
0.0001783722,-0.0001319829,7,1
0.0001986303,0.0001420695,7,1
0.0002141886,0.000438325,7,1
0.0002182402,0.0007110811,7,1
0.0002112714,0.0009018321,7,1
0.000205275,0.0009689272,7,1
0.000210299,0.0009133389,7,1
0.000234933,0.0007793107,7,1
0.0002833905,0.000624052,7,1
0.0003553475,0.0004924549,7,1
0.0004399457,0.0004046154,7,1
0.0005240576,0.0003561579,7,1
0.0005909906,0.0003234207,7,1
0.0006230795,0.0002780424,7,1
0.000611735,0.0002060853,7,1
0.0005603603,0.0001114392,7,1
0.0004785172,1.193106e-05,7,1
0.0003814401,-7.347736e-05,7,1
0.0002864697,-0.0001334415,7,1
0.0002055991,-0.0001605064,7,1
0.0001464453,-0.0001572651,7,1
0.0001107909,-0.000134576,7,1
9.247754e-05,-0.0001044318,7,1
7.870197e-05,-7.526008e-05,7,1
6.119892e-05,-5.078821e-05,7,1
3.899597e-05,-3.522994e-05,7,1
1.792748e-05,-2.923353e-05,7,1
7.879432e-06,-2.631635e-05,7,1
1.160693e-05,-2.599222e-05,7,1
2.441009e-05,-3.020592e-05,7,1
3.883391e-05,-4.074016e-05,7,1
5.034055e-05,-5.662256e-05,7,1
5.455425e-05,-7.947377e-05,7,1
4.35338e-05,-0.0001088076,7,1
1.209313e-05,-0.0001361966,7,1
-3.522994e-05,-0.0001498101,7,1
-8.676672e-05,-0.0001381414,7,1
-0.0001287416,-9.211487e-05,7,1
-0.0001512687,-1.707863e-05,7,1
-0.000149486,7.432621e-05,7,1
-0.0001279313,0.0001644345,7,1
-9.908367e-05,0.0002402811,7,1
-8.012204e-05,0.0002936006,7,1
-8.433573e-05,0.0003235827,7,1
-0.0001186936,0.0003331446,7,1
-0.0001802784,0.0003320101,7,1
-0.0002556388,0.0003310377,7,1
-0.0003272716,0.0003433547,7,1
-0.0003775118,0.0003785229,7,1
-0.0003958252,0.0004401077,7,1
-0.0003801049,0.0005227611,7,1
-0.0003467195,0.0006135177,7,1
-0.00032322,0.0006968193,7,1
-0.0003246786,0.0007538663,7,1
-0.0003402368,0.0007700729,7,1
-0.0003497987,0.0007376599,7,1
-0.0003365093,0.0006554927,7,1
-0.0002938862,0.0005342677,7,1
-0.000224036,0.0003968363,7,1
-0.0001374932,0.0002694529,7,1
-5.548811e-05,0.0001688103,7,1
6.420843e-06,0.0001013911,7,1
3.705119e-05,6.41161e-05,7,1
3.073064e-05,4.969229e-05,7,1
-9.137427e-06,4.531652e-05,7,1
-7.201877e-05,3.510641e-05,7,1
-0.0001425172,8.365628e-06,7,1
-0.0002037779,-3.328516e-05,7,1
-0.0002376495,-8.336335e-05,7,1
-0.000231329,-0.0001311726,7,1
-0.0001846542,-0.0001676373,7,1
-0.0001105903,-0.0001919471,7,1
-3.117831e-05,-0.0002096122,7,1
2.894792e-05,-0.0002279256,7,1
5.325772e-05,-0.0002522354,7,1
4.499239e-05,-0.0002838381,7,1
2.149292e-05,-0.0003196545,7,1
1.234753e-06,-0.0003528779,7,1
-8.165035e-06,-0.000377836,7,1
-1.399939e-05,-0.0003929081,7,1
-2.518189e-05,-0.0004010113,7,1
-4.025397e-05,-0.0004057112,7,1
-4.754691e-05,-0.000405225,7,1
-4.122636e-05,-0.0003990665,7,1
-2.988179e-05,-0.0003893426,7,1
-2.437157e-05,-0.0003810773,7,1
-2.145439e-05,-0.0003783222,7,1
4.244267e-07,-0.0003779981,7,1
7.367795e-05,-0.0003736223,7,1
0.000210137,-0.0003564434,7,1
0.000383871,-0.0003228959,7,1
0.0005441537,-0.0002729798,7,1
0.0006404206,-0.000206533,7,1
0.0006506307,-0.0001177212,7,1
0.0005775391,-4.275467e-06,7,1
0.0004423766,0.0001213252,7,1
0.0002660495,0.0002321778,7,1
7.432621e-05,0.0003026763,7,1
-9.681477e-05,0.0003214759,7,1
-0.000216581,0.0002940868,7,1
-0.0002742763,0.0002406053,7,1
-0.0002734659,0.0001861513,7,1
-0.0002227395,0.0001479039,7,1
-0.0001263107,0.0001295905,7,1
-2.006553e-06,0.0001229458,7,1
0.0001174356,0.0001235941,7,1
0.0001994406,0.0001331559,7,1
0.0002354192,0.0001543865,7,1
0.0002407673,0.0001845306,7,1
0.000235095,0.0002195368,7,1
0.0002232643,0.0002538946,7,1
0.0002046267,0.0002806354,7,1
0.0001772377,0.0002952213,7,1
0.0001417454,0.0002983005,7,1
0.0001065772,0.0002937627,7,1
8.259155e-05,0.0002879283,7,1
7.221937e-05,0.0002799871,7,1
6.768154e-05,0.0002663737,7,1
5.212327e-05,0.0002451431,7,1
1.565857e-05,0.0002154851,7,1
-3.458168e-05,0.0001788584,7,1
-7.688073e-05,0.00013818,7,1
-9.373552e-05,9.458438e-05,7,1
-8.336335e-05,5.115087e-05,7,1
-6.0188e-05,7.393236e-06,7,1
-4.025397e-05,-3.053005e-05,7,1
-3.231277e-05,-5.678463e-05,7,1
-3.895745e-05,-6.715681e-05,7,1
-5.386745e-05,-6.845333e-05,7,1
-7.056019e-05,-6.877746e-05,7,1
-9.308726e-05,-7.380149e-05,7,1
-0.0001289037,-8.352541e-05,7,1
-0.0001818991,-9.033215e-05,7,1
-0.0002478596,-8.82253e-05,7,1
-0.0003172236,-7.639453e-05,7,1
-0.0003755671,-5.905355e-05,7,1
-0.0004066836,-4.787104e-05,7,1
-0.0004019837,-5.775702e-05,7,1
-0.0003642225,-9.081835e-05,7,1
-0.0003186821,-0.0001332795,7,1
-0.0003003688,-0.0001736337,7,1
-0.0003275957,-0.0002031296,7,1
-0.0003797808,-0.0002245222,7,1
-0.0004139766,-0.000241377,7,1
-0.0003964735,-0.0002559629,7,1
-0.0003198166,-0.0002690902,7,1
-0.0002026434,-0.0002793003,7,1
-8.336335e-05,-0.0002820554,7,1
3.341602e-06,-0.0002776796,7,1
4.483033e-05,-0.0002694143,7,1
5.1475e-05,-0.0002596904,7,1
4.239934e-05,-0.0002522354,7,1
3.316162e-05,-0.0002457528,7,1
3.024445e-05,-0.0002408908,7,1
3.235129e-05,-0.0002334358,7,1
3.867184e-05,-0.0002220912,7,1
4.175109e-05,-0.0002070192,7,1
3.478228e-05,-0.0001880575,7,1
1.355172e-05,-0.0001666649,7,1
-2.129233e-05,-0.000147055,7,1
-6.261898e-05,-0.0001319829,7,1
-0.0001020008,-0.0001224211,7,1
-0.0001280934,-0.0001169109,7,1
-0.0001313347,-0.000112373,7,1
-0.0001055663,-0.0001037836,7,1
-5.127441e-05,-9.000802e-05,7,1
2.052053e-05,-7.444975e-05,7,1
9.53947e-05,-5.775702e-05,7,1
0.0001641104,-3.522994e-05,7,1
0.0002316917,-5.085794e-06,7,1
0.000311914,3.640293e-05,7,1
0.0004154738,8.79397e-05,7,1
0.0005433434,0.0001479039,7,1
0.0006815852,0.0002104611,7,1
0.0008032963,0.000267184,7,1
0.0008771982,0.0003112658,7,1
0.0008906497,0.0003423823,7,1
0.0008553194,0.0003624784,7,1
0.0007932483,0.0003780367,7,1
0.0007217774,0.0003934329,7,1
0.0006485239,0.0004094774,7,1
0.0005700842,0.0004175806,7,1
0.0004856481,0.0004089912,7,1
0.0004002396,0.0003884089,7,1
0.000319207,0.0003696093,7,1
0.0002401191,0.0003628026,7,1
0.0001610312,0.0003694472,7,1
8.04847e-05,0.0003875985,7,1
-7.100305e-07,0.0004148255,7,1
-8.07703e-05,0.0004427008,7,1
-0.0001556445,0.0004649037,7,1
-0.0002229016,0.0004799758,7,1
-0.0002770314,0.0004841895,7,1
-0.0003065273,0.0004696036,7,1
-0.0002940482,0.0004323286,7,1
-0.0002295462,0.0003777126,7,1
-0.0001279313,0.0003185587,7,1
-2.485776e-05,0.0002689667,7,1
4.158902e-05,0.0002378501,7,1
4.223728e-05,0.0002180782,7,1
-2.680255e-05,0.0001961994,7,1
-0.0001417068,0.0001634622,7,1
-0.0002713591,0.0001188942,7,1
-0.0003873979,6.46023e-05,7,1
-0.0004734545,5.286387e-06,7,1
-0.0005202913,-5.613637e-05,7,1
-0.0005254775,-0.0001120489,7,1
-0.0004911196,-0.000159372,7,1
-0.0004240246,-0.000201671,7,1
-0.0003348887,-0.0002365151,7,1
-0.0002381357,-0.0002635799,7,1
-0.0001481895,-0.0002823795,7,1
-8.320128e-05,-0.0002919414,7,1
-4.916756e-05,-0.0002908069,7,1
-4.641245e-05,-0.0002840002,7,1
-7.023606e-05,-0.0002815692,7,1
-0.0001067007,-0.0002899966,7,1
-0.0001433275,-0.0003063652,7,1
-0.0001814128,-0.0003219235,7,1
-0.0002311669,-0.0003279199,7,1
-0.0002948586,-0.0003245165,7,1
-0.0003673017,-0.000318358,7,1
-0.0004429862,-0.0003167374,7,1
-0.0005128364,-0.0003225718,7,1
-0.0005578905,-0.0003340784,7,1
-0.0005582146,-0.0003459091,7,1
-0.0005065158,-0.000355633,7,1
-0.0004070078,-0.0003638984,7,1
-0.0002794623,-0.0003716775,7,1
-0.0001535376,-0.0003812394,7,1
-5.565017e-05,-0.0003895047,7,1
1.193106e-05,-0.0003967976,7,1
6.184718e-05,-0.0004024699,7,1
0.0001080358,-0.0004097628,7,1
0.000150659,-0.0004219178,7,1
0.0001773998,-0.0004305072,7,1
0.000178048,-0.0004193247,7,1
0.0001540623,-0.0003789705,7,1
0.0001169494,-0.0003194925,7,1
7.918817e-05,-0.0002601766,7,1
4.434413e-05,-0.0002193361,7,1
6.258778e-06,-0.0001985918,7,1
-3.377136e-05,-0.0001856265,7,1
-6.829127e-05,-0.0001658546,7,1
-8.206682e-05,-0.0001332795,7,1
-5.629844e-05,-9.049421e-05,7,1
1.322759e-05,-4.47918e-05,7,1
0.0001080358,-7.100305e-07,7,1
0.0001942546,4.207521e-05,7,1
0.0002556773,9.490851e-05,7,1
0.0002981384,0.0001689724,7,1
0.0003346032,0.0002639427,7,1
0.0003747954,0.0003684748,7,1
0.0004157979,0.0004566384,7,1
0.0004485351,0.0005063924,7,1
0.0004652279,0.0005102821,7,1
0.0004585832,0.0004764104,7,1
0.0004300596,0.0004136911,7,1
0.0003869503,0.0003333067,7,1
0.0003404375,0.0002441707,7,1
0.000297004,0.0001608691,7,1
0.000252436,9.669123e-05,7,1
0.0002041406,5.763349e-05,7,1
0.0001571416,3.526847e-05,7,1
0.0001182459,1.031041e-05,7,1
8.696731e-05,-2.971972e-05,7,1
5.487838e-05,-8.660465e-05,7,1
1.501031e-05,-0.0001499722,7,1
-1.99958e-05,-0.0002104225,7,1
-3.798505e-05,-0.0002642282,7,1
-3.506788e-05,-0.0003152788,7,1
-4.761664e-06,-0.0003690845,7,1
4.709924e-05,-0.0004217557,7,1
0.0001022015,-0.000462272,7,1
0.0001376938,-0.0004789647,7,1
0.0001367214,-0.0004611376,7,1
9.199134e-05,-0.0004034423,7,1
1.063454e-05,-0.000305879,7,1
-8.595638e-05,-0.000166827,7,1
-0.0001695821,1.436204e-05,7,1
-0.0002120432,0.0002256952,7,1
-0.0001937298,0.0004493454,7,1
-0.0001096179,0.0006734819,7,1
1.565857e-05,0.000893891,7,1
0.0001360731,0.001107169,7,1
0.0002012234,0.00129792,7,1
0.0001902029,0.001430652,7,1
0.000105929,0.001473762,7,1
-3.231277e-05,0.001418497,7,1
-0.0001998883,0.001278797,7,1
-0.0003707051,0.00108367,7,1
-0.0005134846,0.0008694191,7,1
