EMG1,EMG2,class,user
0.0005483674,-0.0001455964,7,1
0.0004945617,-0.0001665028,7,1
0.0004465904,-0.0001887058,7,1
0.0004042913,-0.000196647,7,1
0.0003592371,-0.0001820611,7,1
0.0003065659,-0.0001491618,7,1
0.0002483844,-0.0001075111,7,1
0.0001991165,-6.602235e-05,7,1
0.0001790204,-3.004385e-05,7,1
0.0001919856,1.072688e-06,7,1
0.000222616,3.380988e-05,7,1
0.0002453052,7.011252e-05,7,1
0.0002341226,0.0001081979,7,1
0.0001707551,0.0001414213,7,1
5.682316e-05,0.0001652449,7,1
-7.995997e-05,0.0001770756,7,1
-0.0002003745,0.000178048,7,1
-0.000271035,0.0001752929,7,1
-0.0002856209,0.0001748067,7,1
-0.0002681178,0.0001825859,7,1
-0.0002506147,0.0001936063,7,1
-0.0002580697,0.0001994406,7,1
-0.0002995585,0.0001937684,7,1
-0.0003648708,0.0001757791,7,1
-0.0004340726,0.0001527658,7,1
-0.0004775062,0.000133318,7,1
-0.0004715097,0.0001291043,7,1
-0.0004058733,0.0001454729,7,1
-0.0002992343,0.0001812893,7,1
-0.0001882196,0.0002313675,7,1
-0.0001083214,0.0002819319,7,1
-7.056019e-05,0.000319369,7,1
-6.456377e-05,0.0003363859,7,1
-7.396356e-05,0.0003299033,7,1
-9.503204e-05,0.0002963557,7,1
-0.0001219349,0.0002347709,7,1
-0.0001327933,0.0001524417,7,1
-0.0001015147,6.751948e-05,7,1
-3.036798e-05,-1.196227e-06,7,1
4.661304e-05,-4.657452e-05,7,1
9.474644e-05,-6.942573e-05,7,1
0.0001033359,-7.914964e-05,7,1
8.42122e-05,-8.336335e-05,7,1
5.098881e-05,-8.984595e-05,7,1
1.112074e-05,-9.989401e-05,7,1
-2.145439e-05,-0.000112373,7,1
-2.615429e-05,-0.0001233935,7,1
7.23117e-06,-0.0001318209,7,1
7.772959e-05,-0.0001404103,7,1
0.0001793446,-0.0001489998,7,1
0.000302028,-0.0001546721,7,1
0.0004193634,-0.000152079,7,1
0.0004835413,-0.0001366828,7,1
0.0004504799,-0.0001105903,7,1
0.0003171001,-8.255302e-05,7,1
0.0001268354,-5.516398e-05,7,1
-5.338126e-05,-2.518189e-05,7,1
-0.0001666649,1.047248e-05,7,1
-0.0001862748,5.066468e-05,7,1
-0.0001173971,8.46984e-05,7,1
1.014835e-05,0.0001009049,7,1
0.0001477418,9.393612e-05,7,1
0.0002483844,6.735741e-05,7,1
0.0002939248,3.656499e-05,7,1
0.0002898731,1.760335e-05,7,1
0.0002462775,1.744129e-05,7,1
0.0001699448,3.154097e-05,7,1
7.238143e-05,4.936815e-05,7,1
-3.020592e-05,6.217132e-05,7,1
-0.0001211246,6.897806e-05,7,1
-0.0001934057,7.384002e-05,7,1
-0.0002431597,8.064677e-05,7,1
-0.0002596904,9.231547e-05,7,1
-0.0002306807,0.0001117633,7,1
-0.0001603444,0.0001363972,7,1
-6.958779e-05,0.000160707,7,1
1.582063e-05,0.0001777239,7,1
9.053275e-05,0.0001842065,7,1
0.0001602208,0.0001798307,7,1
0.0002284504,0.000170431,7,1
0.0002809595,0.0001649207,7,1
0.0003046211,0.0001686482,7,1
0.0003004074,0.000180479,7,1
0.0002799871,0.000192796,7,1
0.0002509774,0.0001960373,7,1
0.0002133783,0.0001905271,7,1
0.0001668655,0.0001796687,7,1
0.0001009049,0.0001689724,7,1
1.002961e-07,0.000162976,7,1
-0.0001430034,0.0001611932,7,1
-0.0003118754,0.0001594105,7,1
-0.000477182,0.0001576278,7,1
-0.000601162,0.0001603829,7,1
-0.0006590193,0.0001697827,7,1
-0.000645892,0.0001848548,7,1
-0.0005595111,0.0002034923,7,1
-0.0004019837,0.0002208333,7,1
-0.0001935677,0.0002328261,7,1
2.586868e-05,0.0002318537,7,1
0.0001994406,0.0002162954,7,1
0.0002884145,0.000192796,7,1
0.0002848491,0.0001689724,7,1
0.0002010613,0.0001480659,7,1
5.925414e-05,0.0001328318,7,1
-0.0001005423,0.0001245665,7,1
-0.0002327876,0.0001182459,7,1
-0.0003040963,0.0001038221,7,1
-0.000305879,7.027458e-05,7,1
-0.000261311,1.59827e-05,7,1
-0.0002105846,-5.192267e-05,7,1
-0.0001878955,-0.0001188556,7,1
-0.0001955125,-0.0001747682,7,1
-0.0002075054,-0.0002203085,7,1
-0.0001809267,-0.0002595283,7,1
-8.709085e-05,-0.0002912931,7,1
6.330578e-05,-0.0003139823,7,1
0.0002265056,-0.0003251648,7,1
0.0003444891,-0.000320789,7,1
0.0003699334,-0.0002989102,7,1
0.0002939248,-0.0002630937,7,1
0.000155521,-0.0002185258,7,1
1.079661e-05,-0.0001666649,7,1
-0.0001118868,-0.000104918,7,1
-0.0002212809,-3.053005e-05,7,1
-0.000338292,5.601284e-05,7,1
-0.0004638926,0.0001521176,7,1
-0.0005792832,0.0002553532,7,1
-0.00065594,0.0003673404,7,1
-0.0006586951,0.000487917,7,1
-0.000561456,0.0006063868,7,1
-0.0003661673,0.0007057329,7,1
-0.0001136696,0.0007721797,7,1
0.0001370455,0.0007992447,7,1
0.0003218,0.000787576,7,1
0.0004143393,0.0007410632,7,1
0.0004290873,0.000661165,7,1
0.0004033189,0.0005490156,7,1
0.0003733368,0.0004076947,7,1
0.0003521062,0.0002457913,7,1
0.0003407616,8.016057e-05,7,1
0.0003328204,-7.169464e-05,7,1
0.0003255275,-0.0001948643,7,1
0.0003187208,-0.0002814071,7,1
0.0003120761,-0.000328244,7,1
0.000299597,-0.0003439643,7,1
0.0002743149,-0.0003446126,7,1
0.000235095,-0.0003450988,7,1
0.0001939304,-0.0003525538,7,1
0.0001678379,-0.0003609812,7,1
0.0001608691,-0.0003635742,7,1
0.0001662173,-0.0003671397,7,1
0.000175455,-0.0003875599,7,1
0.0001872858,-0.0004355313,7,1
0.0002064095,-0.000511864,7,1
0.0002316917,-0.0006006758,7,1
0.0002480603,-0.000683005,7,1
0.0002372019,-0.0007449139,7,1
0.0001908512,-0.0007797579,7,1
0.0001200286,-0.0007904542,7,1
4.304761e-05,-0.0007915886,7,1
-2.534396e-05,-0.0007983954,7,1
-7.931171e-05,-0.0008205983,7,1
-0.0001139937,-0.0008546321,7,1
-0.0001248521,-0.0008936898,7,1
-0.0001081593,-0.0009280476,7,1
-7.153257e-05,-0.0009427955,7,1
-3.101625e-05,-0.0009304786,7,1
-6.176923e-08,-0.0008938519,7,1
1.64689e-05,-0.0008387497,7,1
1.533444e-05,-0.0007687375,7,1
-5.89612e-06,-0.0006792775,7,1
-3.911951e-05,-0.0005604835,7,1
-6.504996e-05,-0.000387884,7,1
-6.715681e-05,-0.0001319829,7,1
-3.944364e-05,0.0002308813,7,1
3.341602e-06,0.0006987641,7,1
3.721326e-05,0.001238929,7,1
4.369587e-05,0.001788331,7,1
1.517237e-05,0.00225816,7,1
-4.365734e-05,0.002563817,7,1
-0.0001136696,0.002654412,7,1
-0.000169258,0.002536752,7,1
-0.0001919471,0.002258646,7,1
-0.0001778474,0.001896753,7,1
-0.0001355484,0.00151914,7,1
-7.315322e-05,0.001165351,7,1
2.693341e-06,0.0008525642,7,1
7.691926e-05,0.0005853184,7,1
0.0001279698,0.0003637749,7,1
0.0001396385,0.000185341,7,1
0.0001172735,4.35338e-05,7,1
8.145709e-05,-6.974985e-05,7,1
5.585077e-05,-0.0001606685,7,1
4.434413e-05,-0.0002386219,7,1
4.207521e-05,-0.0003112272,7,1
3.705119e-05,-0.0003781601,7,1
1.711715e-05,-0.0004335865,7,1
-2.339918e-05,-0.0004685925,7,1
-7.801519e-05,-0.0004755614,7,1
-0.0001303623,-0.0004556273,7,1
-0.000166989,-0.0004207833,7,1
-0.0001885437,-0.0003924218,7,1
-0.0002062088,-0.000390315,7,1
-0.000238784,-0.000420135,7,1
-0.0002929138,-0.0004757234,7,1
-0.0003546606,-0.000541684,7,1
-0.000410087,-0.0006024585,7,1
-0.000452224,-0.000645892,7,1
-0.0004788027,-0.0006680949,7,1
-0.000484475,-0.0006705259,7,1
-0.0004624341,-0.0006586951,7,1
-0.0004185144,-0.0006374646,7,1
-0.0003656811,-0.0006099135,7,1
-0.0003196545,-0.0005711799,7,1
-0.0002891863,-0.0005084606,7,1
-0.0002708729,-0.0004164075,7,1
-0.0002545043,-0.0003057169,7,1
-0.0002277635,-0.0001982676,7,1
-0.0001799543,-0.0001152902,7,1
-0.0001081593,-6.91016e-05,7,1
-1.351319e-05,-6.002594e-05,7,1
9.733949e-05,-7.995997e-05,7,1
0.0002209954,-0.0001060525,7,1
0.0003584268,-0.0001154523,7,1
0.0004997478,-9.276313e-05,7,1
0.0006193521,-3.749886e-05,7,1
0.0006906608,3.445814e-05,7,1
0.0007070294,0.000103498,7,1
0.000678668,0.0001509831,7,1
0.0006175694,0.0001624898,7,1
0.0005316747,0.0001375317,7,1
0.0004273046,8.761557e-05,7,1
0.0003198552,2.878586e-05,7,1
0.0002255332,-2.404744e-05,7,1
0.000160707,-5.937768e-05,7,1
0.0001318594,-7.33153e-05,7,1
0.000128456,-7.363943e-05,7,1
0.0001300767,-6.48879e-05,7,1
0.0001195424,-5.22468e-05,7,1
8.810177e-05,-4.300908e-05,7,1
4.045456e-05,-3.992984e-05,7,1
-1.173047e-05,-4.641245e-05,7,1
-4.787104e-05,-6.099833e-05,7,1
-5.159854e-05,-7.931171e-05,7,1
-1.869928e-05,-9.551824e-05,7,1
4.126489e-05,-0.0001060525,7,1
0.0001094944,-0.0001099421,7,1
0.0001663793,-0.0001149661,7,1
0.0001937684,-0.0001350622,7,1
0.0001863134,-0.0001763888,7,1
0.0001498487,-0.0002274394,7,1
9.344993e-05,-0.0002765452,7,1
2.39239e-05,-0.0003190063,7,1
-5.192267e-05,-0.0003621157,7,1
-0.0001308485,-0.000410087,7,1
-0.0002109087,-0.0004624341,7,1
-0.0002825416,-0.000514295,7,1
-0.0003378059,-0.000571342,7,1
-0.0003721637,-0.0006274165,7,1
-0.0003848048,-0.0006705259,7,1
-0.0003747568,-0.0006890013,7,1
-0.0003322956,-0.0006760361,7,1
-0.0002412149,-0.0006368163,7,1
-9.940781e-05,-0.0005843072,7,1
6.217132e-05,-0.0005352014,7,1
0.0001932822,-0.0004980884,7,1
0.000249843,-0.000472158,7,1
0.0002193747,-0.0004480103,7,1
0.0001224596,-0.0004134903,7,1
-8.489166e-06,-0.0003658432,7,1
-0.0001477033,-0.0002980999,7,1
-0.0002780038,-0.0001951884,7,1
-0.0003784843,-3.733679e-05,7,1
-0.0004246728,0.0001966855,7,1
-0.0003906392,0.0005198439,7,1
-0.0002647144,0.0009219283,7,1
-6.261898e-05,0.001361612,7,1
0.0001657311,0.001764345,7,1
0.0003582647,0.002046016,7,1
0.0004746277,0.002142607,7,1
0.0005018546,0.002039857,7,1
0.0004465904,0.001783955,7,1
0.0003250413,0.001460634,7,1
0.0001668655,0.00116373,7,1
1.355172e-05,0.0009634171,7,1
-9.373552e-05,0.0008762258,7,1
-0.0001336036,0.0008585607,7,1
-0.0001104282,0.0008376542,7,1
-5.419158e-05,0.0007645627,7,1
-8.327101e-06,0.0006272933,7,1
-1.237873e-05,0.0004452938,7,1
-7.995997e-05,0.0002717218,7,1
-0.0001919471,0.000168,7,1
-0.0003071755,0.0001838824,7,1
-0.0003804291,0.0003331446,7,1
-0.0003783222,0.0005892079,7,1
-0.0002925897,0.0008898393,7,1
-0.0001460826,0.001145903,7,1
1.274139e-05,0.001274745,7,1
0.0001329939,0.001230339,7,1
0.0001889064,0.001020626,7,1
0.0001872858,0.0007062191,7,1
0.0001415833,0.0003652335,7,1
6.654708e-05,6.119892e-05,7,1
-2.113026e-05,-0.0001702304,7,1
-0.0001008664,-0.0003199787,7,1
-0.0001598582,-0.0003990665,7,1
-0.0002018331,-0.0004237005,7,1
-0.0002285739,-0.0004089525,7,1
-0.0002321393,-0.0003616295,7,1
-0.0001961608,-0.0002788141,7,1
-0.0001144799,-0.0001566169,7,1
7.069105e-06,-1.196227e-06,7,1
0.000150659,0.0001657311,7,1
0.0002916559,0.0003145071,7,1
0.0004063981,0.000418553,7,1
0.0004806241,0.0004619866,7,1
0.0005046097,0.0004370285,7,1
0.0004721967,0.0003446512,7,1
0.0003882468,0.0001983062,7,1
0.000267184,2.586868e-05,7,1
0.0001315353,-0.0001442999,7,1
9.500085e-06,-0.0002912931,7,1
-7.817725e-05,-0.0004087905,7,1
-0.0001178833,-0.0004979264,7,1
-0.0001104282,-0.0005616181,7,1
-7.363943e-05,-0.0006032689,7,1
-3.344723e-05,-0.0006280648,7,1
-6.868513e-06,-0.0006389232,7,1
7.879432e-06,-0.0006439472,7,1
1.825161e-05,-0.0006505919,7,1
1.727922e-05,-0.0006674466,7,1
-9.947754e-06,-0.0006938633,7,1
-7.396356e-05,-0.0007264384,7,1
-0.0001705545,-0.0007616066,7,1
-0.0002768693,-0.0007964507,7,1
-0.0003643846,-0.0008314567,7,1
-0.0004039285,-0.0008653284,7,1
-0.0003839945,-0.0008961208,7,1
-0.0003217614,-0.0009205926,7,1
-0.000251263,-0.0009324234,7,1
-0.0001964849,-0.0009296683,7,1
-0.0001655305,-0.0009144342,7,1
-0.0001538618,-0.0008901244,7,1
-0.0001590478,-0.0008614388,7,1
-0.0001770371,-0.0008319429,7,1
-0.000201509,-0.0008019609,7,1
-0.0002227395,-0.0007679272,7,1
-0.0002381357,-0.0007298418,7,1
-0.0002528836,-0.0006890013,7,1
-0.0002723315,-0.0006478368,7,1
-0.0002969654,-0.0006103997,7,1
-0.0003156029,-0.0005734488,7,1
-0.0003063652,-0.0005363359,7,1
-0.0002376495,-0.0004998712,7,1
-9.794922e-05,-0.0004677822,7,1
7.465034e-05,-0.0004361795,7,1
0.0002164575,-0.0004023079,7,1
0.0002843629,-0.0003634122,7,1
0.0002835526,-0.0003209511,7,1
0.0002675081,-0.0002780038,7,1
0.0003051073,-0.0002407288,7,1
0.0004375147,-0.0002112329,7,1
0.0006449584,-0.0001887058,7,1
0.0008621261,-0.0001661787,7,1
0.001023868,-0.0001374932,7,1
0.001087235,-0.0001016767,7,1
0.001037967,-6.44017e-05,7,1
0.0008979426,-3.231277e-05,7,1
0.0007101087,-1.124428e-05,7,1
0.000515144,1.396819e-06,7,1
0.0003430306,9.66215e-06,7,1
0.0002055991,1.614476e-05,7,1
9.63671e-05,2.278944e-05,7,1
5.86492e-07,3.008238e-05,7,1
-9.19528e-05,3.850978e-05,7,1
-0.0001788198,4.369587e-05,7,1
-0.0002514251,4.628891e-05,7,1
-0.0002992343,4.807163e-05,7,1
-0.0003112272,5.228533e-05,7,1
-0.0002857829,6.362991e-05,7,1
-0.0002326255,8.437427e-05,7,1
-0.00016942,0.0001086841,7,1
-0.0001110765,0.0001320215,7,1
-6.294311e-05,0.0001500107,7,1
-2.242678e-05,0.0001642725,7,1
1.241726e-05,0.0001775618,7,1
4.45062e-05,0.0001937684,7,1
8.42122e-05,0.0002184023,7,1
0.0001419075,0.0002577842,7,1
0.0002088404,0.000314345,7,1
0.0002629703,0.0003825745,7,1
0.0002806354,0.0004569625,7,1
0.0002503292,0.0005302161,7,1
0.0001769136,0.0005999042,7,1
7.384002e-05,0.0006663511,7,1
-3.895745e-05,0.00072826,7,1
-0.0001421931,0.0007772038,7,1
-0.0002254946,0.0008021619,7,1
-0.0002849726,0.0007951931,7,1
-0.0003120375,0.0007622938,7,1
-0.0003016653,0.0007146465,7,1
-0.0002626076,0.0006645683,7,1
-0.0002271153,0.000616759,7,1
-0.0002324634,0.0005764047,7,1
-0.0002992343,0.0005478812,7,1
-0.0004113835,0.000532485,7,1
-0.0005261258,0.0005224369,7,1
-0.000593869,0.0005109303,7,1
-0.0005880346,0.0004952099,7,1
-0.000507002,0.0004760863,7,1
-0.0003609812,0.0004546936,7,1
-0.0001674752,0.0004313562,7,1
3.462021e-05,0.000410936,7,1
0.0001965235,0.0003944053,7,1
0.0002825802,0.0003791712,7,1
0.0002858215,0.0003589129,7,1
0.0002237505,0.0003261758,7,1
0.0001338042,0.0002859836,7,1
5.179914e-05,0.0002459534,7,1
-8.489166e-06,0.0002125679,7,1
-5.467778e-05,0.0001846927,7,1
-0.0001070249,0.0001610312,7,1
-0.0001765509,0.0001461212,7,1
-0.0002523975,0.000138342,7,1
-0.0003027998,0.000130725,7,1
-0.0002934,0.0001103047,7,1
-0.0002105846,6.670914e-05,7,1
-7.785312e-05,-5.479652e-07,7,1
5.925414e-05,-8.093236e-05,7,1
0.0001623277,-0.0001614788,7,1
0.0002143507,-0.0002352185,7,1
0.0002154851,-0.0002985861,7,1
0.0001783722,-0.0003528779,7,1
0.0001154908,-0.0004003631,7,1
4.466826e-05,-0.0004471999,7,1
-1.659243e-05,-0.0004956574,7,1
-5.370539e-05,-0.0005402254,7,1
-6.245691e-05,-0.0005749074,7,1
-4.300908e-05,-0.0005932208,7,1
7.879432e-06,-0.0005941931,7,1
9.069481e-05,-0.0005822003,7,1
0.000195389,-0.0005585388,7,1
0.0002968419,-0.00051705,7,1
0.0003459477,-0.0004536825,7,1
0.0002965178,-0.0003692465,7,1
0.0001495245,-0.0002749245,7,1
-4.106429e-05,-0.0001801163,7,1
-0.0001994021,-9.341139e-05,7,1
-0.0002699005,-1.448558e-05,7,1
-0.0002425115,6.136099e-05,7,1
-0.0001489998,0.0001488763,7,1
-3.976777e-05,0.0002704253,7,1
4.677511e-05,0.0004459421,7,1
9.101894e-05,0.0006760749,7,1
8.939829e-05,0.0009319764,7,1
5.115087e-05,0.00116454,7,1
-5.247859e-06,0.00132531,7,1
-5.921561e-05,0.001387543,7,1
-9.065628e-05,0.001353347,7,1
-8.854943e-05,0.001245087,7,1
-5.386745e-05,0.00108999,7,1
-3.303076e-06,0.0009097734,7,1
3.445814e-05,0.0007193465,7,1
3.737532e-05,0.0005350781,7,1
9.106227e-07,0.0003707437,7,1
-5.937768e-05,0.0002326641,7,1
-0.0001258245,0.0001227837,7,1
-0.000184168,3.883391e-05,7,1
-0.000228898,-2.275091e-05,7,1
-0.0002480217,-6.699475e-05,7,1
-0.000224036,-9.956988e-05,7,1
-0.0001483515,-0.0001230693,7,1
-4.203669e-05,-0.0001397621,7,1
4.645098e-05,-0.0001512687,7,1
7.772959e-05,-0.0001605064,7,1
4.936815e-05,-0.000166989,7,1
-2.654814e-06,-0.0001750923,7,1
-3.150244e-05,-0.0001925954,7,1
-1.140634e-05,-0.000221443,7,1
5.034055e-05,-0.0002616352,7,1
0.0001245665,-0.0003079858,7,1
0.0001856651,-0.0003574158,7,1
0.0002268297,-0.0004092767,7,1
0.0002535705,-0.0004591928,7,1
0.0002713977,-0.0004997091,7,1
0.0002777182,-0.0005181845,7,1
0.0002679943,-0.0005029504,7,1
0.0002456293,-0.0004544929,7,1
0.0002153231,-0.0003895047,7,1
0.0001832341,-0.0003339163,7,1
0.0001498487,-0.0003092824,7,1
0.0001156529,-0.0003203028,7,1
8.340187e-05,-0.0003538503,7,1
6.071273e-05,-0.0003899909,7,1
5.131294e-05,-0.0004143007,7,1
5.244739e-05,-0.0004186764,7,1
4.82337e-05,-0.0004083043,7,1
2.133085e-05,-0.0003929081,7,1
-4.171256e-05,-0.0003796187,7,1
-0.0001349001,-0.0003710293,7,1
-0.0002402425,-0.0003632501,7,1
-0.0003303509,-0.000350609,7,1
-0.0003695707,-0.0003243544,7,1
-0.0003253268,-0.0002820554,7,1
-0.0001909747,-0.0002241981,7,1
-6.868513e-06,-0.0001528894,7,1
0.0001603829,-6.991193e-05,7,1
0.0002589186,1.889987e-05,7,1
0.0002705873,0.0001067393,7,1
0.00021273,0.0001835583,7,1
0.0001245665,0.0002401191,7,1
4.110282e-05,0.000272208,7,1
-2.275091e-05,0.0002791768,7,1
-6.683268e-05,0.0002585945,7,1
-9.989401e-05,0.0002067336,7,1
-0.0001293899,0.0001221355,7,1
-0.0001548341,7.555301e-06,7,1
-0.0001754164,-0.0001251762,7,1
-0.0001909747,-0.0002504527,7,1
-0.0002021572,-0.0003436402,7,1
-0.0002076674,-0.0003969597,7,1
-0.000201671,-0.0004139766,7,1
-0.0001747682,-0.000412518,7,1
-0.0001235555,-0.0004241867,7,1
-6.294311e-05,-0.0004731304,7,1
-1.99958e-05,-0.0005574043,7,1
-1.383732e-05,-0.0006601537,7,1
-3.458168e-05,-0.0007539895,7,1
-5.289507e-05,-0.0008282154,7,1
-3.620233e-05,-0.0008938519,7,1
3.105477e-05,-0.0009714811,7,1
0.0001428799,-0.00106791,7,1
0.0002702632,-0.001171956,7,1
0.0003653956,-0.001264657,7,1
0.0003864641,-0.001336452,7,1
0.0003115899,-0.001387341,7,1
0.0001592484,-0.001423805,7,1
-1.367526e-05,-0.001450708,7,1
-0.0001329553,-0.001468373,7,1
-0.0001509446,-0.001468373,7,1
-7.007399e-05,-0.001435636,7,1
6.670914e-05,-0.001353955,7,1
0.0002012234,-0.001221224,7,1
0.0002936006,-0.001041493,7,1
0.0003344411,-0.0008167088,7,1
0.000339141,-0.0005471942,7,1
0.0003287688,-0.0002232257,7,1
0.0003162898,0.0001757791,7,1
0.0003025142,0.0006720233,7,1
0.0002806354,0.0012681,7,1
0.000242388,0.001918308,7,1
0.0001845306,0.002544531,7,1
0.0001137081,0.003065412,7,1
4.110282e-05,0.00342909,7,1
-1.837515e-05,0.003631511,7,1
-4.625038e-05,0.003690504,7,1
-3.506788e-05,0.003626001,7,1
7.393236e-06,0.003452265,7,1
5.876794e-05,0.003183721,7,1
0.0001026876,0.002834792,7,1
0.0001325077,0.00243465,7,1
0.0001462832,0.002024299,7,1
0.0001514693,0.001643444,7,1
0.0001503349,0.001324013,7,1
0.0001451488,0.001078646,7,1
0.0001318594,0.000901508,7,1
0.0001009049,0.0007676419,7,1
3.688912e-05,0.0006477135,7,1
-6.456377e-05,0.0005204921,7,1
-0.0001760647,0.0003817642,7,1
-0.0002523975,0.0002415777,7,1
-0.0002585559,0.0001138702,7,1
-0.0001989159,2.04508e-06,7,1
-0.0001185315,-9.681477e-05,7,1
-6.91016e-05,-0.0001849783,7,1
-7.817725e-05,-0.0002673075,7,1
-0.0001381414,-0.0003468815,7,1
-0.0002151224,-0.0004251591,7,1
-0.0002635799,-0.0005010056,7,1
-0.0002528836,-0.0005723144,7,1
-0.0001959987,-0.0006371404,7,1
-0.0001436516,-0.0006958081,7,1
-0.0001480274,-0.0007481552,7,1
-0.0002360289,-0.0007974231,7,1
-0.0003904771,-0.0008431255,7,1
-0.000568911,-0.0008838038,7,1
-0.0007209282,-0.000911517,7,1
-0.0008111986,-0.0009145963,7,1
-0.0008314567,-0.0008933656,7,1
-0.0007949921,-0.0008641939,7,1
-0.0007241695,-0.0008439358,7,1
-0.0006266062,-0.0008353463,7,1
-0.0004987367,-0.0008282154,7,1
-0.0003423437,-0.000812171,7,1
-0.0001831956,-0.0007794338,7,1
-5.467778e-05,-0.0007314624,7,1
1.436204e-05,-0.0006760361,7,1
1.727922e-05,-0.0006243373,7,1
-2.388537e-05,-0.0005834968,7,1
-6.877746e-05,-0.0005582146,7,1
-7.850138e-05,-0.0005504355,7,1
-3.247483e-05,-0.000559025,7,1
6.622294e-05,-0.0005826865,7,1
0.0001911753,-0.0006193133,7,1
0.0003038107,-0.0006650157,7,1
0.0003671783,-0.0007150938,7,1
0.0003675024,-0.0007643617,7,1
0.0003256896,-0.000804716,7,1
0.0002801492,-0.0008277292,7,1
0.0002654013,-0.0008299981,7,1
0.0002918179,-0.0008152502,7,1
0.000339303,-0.0007886715,7,1
0.0003801436,-0.0007530171,7,1
0.0004005638,-0.000710718,7,1
0.0004018603,-0.0006643674,7,1
0.0003969983,-0.0006146134,7,1
0.0003960259,-0.0005617801,7,1
0.0004042913,-0.0005097571,7,1
0.0004217943,-0.0004578962,7,1
0.0004412422,-0.0004055492,7,1
0.0004493454,-0.000353202,7,1
0.0004347596,-0.0002987481,7,1
0.0003929467,-0.0002350565,7,1
0.0003294171,-0.0001514308,7,1
0.000254867,-4.122636e-05,7,1
0.0001741585,8.631905e-05,7,1
8.405014e-05,0.0002169437,7,1
-1.432352e-05,0.000334117,7,1
-0.0001063766,0.0004302217,7,1
-0.0001700683,0.0005102821,7,1
-0.0001794681,0.0005815908,7,1
-0.0001300382,0.0006525755,7,1
-4.219875e-05,0.000728098,7,1
5.115087e-05,0.0008042688,7,1
0.0001257009,0.0008614778,7,1
0.0001697827,0.0008773603,7,1
0.000185503,0.0008410576,7,1
0.0001762653,0.0007642386,7,1
0.0001521176,0.0006715371,7,1
0.0001237561,0.0005828873,7,1
0.0001028497,0.0005094717,7,1
9.280167e-05,0.0004579349,7,1
9.069481e-05,0.0004292493,7,1
9.134307e-05,0.0004243874,7,1
8.259155e-05,0.0004422146,7,1
5.19612e-05,0.0004848378,7,1
-1.844488e-06,0.0005522569,7,1
-6.586029e-05,0.000631507,7,1
-0.0001276072,0.0006981159,7,1
-0.0001820611,0.0007311772,7,1
-0.0002220912,0.0007219395,7,1
-0.0002410529,0.0006742922,7,1
-0.0002324634,0.0005982835,7,1
-0.0002045882,0.0005088235,7,1
-0.0001771992,0.0004221185,7,1
-0.0001759026,0.0003469201,7,1
-0.0002159328,0.0002825802,7,1
-0.0002942103,0.0002213195,7,1
-0.0003925839,0.0001582761,7,1
-0.0004818819,9.247754e-05,7,1
-0.0005352014,2.732727e-05,7,1
-0.0005361738,-3.069211e-05,7,1
-0.0004802613,-7.542214e-05,7,1
-0.0003848048,-0.0001057284,7,1
-0.0002793003,-0.0001263107,7,1
-0.0001898403,-0.0001408965,7,1
-0.0001238797,-0.000151917,7,1
-7.201877e-05,-0.0001614788,7,1
-3.166451e-05,-0.000169258,7,1
-4.113403e-06,-0.000174444,7,1
4.80019e-06,-0.0001818991,7,1
-5.085794e-06,-0.0001925954,7,1
-2.404744e-05,-0.000206695,7,1
-3.506788e-05,-0.0002243602,7,1
-2.437157e-05,-0.0002412149,7,1
1.355172e-05,-0.0002541802,7,1
7.20573e-05,-0.0002617972,7,1
0.0001378558,-0.0002635799,7,1
0.0001976579,-0.0002608248,7,1
0.0002372019,-0.0002601766,7,1
0.0002467637,-0.0002627696,7,1
0.0002256952,-0.0002690902,7,1
0.0001869616,-0.0002791382,7,1
0.0001469315,-0.000293562,7,1
0.0001180839,-0.0003073376,7,1
0.000105929,-0.0003191683,7,1
0.000103498,-0.0003248407,7,1
0.0001020394,-0.0003235441,7,1
9.490851e-05,-0.0003173856,7,1
7.659513e-05,-0.0003102548,7,1
4.693717e-05,-0.0003019894,7,1
1.338965e-05,-0.000290969,7,1
-8.813297e-06,-0.0002771934,7,1
-9.137427e-06,-0.0002583939,7,1
7.879432e-06,-0.0002395943,7,1
2.992031e-05,-0.0002272773,7,1
4.807163e-05,-0.0002300324,7,1
6.298164e-05,-0.0002514251,7,1
8.453633e-05,-0.0002869174,7,1
0.0001265113,-0.0003262992,7,1
0.0001895547,-0.0003611433,7,1
0.000254867,-0.0003867496,7,1
0.0002905214,-0.0003990665,7,1
0.0002736666,-0.0003930701,7,1
0.0002068957,-0.0003728119,7,1
0.0001151667,-0.0003425058,7,1
3.413401e-05,-0.0002987481,7,1
-1.124428e-05,-0.0002399184,7,1
-1.756482e-05,-0.0001703924,7,1
5.934648e-06,-0.0001054042,7,1
5.504044e-05,-5.581224e-05,7,1
0.0001250527,-2.388537e-05,7,1
0.0002104611,-4.599598e-06,7,1
0.0003000832,1.630683e-05,7,1
0.0003722023,5.601284e-05,7,1
0.0004000776,0.0001242423,7,1
0.0003671783,0.0002198609,7,1
0.000284687,0.0003357376,7,1
0.0001811273,0.0004610142,7,1
8.972242e-05,0.0005908285,7,1
2.959619e-05,0.0007386322,7,1
-3.858999e-07,0.0009199835,7,1
-1.20546e-05,0.001131317,7,1
-1.724069e-05,0.001349457,7,1
-2.664048e-05,0.00153794,7,1
-4.43056e-05,0.00165641,7,1
-7.007399e-05,0.001673589,7,1
-9.875954e-05,0.001583156,7,1
-0.0001230693,0.001407153,7,1
-0.0001267968,0.001178316,7,1
-9.632857e-05,0.0009332729,7,1
-4.284701e-05,0.0007050846,7,1
-3.627206e-06,0.0005141716,7,1
-8.813297e-06,0.0003710679,7,1
-6.083626e-05,0.0002757735,7,1
-0.000129714,0.0002146748,7,1
-0.0001689338,0.0001736723,7,1
-0.0001514308,0.0001380179,7,1
-9.2439e-05,9.296373e-05,7,1
-4.106429e-05,3.802358e-05,7,1
-4.252288e-05,-2.372331e-05,7,1
-0.0001185315,-8.838737e-05,7,1
-0.0002590421,-0.0001567789,7,1
-0.0004301831,-0.0002256567,7,1
-0.0005869002,-0.000290969,7,1
-0.0006823567,-0.0003408851,7,1
-0.0006907841,-0.000370543,7,1
-0.0006277406,-0.0003773498,7,1
-0.0005420081,-0.0003658432,7,1
-0.000474589,-0.0003444506,7,1
-0.0004368278,-0.0003165753,7,1
-0.0004058733,-0.0002833519,7,1
-0.0003344025,-0.0002455907,7,1
-0.0001911368,-0.0002050744,7,1
-1.034161e-06,-0.000166989,7,1
0.0001620036,-0.0001399241,7,1
0.0002328261,-0.0001342519,7,1
0.0002007372,-0.0001558065,7,1
0.0001122495,-0.0002028055,7,1
3.332369e-05,-0.0002690902,7,1
1.112074e-05,-0.0003468815,7,1
6.184718e-05,-0.000427428,7,1
0.0001621656,-0.0004993849,7,1
0.0002655633,-0.0005512458,7,1
0.0003383307,-0.0005744212,7,1
0.0003778746,-0.0005646973,7,1
0.0003913261,-0.0005301774,7,1
0.0003734989,-0.0004859335,7,1
0.0003260137,-0.0004530343,7,1
0.0002717218,-0.0004486585,7,1
0.0002496809,-0.0004713477,7,1
0.0002764217,-0.000507002,7,1
0.0003295791,-0.0005376324,7,1
0.000368961,-0.000554001,7,1
0.0003678266,-0.000554001,7,1
0.0003346032,-0.0005450874,7,1
0.0003106175,-0.0005300153,7,1
0.00033671,-0.0005032745,7,1
0.000418391,-0.0004685925,7,1
0.0005156302,-0.0004306693,7,1
0.000562305,-0.0003880461,7,1
0.0005180612,-0.000343154,7,1
0.0003906778,-0.0003031239,7,1
0.0002266676,-0.0002780038,7,1
7.416415e-05,-0.0002694143,7,1
-3.847125e-05,-0.0002746004,7,1
-0.0001088076,-0.0002924276,7,1
-0.0001528894,-0.0003219235,7,1
-0.0001857886,-0.0003601709,7,1
-0.0002118811,-0.0003971218,7,1
-0.0002361909,-0.0004181903,7,1
-0.0002592042,-0.0004138145,7,1
-0.000276059,-0.0003869116,7,1
-0.0002851347,-0.0003444506,7,1
-0.0002887001,-0.0002948586,7,1
-0.0002911311,-0.0002407288,7,1
-0.0002930758,-0.0001799543,7,1
-0.000288538,-0.000102325,7,1
-0.000268604,-7.100305e-07,7,1
-0.0002259808,0.0001276457,7,1
-0.0001611547,0.0002795009,7,1
-8.465986e-05,0.0004414042,7,1
-1.027188e-05,0.0006050903,7,1
4.239934e-05,0.0007712074,7,1
6.362991e-05,0.0009496415,7,1
6.119892e-05,0.001148982,7,1
5.633696e-05,0.001359829,7,1
6.573675e-05,0.001542477,7,1
9.231547e-05,0.001637772,7,1
0.0001200286,0.00160228,7,1
0.0001224596,0.001432759,7,1
8.729144e-05,0.00116843,7,1
2.473423e-05,0.0008737948,7,1
-4.090223e-05,0.0006099523,7,1
-9.389759e-05,0.0004120704,7,1
-0.0001365208,0.0002850112,7,1
-0.0001878955,0.0002171058,7,1
-0.0002569353,0.000185341,7,1
-0.0003329439,0.0001710792,7,1
-0.000405225,0.0001613553,7,1
-0.0004681064,0.0001459591,7,1
-0.0005209396,0.0001122495,7,1
-0.0005512458,5.19612e-05,7,1
-0.0005457356,-3.506788e-05,7,1
-0.0005021401,-0.0001400862,7,1
-0.0004241867,-0.0002485079,7,1
-0.0003206269,-0.0003493125,7,1
-0.0002049123,-0.000437476,7,1
-9.519411e-05,-0.0005100812,7,1
-8.165035e-06,-0.0005659938,7,1
4.207521e-05,-0.0006013241,7,1
5.56887e-05,-0.0006183409,7,1
4.385793e-05,-0.0006238511,7,1
2.246531e-05,-0.0006288751,7,1
4.313994e-06,-0.0006358439,7,1
-8.165035e-06,-0.0006381128,7,1
-2.09682e-05,-0.0006270924,7,1
-4.05781e-05,-0.0005998655,7,1
-6.504996e-05,-0.0005624284,7,1
-8.709085e-05,-0.0005211017,7,1
-9.730096e-05,-0.0004805854,7,1
-8.773911e-05,-0.0004335865,7,1
-5.970181e-05,-0.0003614674,7,1
-2.388537e-05,-0.0002407288,7,1
5.124321e-06,-5.986387e-05,7,1
1.711715e-05,0.0001683241,7,1
8.851824e-06,0.0004107739,7,1
-1.351319e-05,0.0006303725,7,1
-3.701266e-05,0.0007940586,7,1
-5.192267e-05,0.0008804395,7,1
-5.078821e-05,0.0008895152,7,1
-3.231277e-05,0.0008451093,7,1
1.883015e-06,0.0007830382,7,1
4.596478e-05,0.0007242084,7,1
8.972242e-05,0.0006708889,7,1
0.0001211631,0.0006149763,7,1
0.0001351007,0.0005457744,7,1
0.0001448246,0.0004613383,7,1
0.000168,0.0003657197,7,1
0.0002133783,0.0002658874,7,1
0.0002726942,0.0001702689,7,1
0.0003230965,8.161915e-05,7,1
0.0003446512,5.772582e-06,7,1
0.0003412479,-5.22468e-05,7,1
0.0003297412,-9.357346e-05,7,1
0.0003255275,-0.0001264727,7,1
0.0003313618,-0.0001541859,7,1
0.0003360618,-0.0001778474,7,1
0.0003247172,-0.0001997262,7,1
0.0002931144,-0.0002167431,7,1
0.0002540567,-0.0002241981,7,1
0.0002216436,-0.000219012,7,1
0.000202682,-0.0001997262,7,1
0.0001949028,-0.0001723372,7,1
0.0001937684,-0.0001472171,7,1
0.0001940925,-0.0001352242,7,1
0.000195389,-0.0001465688,7,1
0.0002018716,-0.0001893541,7,1
0.0002146748,-0.0002652006,7,1
0.0002305572,-0.000360333,7,1
0.0002402811,-0.0004569239,7,1
0.0002360674,-0.0005373082,7,1
0.0002141886,-0.0005919242,7,1
0.0001746447,-0.0006196374,7,1
0.0001190562,-0.0006347094,7,1
5.260946e-05,-0.000648485,7,1
-1.707863e-05,-0.000665826,7,1
-8.093236e-05,-0.0006904599,7,1
-0.0001313347,-0.000725304,7,1
-0.0001671511,-0.0007697099,7,1
-0.0001875713,-0.0008257844,7,1
-0.0001995642,-0.0008875313,7,1
-0.0002075054,-0.0009376095,7,1
-0.0002071812,-0.0009484679,7,1
-0.0001971332,-0.0009053585,7,1
-0.0001883817,-0.0008108745,7,1
-0.0002000504,-0.0006749016,7,1
-0.0002311669,-0.0005076503,7,1
-0.0002575835,-0.0003118754,7,1
-0.0002569353,-7.18567e-05,7,1
-0.0002293842,0.0002409294,7,1
-0.0001853024,0.0006465791,7,1
-0.0001363587,0.0011284,7,1
-8.595638e-05,0.001619459,7,1
-2.939559e-05,0.002021544,7,1
4.402e-05,0.002239685,7,1
0.0001409351,0.002227206,7,1
0.0002521119,0.002004851,7,1
0.0003509718,0.00164701,7,1
0.0003992672,0.001243466,7,1
0.0003754436,0.0008749293,7,1
0.0002782044,0.0005914768,7,1
0.0001316974,0.0004039671,7,1
-1.756482e-05,0.0002916559,7,1
-0.0001289037,0.0002229401,7,1
-0.0001898403,0.0001738343,7,1
-0.0002084778,0.0001341283,7,1
-0.0001963229,9.717743e-05,7,1
-0.0001614788,6.136099e-05,7,1
-0.0001154523,2.181705e-05,7,1
-7.671866e-05,-2.534396e-05,7,1
-6.553616e-05,-7.623246e-05,7,1
-9.162867e-05,-0.0001219349,7,1
-0.0001425172,-0.0001567789,7,1
-0.0001878955,-0.0001775233,7,1
-0.0001971332,-0.0001835197,7,1
-0.0001613168,-0.0001828714,7,1
-9.454585e-05,-0.0001878955,7,1
-2.761287e-05,-0.0002076674,7,1
1.12828e-05,-0.0002457528,7,1
5.286387e-06,-0.0002976137,7,1
-3.701266e-05,-0.0003559572,7,1
-8.628052e-05,-0.0004190006,7,1
-0.0001164247,-0.0004865818,7,1
-0.0001165867,-0.000561456,7,1
-8.806324e-05,-0.000640868,7,1
-4.203669e-05,-0.0007183352,7,1
7.069105e-06,-0.0007831613,7,1
4.871989e-05,-0.0008291878,7,1
8.453633e-05,-0.0008591699,7,1
0.0001232699,-0.0008805625,7,1
0.0001712413,-0.0008983897,7,1
0.0002286124,-0.0009108688,7,1
0.0002863077,-0.0009034137,7,1
0.0003378445,-0.0008661387,7,1
0.0003733368,-0.0007982334,7,1
0.0003814401,-0.000707963,7,1
0.0003611819,-0.0006116962,7,1
0.0003200173,-0.0005240189,7,1
0.0002611876,-0.0004509274,7,1
0.0001921477,-0.0003792946,7,1
0.000120839,-0.000288538,7,1
5.730935e-05,-0.0001640719,7,1
1.22552e-05,2.369211e-06,7,1
-5.89612e-06,0.0002111094,7,1
-2.654814e-06,0.0004483731,7,1
5.286387e-06,0.0006917953,7,1
-6.220252e-06,0.0009133389,7,1
-4.90055e-05,0.00108529,7,1
-0.0001152902,0.001189661,7,1
-0.0001804405,0.001227908,7,1
-0.0002193361,0.00121397,7,1
-0.000213988,0.001170699,7,1
-0.000161965,0.001120621,7,1
-8.417367e-05,0.001079294,7,1
-1.707863e-05,0.001043639,7,1
6.744974e-06,0.001003285,7,1
-2.599222e-05,0.0009483449,7,1
-0.0001008664,0.0008723363,7,1
-0.0001887058,0.0007762314,7,1
-0.000261311,0.0006652166,7,1
-0.0003019894,0.0005439916,7,1
-0.0003027998,0.0004145014,7,1
-0.0002590421,0.0002827423,7,1
-0.0001720131,0.0001569795,7,1
-6.197072e-05,4.483033e-05,7,1
3.769945e-05,-5.030202e-05,7,1
9.182927e-05,-0.0001264727,7,1
8.631905e-05,-0.000186761,7,1
3.737532e-05,-0.0002366771,7,1
-2.907146e-05,-0.0002831898,7,1
-9.19528e-05,-0.0003262992,7,1
-0.0001426792,-0.0003611433,7,1
-0.0001731475,-0.000385291,7,1
-0.0001770371,-0.0003998769,7,1
-0.0001609926,-0.0004081422,7,1
-0.0001366828,-0.0004170558,7,1
-0.0001164247,-0.0004293727,7,1
-0.0001091317,-0.0004418518,7,1
-0.0001185315,-0.0004506033,7,1
-0.0001384655,-0.0004528722,7,1
-0.0001572651,-0.0004514136,7,1
-0.0001626133,-0.0004468758,7,1
-0.0001527273,-0.0004394208,7,1
-0.0001352242,-0.0004238625,7,1
-0.000122259,-0.0003898288,7,1
-0.0001282554,-0.0003301888,7,1
-0.0001600202,-0.0002496423,7,1
-0.000208964,-0.0001616409,7,1
-0.0002540181,-7.817725e-05,7,1
-0.0002767073,-5.247859e-06,7,1
-0.0002713591,5.212327e-05,7,1
-0.0002439701,8.84259e-05,7,1
-0.0002034537,9.814982e-05,7,1
-0.0001575893,8.080883e-05,7,1
-0.0001139937,4.175109e-05,7,1
-8.336335e-05,-9.947754e-06,7,1
-6.81292e-05,-6.180866e-05,7,1
-5.937768e-05,-0.0001024871,7,1
-3.830919e-05,-0.0001269589,7,1
1.371378e-05,-0.0001324691,7,1
9.701536e-05,-0.0001251762,7,1
0.0001957132,-0.0001186936,7,1
0.0002838767,-0.0001248521,7,1
0.0003368721,-0.0001438137,7,1
0.0003462718,-0.0001705545,7,1
0.0003205035,-0.000199078,7,1
0.0002811216,-0.0002219292,7,1
0.0002493568,-0.0002361909,7,1
0.0002323399,-0.0002394322,7,1
0.000225047,-0.0002301945,7,1
0.0002245608,-0.0002193361,7,1
0.0002303951,-0.0002180396,7,1
0.0002409294,-0.0002285739,7,1
0.0002459534,-0.0002475355,7,1
0.0002337985,-0.000268766,7,1
0.0001989545,-0.0002856209,7,1
0.0001548727,-0.0002875656,7,1
0.0001315353,-0.0002616352,7,1
0.0001545486,-0.000201671,7,1
0.00022764,-0.0001120489,7,1
0.0003333067,-6.706447e-06,7,1
0.0004384871,9.409818e-05,7,1
0.0005172509,0.0001762653,7,1
0.0005493398,0.0002370398,7,1
0.0005305402,0.000287118,7,1
0.000465552,0.0003373583,7,1
0.0003712299,0.0003958639,7,1
0.0002642668,0.0004627969,7,1
0.0001551968,0.0005224369,7,1
5.179914e-05,0.0005551741,7,1
-3.944364e-05,0.0005460985,7,1
-0.0001076731,0.0004960203,7,1
-0.0001433275,0.0004204978,7,1
-0.000149486,0.0003376824,7,1
-0.0001410586,0.0002610255,7,1
-0.0001378173,0.00019782,7,1
-0.0001543479,0.0001564933,7,1
-0.0001887058,0.0001399627,7,1
-0.0002269532,0.0001487142,7,1
-0.0002603387,0.0001761032,7,1
-0.0002864312,0.0002120818,7,1
-0.0003036101,0.0002493568,7,1
-0.0003123616,0.0002830664,7,1
-0.0003136581,0.0003067279,7,1
-0.0003031239,0.0003159656,7,1
-0.000273628,0.0003081865,7,1
-0.0002186879,0.0002829043,7,1
-0.0001431655,0.0002466017,7,1
-7.461182e-05,0.0002093267,7,1
-4.511593e-05,0.0001793446,7,1
-7.623246e-05,0.0001647587,7,1
-0.0001634236,0.0001611932,7,1
-0.0002763831,0.0001568175,7,1
-0.0003664914,0.0001409351,7,1
-0.0003718396,0.0001075496,7,1
-0.0002442942,5.828175e-05,7,1
1.306552e-05,7.069105e-06,7,1
0.0003276344,-2.647842e-05,7,1
0.0005922872,-3.377136e-05,7,1
0.0007269635,-2.291298e-05,7,1
0.0007075156,-1.173047e-05,7,1
0.000564574,-1.918548e-05,7,1
0.0003621543,-6.0188e-05,7,1
0.0001634622,-0.0001399241,7,1
1.533444e-05,-0.0002528836,7,1
-5.516398e-05,-0.0003869116,7,1
-4.090223e-05,-0.0005270981,7,1
3.737532e-05,-0.0006582089,7,1
0.0001351007,-0.0007646859,7,1
0.0001983062,-0.0008437737,7,1
0.000190365,-0.0008988759,7,1
0.0001138702,-0.0009393922,7,1
4.962256e-06,-0.0009752086,7,1
-8.287715e-05,-0.001008756,7,1
-0.0001151281,-0.001036469,7,1
-9.049421e-05,-0.001053324,7,1
-2.89094e-05,-0.001052838,7,1
4.337174e-05,-0.001037928,7,1
0.0001057669,-0.001011673,7,1
0.0001469315,-0.000971157,7,1
0.000162976,-0.000906655,7,1
0.000155683,-0.0008027712,7,1
0.0001299146,-0.0006479988,7,1
9.037068e-05,-0.0004371519,7,1
4.191315e-05,-0.0001681235,7,1
-1.367526e-05,0.0001598967,7,1
-7.282909e-05,0.000547233,7,1
-0.0001336036,0.0009914545,7,1
-0.0001890299,0.001469386,7,1
-0.0002277635,0.001924629,7,1
-0.0002410529,0.002278743,7,1
-0.0002342462,0.002465605,7,1
-0.0002263049,0.002461229,7,1
-0.0002353806,0.002288629,7,1
-0.0002603387,0.002006634,7,1
-0.0002820554,0.00169093,7,1
-0.0002807589,0.001408287,7,1
-0.0002522354,0.001197926,7,1
-0.0002057227,0.001065194,7,1
-0.0001543479,0.0009830269,7,1
-0.0001089697,0.0009147974,7,1
-7.833932e-05,0.0008348991,7,1
-6.035007e-05,0.0007302048,7,1
-5.095028e-05,0.0006041179,7,1
-5.046408e-05,0.0004647417,7,1
-5.856735e-05,0.0003226103,7,1
-7.33153e-05,0.0001906891,7,1
-9.324933e-05,7.805372e-05,7,1
-0.0001161005,-1.092015e-05,7,1
-0.0001366828,-7.428769e-05,7,1
-0.0001412206,-0.0001162626,7,1
-0.0001214487,-0.0001473791,7,1
-8.320128e-05,-0.000176875,7,1
-3.814712e-05,-0.0002109087,7,1
1.720949e-06,-0.0002465631,7,1
2.522042e-05,-0.0002781658,7,1
3.056858e-05,-0.0003063652,7,1
2.230325e-05,-0.0003342404,7,1
1.663096e-05,-0.000365519,7,1
3.089271e-05,-0.0003964735,7,1
7.319176e-05,-0.0004241867,7,1
0.0001323456,-0.000449955,7,1
0.0001825859,-0.0004794509,7,1
0.0002060853,-0.0005141329,7,1
0.0001992786,-0.0005527044,7,1
0.0001654069,-0.0005885208,7,1
0.0001023635,-0.0006167202,7,1
1.711715e-05,-0.0006332509,7,1
-7.55842e-05,-0.0006334129,7,1
-0.0001559686,-0.0006188271,7,1
-0.0002104225,-0.0005933828,7,1
-0.0002381357,-0.0005609698,7,1
-0.0002489941,-0.000526774,7,1
-0.0002506147,-0.0004964678,7,1
-0.0002442942,-0.0004744269,7,1
-0.0002212809,-0.0004679443,7,1
-0.0001775233,-0.0004784786,7,1
-0.0001243659,-0.0005005194,7,1
-7.574627e-05,-0.0005233706,7,1
-4.090223e-05,-0.0005421702,7,1
-2.372331e-05,-0.0005582146,7,1
-2.307504e-05,-0.000576366,7,1
-2.145439e-05,-0.0005980827,7,1
7.069105e-06,-0.0006227166,7,1
6.849186e-05,-0.000643461,7,1
0.0001305629,-0.0006504298,7,1
0.0001433661,-0.0006384369,7,1
8.42122e-05,-0.0006142893,7,1
-1.724069e-05,-0.0005922483,7,1
-0.0001094559,-0.0005826865,7,1
-0.0001546721,-0.0005899795,7,1
-0.0001515928,-0.0006113721,7,1
-0.0001253383,-0.0006377887,7,1
-9.811128e-05,-0.0006598296,7,1
-7.752899e-05,-0.0006718224,7,1
-5.629844e-05,-0.0006703638,7,1
-2.129233e-05,-0.000653185,7,1
2.910999e-05,-0.0006157478,7,1
8.777764e-05,-0.0005556216,7,1
0.0001425557,-0.0004752372,7,1
0.0001799928,-0.0003765395,7,1
0.0002018716,-0.0002600145,7,1
0.000222616,-0.0001308485,7,1
0.0002538946,6.582909e-06,7,1
0.0002991108,0.0001539003,7,1
0.0003477304,0.0003182346,7,1
0.0003807918,0.0005112545,7,1
0.0003777126,0.0007371737,7,1
0.0003261758,0.0009820546,7,1
0.000225047,0.001210405,7,1
9.199134e-05,0.001377008,7,1
-4.025397e-05,0.001450748,7,1
-0.0001384655,0.001417525,7,1
-0.0001856265,0.001290141,7,1
-0.00018433,0.001100363,7,1
-0.0001533756,0.0008887049,7,1
-0.000119666,0.0006896885,7,1
-0.0001089697,0.0005251921,7,1
-0.0001264727,0.0004015361,7,1
-0.0001574272,0.0003138588,7,1
-0.0001723372,0.0002551911,7,1
-0.000144624,0.0002192126,7,1
-7.363943e-05,0.0002034923,7,1
2.278944e-05,0.0001987924,7,1
0.0001179218,0.0001942546,7,1
0.0001937684,0.0001840444,7,1
0.0002529222,0.0001678379,7,1
0.0002968419,0.0001488763,7,1
0.0003200173,0.0001318594,7,1
0.0003140208,0.0001180839,7,1
0.0002786906,0.0001054428,7,1
0.0002281262,9.652917e-05,7,1
0.0001827479,8.972242e-05,7,1
0.0001543865,8.178122e-05,7,1
0.0001402868,6.719535e-05,7,1
0.0001318594,4.385793e-05,7,1
0.000128294,1.031041e-05,7,1
0.0001365593,-2.809907e-05,7,1
0.0001736723,-6.164659e-05,7,1
0.0002461155,-8.676672e-05,7,1
0.0003448133,-0.0001008664,7,1
0.000440756,-0.0001015147,7,1
0.0004974789,-8.838737e-05,7,1
0.0004898618,-7.266703e-05,7,1
0.000418391,-6.683268e-05,7,1
0.0003067279,-7.574627e-05,7,1
0.0001832341,-9.989401e-05,7,1
7.67572e-05,-0.000134576,7,1
3.179537e-06,-0.0001728234,7,1
-3.539201e-05,-0.0002094502,7,1
-4.868137e-05,-0.0002404046,7,1
-5.581224e-05,-0.0002639041,7,1
-7.315322e-05,-0.0002823795,7,1
-0.0001112386,-0.0002937241,7,1
-0.0001729855,-0.0002942103,7,1
-0.0002541802,-0.0002872415,7,1
-0.0003463953,-0.0002793003,7,1
-0.0004389346,-0.0002752487,7,1
-0.0005180225,-0.0002768693,7,1
-0.0005742591,-0.000283514,7,1
-0.0005992171,-0.0002911311,7,1
-0.0005954896,-0.000295993,7,1
-0.0005784728,-0.0002968033,7,1
-0.0005617801,-0.0002998826,7,1
-0.0005462218,-0.0003047445,7,1
-0.0005266119,-0.0003057169,7,1
-0.0004963057,-0.0002968033,7,1
-0.0004549791,-0.0002703867,7,1
-0.0004061974,-0.0002233878,7,1
-0.000342992,-0.000159372,7,1
-0.0002583939,-8.676672e-05,7,1
-0.0001614788,-1.724069e-05,7,1
-7.931171e-05,4.175109e-05,7,1
-3.539201e-05,9.182927e-05,7,1
-3.344723e-05,0.0001412592,7,1
-5.062615e-05,0.000200251,7,1
-5.289507e-05,0.000279663,7,1
-9.623623e-06,0.0003830607,7,1
8.631905e-05,0.0004971547,7,1
0.0002161334,0.0005979594,7,1
0.0003461098,0.0006639201,7,1
0.0004456179,0.0006848265,7,1
0.0004971547,0.0006631098,7,1
0.0004995857,0.000609466,7,1
0.0004658761,0.0005388056,7,1
0.0004175806,0.0004639314,7,1
0.0003751195,0.0003926226,7,1
0.0003499994,0.0003230965,7,1
0.0003412479,0.0002457913,7,1
0.0003436788,0.0001498487,7,1
0.0003418961,2.81376e-05,7,1
0.0003240689,-0.0001138316,7,1
0.0002890628,-0.0002608248,7,1
0.000239957,-0.000397608,7,1
0.0001772377,-0.0005154294,7,1
0.000101067,-0.0006180168,7,1
2.035846e-05,-0.0007170386,7,1
-5.257093e-05,-0.0008126572,7,1
-9.892161e-05,-0.0008919071,7,1
-0.0001057284,-0.0009410129,7,1
-7.104638e-05,-0.0009551126,7,1
-5.247859e-06,-0.0009418232,7,1
7.351589e-05,-0.0009132997,7,1
0.000145797,-0.0008815349,7,1
0.0002000889,-0.0008507425,7,1
0.0002333123,-0.0008227052,7,1
0.0002456293,-0.0007975851,7,1
0.0002359054,-0.0007740856,7,1
0.0002020337,-0.0007562584,7,1
0.0001453108,-0.0007423208,7,1
7.157111e-05,-0.0007199558,7,1
-5.734056e-06,-0.0006586951,7,1
-6.91016e-05,-0.000526774,7,1
-9.535618e-05,-0.000303448,7,1
-5.905355e-05,1.744129e-05,7,1
5.131294e-05,0.0004303838,7,1
0.0002188885,0.0009201455,7,1
0.0004094774,0.001459986,7,1
0.0005815908,0.00202203,7,1
0.0006832058,0.002577917,7,1
0.0006593822,0.003087777,7,1
0.0004935893,0.003499427,7,1
0.0002128921,0.003744958,7,1
-0.0001259865,0.003764406,7,1
-0.000459679,0.003536864,7,1
-0.0007300039,0.003098798,7,1
-0.0009035757,0.002526542,7,1
-0.0009740742,0.001910367,7,1
-0.0009620814,0.00133552,7,1
-0.0009037378,0.0008590469,7,1
-0.0008240017,0.0005047718,7,1
-0.0007300039,0.0002649151,7,1
-0.0006196374,0.0001122495,7,1
-0.0005026262,1.59827e-05,7,1
-0.0004024699,-5.22468e-05,7,1
-0.0003392644,-0.0001133454,7,1
-0.0003117133,-0.0001770371,7,1
-0.0002925897,-0.0002467252,7,1
-0.0002540181,-0.0003160891,7,1
-0.0001935677,-0.0003805911,7,1
-0.0001376552,-0.0004371519,7,1
-0.0001149661,-0.0004886886,7,1
-0.0001327933,-0.0005374703,7,1
-0.0001690959,-0.0005857658,7,1
-0.0001865989,-0.000628551,7,1
-0.0001660166,-0.0006546435,7,1
-0.0001185315,-0.0006556159,7,1
-7.120844e-05,-0.0006343853,7,1
-4.462973e-05,-0.0006097514,7,1
-4.252288e-05,-0.0006032689,7,1
-5.046408e-05,-0.0006283889,7,1
-4.819517e-05,-0.0006862463,7,1
-2.647842e-05,-0.0007669547,7,1
9.175954e-06,-0.0008588458,7,1
4.256141e-05,-0.0009497644,7,1
7.20573e-05,-0.001023828,7,1
0.0001158149,-0.001068234,7,1
0.0001882582,-0.001074393,7,1
0.0002879283,-0.001045869,7,1
0.0003989431,-0.001001301,7,1
0.0005042856,-0.0009640261,7,1
0.0005827253,-0.0009564091,7,1
0.00061919,-0.000990929,7,1
0.0006084936,-0.001060941,7,1
0.0005546879,-0.001141001,7,1
0.0004723587,-0.001206152,7,1
0.0003804677,-0.001243751,7,1
0.0002932765,-0.001254933,7,1
0.0002243987,-0.001250234,7,1
0.0001786963,-0.001243589,7,1
0.0001503349,-0.001251854,7,1
0.0001323456,-0.001285078,7,1
0.0001164632,-0.001342611,7,1
9.717743e-05,-0.00141165,7,1
6.768154e-05,-0.001473884,7,1
2.035846e-05,-0.001521207,7,1
-4.868137e-05,-0.001547461,7,1
-0.0001360346,-0.001536927,7,1
-0.0002350565,-0.00146967,7,1
-0.000330675,-0.001332725,7,1
-0.0004073319,-0.001135005,7,1
-0.0004502792,-0.0008987138,7,1
-0.0004462276,-0.0006444334,7,1
-0.0003835083,-0.0003682741,7,1
-0.0002582318,-3.409549e-05,7,1
-9.114248e-05,0.0003982949,7,1
8.032264e-05,0.0009397555,7,1
0.0002109473,0.001543288,7,1
0.0002683184,0.00210987,7,1
0.0002516257,0.002528811,7,1
0.000180479,0.002723452,7,1
8.340187e-05,0.002677263,7,1
-1.351319e-05,0.002437567,7,1
-8.871149e-05,0.002096256,7,1
-0.0001300382,0.00174506,7,1
-0.0001298761,0.001445562,7,1
-8.595638e-05,0.001216726,7,1
-4.923729e-06,0.001051581,7,1
8.615699e-05,0.000933597,7,1
0.0001469315,0.0008512677,7,1
0.0001516314,0.0007914656,7,1
0.0001099806,0.000745439,7,1
5.455425e-05,0.0007125397,7,1
1.031041e-05,0.0006943883,7,1
-1.740276e-05,0.0006932539,7,1
-4.252288e-05,0.0007024916,7,1
-8.287715e-05,0.0007075156,7,1
-0.0001433275,0.0006953608,7,1
-0.0002102605,0.000658896,7,1
-0.0002622834,0.0005921251,7,1
-0.000288538,0.0004947237,7,1
-0.0002780038,0.0003692851,7,1
-0.0002154466,0.0002287745,7,1
-9.811128e-05,8.988449e-05,7,1
5.423012e-05,-3.247483e-05,7,1
0.0002072198,-0.0001329553,7,1
0.0003290929,-0.0002159328,7,1
0.0004033189,-0.0002825416,7,1
0.0004226047,-0.0003290543,7,1
0.0003845193,-0.0003564434,7,1
0.0002924662,-0.0003726499,7,1
0.0001642725,-0.0003856151,7,1
3.073064e-05,-0.0004013355,7,1
-7.882551e-05,-0.0004219178,7,1
-0.0001501342,-0.0004491447,7,1
-0.0001929195,-0.0004809095,7,1
-0.000223874,-0.0005097571,7,1
-0.0002391081,-0.0005272602,7,1
-0.0002224154,-0.0005295291,7,1
-0.0001634236,-0.0005189948,7,1
-6.035007e-05,-0.0005032745,7,1
7.465034e-05,-0.0004903093,7,1
0.00021273,-0.000489661,7,1
0.0003224483,-0.0005055434,7,1
0.0003833848,-0.0005355255,7,1
0.0003918123,-0.0005687489,7,1
0.0003644232,-0.0005867381,7,1
0.0003295791,-0.0005757177,7,1
0.0003030004,-0.0005290429,7,1
0.0002832284,-0.0004536825,7,1
0.0002563256,-0.0003674638,7,1
0.0002135403,-0.0002877277,7,1
0.000158114,-0.0002222533,7,1
9.847395e-05,-0.0001741199,7,1
4.515445e-05,-0.0001404103,7,1
1.014835e-05,-0.0001152902,7,1
-1.520357e-06,-9.389759e-05,7,1
6.096713e-06,-7.833932e-05,7,1
1.889987e-05,-7.039812e-05,7,1
2.797553e-05,-6.0188e-05,7,1
2.781346e-05,-3.490581e-05,7,1
2.424803e-05,1.144487e-05,7,1
2.797553e-05,7.157111e-05,7,1
4.645098e-05,0.0001273216,7,1
7.20573e-05,0.000160545,7,1
8.631905e-05,0.0001689724,7,1
7.935024e-05,0.0001545486,7,1
5.99024e-05,0.000120839,7,1
4.385793e-05,7.691926e-05,7,1
3.478228e-05,3.18651e-05,7,1
2.149292e-05,-7.678839e-06,7,1
-1.25408e-05,-4.462973e-05,7,1
-7.428769e-05,-8.757704e-05,7,1
-0.0001585616,-0.0001344139,7,1
-0.0002473734,-0.0001791439,7,1
-0.0003170615,-0.0002073433,7,1
-0.0003470436,-0.0002083157,7,1
-0.0003238683,-0.0001856265,7,1
-0.0002452666,-0.0001553203,7,1
-0.0001250141,-0.0001400862,7,1
1.883015e-06,-0.0001606685,7,1
9.344993e-05,-0.0002227395,7,1
0.0001180839,-0.0003104168,7,1
7.513654e-05,-0.0004021458,7,1
-8.651231e-06,-0.0004857715,7,1
-9.341139e-05,-0.0005543251,7,1
-0.0001460826,-0.0005997034,7,1
-0.0001606685,-0.0006125065,7,1
-0.0001577513,-0.0005817142,7,1
-0.0001613168,-0.0004979264,7,1
-0.0001848162,-0.0003566054,7,1
-0.0002245222,-0.0001629374,7,1
-0.0002603387,7.821578e-05,7,1
-0.000266011,0.0003585888,7,1
-0.0002303566,0.0006674855,7,1
-0.0001572651,0.0009878889,7,1
-6.81292e-05,0.001277176,7,1
9.66215e-06,0.001480893,7,1
5.844381e-05,0.001553336,7,1
7.092284e-05,0.001487213,7,1
4.790957e-05,0.001316396,7,1
5.286387e-06,0.0010955,7,1
-3.960571e-05,0.0008814119,7,1
-7.720486e-05,0.0007203188,7,1
-0.0001084835,0.0006297242,7,1
-0.0001344139,0.0005958526,7,1
-0.0001527273,0.0005866149,7,1
-0.0001572651,0.0005702463,7,1
-0.0001527273,0.0005272989,7,1
-0.0001562927,0.0004587452,7,1
-0.0001741199,0.000373823,7,1
-0.0001976194,0.0002884145,7,1
-0.0002083157,0.0002104611,7,1
-0.0001914609,0.000143204,7,1
-0.0001423551,8.664318e-05,7,1
-7.218083e-05,3.769945e-05,7,1
5.448452e-06,-7.516774e-06,7,1
6.978839e-05,-5.030202e-05,7,1
9.393612e-05,-9.130454e-05,7,1
6.427817e-05,-0.0001337657,7,1
-1.383732e-05,-0.0001804405,7,1
-0.0001088076,-0.0002263049,7,1
-0.0001869231,-0.0002616352,7,1
-0.000226467,-0.0002791382,7,1
-0.0002326255,-0.0002773555,7,1
-0.0002194982,-0.0002598524,7,1
-0.0001925954,-0.0002329496,7,1
-0.000144462,-0.0002029675,7,1
-7.039812e-05,-0.0001737958,7,1
2.489629e-05,-0.0001468929,7,1
0.0001265113,-0.0001229073,7,1
0.0002209954,-0.0001029732,7,1
0.0002908455,-8.547019e-05,7,1
0.0003203414,-6.634648e-05,7,1
0.0003052694,-4.074016e-05,7,1
0.0002611876,-7.354709e-06,7,1
0.0002143507,3.235129e-05,7,1
0.0001890685,7.432621e-05,7,1
0.0002034923,0.0001114392,7,1
0.0002603772,0.0001334801,7,1
0.0003427064,0.0001276457,7,1
0.0004175806,8.907416e-05,7,1
0.0004498317,2.149292e-05,7,1
0.0004133669,-6.553616e-05,7,1
0.0003106175,-0.0001579134,7,1
0.0001715654,-0.0002410529,7,1
4.337174e-05,-0.0003044204,7,1
-2.923353e-05,-0.0003446126,7,1
-1.934754e-05,-0.0003598467,7,1
6.654708e-05,-0.0003470436,7,1
0.0001908512,-0.0003019894,7,1
0.0003010556,-0.0002285739,7,1
0.0003603715,-0.000142031,7,1
0.0003530786,-6.164659e-05,7,1
0.0002901973,-7.192643e-06,7,1
0.0002068957,9.338019e-06,7,1
0.0001537382,-3.465141e-06,7,1
0.0001634622,-2.712668e-05,7,1
0.0002290986,-4.009191e-05,7,1
0.0003062417,-2.42095e-05,7,1
0.0003384927,2.246531e-05,7,1
0.000302028,8.323981e-05,7,1
0.0002149989,0.0001269974,7,1
0.0001201907,0.0001278078,7,1
4.515445e-05,8.064677e-05,7,1
-7.192643e-06,5.124321e-06,7,1
-5.046408e-05,-7.299116e-05,7,1
-9.875954e-05,-0.0001289037,7,1
-0.0001541859,-0.0001502963,7,1
-0.0002050744,-0.0001425172,7,1
-0.0002384598,-0.0001175591,7,1
-0.0002420253,-8.660465e-05,7,1
-0.0002122053,-5.548811e-05,7,1
-0.0001582375,-2.971972e-05,7,1
-9.924574e-05,-1.335113e-05,7,1
-5.64605e-05,-9.785688e-06,7,1
-4.268495e-05,-1.853722e-05,7,1
-6.051213e-05,-4.090223e-05,7,1
-0.0001011905,-7.347736e-05,7,1
-0.000151917,-0.0001067007,7,1
-0.0001961608,-0.0001318209,7,1
-0.000224036,-0.0001462447,7,1
-0.0002342462,-0.0001512687,7,1
-0.0002378116,-0.0001481895,7,1
-0.0002457528,-0.0001464067,7,1
-0.0002583939,-0.0001596961,7,1
-0.0002652006,-0.0001906506,7,1
-0.0002478596,-0.0002310048,7,1
-0.0002058847,-0.0002707109,7,1
-0.0001624512,-0.0003023136,7,1
-0.0001442999,-0.0003238683,7,1
-0.0001621271,-0.0003389403,7,1
-0.0002143121,-0.0003562813,7,1
-0.0002908069,-0.0003818876,7,1
-0.0003682741,-0.0004154351,7,1
-0.0004155972,-0.0004531963,7,1
-0.0004117076,-0.000487068,7,1
-0.0003567675,-0.0005134846,7,1
-0.000268604,-0.0005368221,7,1
-0.0001580754,-0.00056648,7,1
-2.712668e-05,-0.0005943552,7,1
0.0001167873,-0.000601162,7,1
0.000247412,-0.0005766901,7,1
0.0003324963,-0.0005214258,7,1
0.0003436788,-0.0004412035,7,1
0.0002825802,-0.00033813,7,1
0.0001812893,-0.0002126914,7,1
8.194328e-05,-6.926366e-05,7,1
1.614476e-05,9.199134e-05,7,1
-1.075808e-05,0.0002790148,7,1
-1.756482e-05,0.0005015305,7,1
-2.534396e-05,0.0007488423,7,1
-3.960571e-05,0.0009723307,7,1
-5.856735e-05,0.001115597,7,1
-6.715681e-05,0.001136179,7,1
-4.576419e-05,0.001030836,7,1
1.419998e-05,0.0008376542,7,1
0.0001154908,0.0006138419,7,1
0.0002511395,0.0004138531,7,1
0.0004042913,0.0002670219,7,1
0.00053994,0.0001816135,7,1
0.0006190279,0.0001453108,7,1
0.0006190279,0.0001360731,7,1
0.0005483674,0.0001316974,7,1
0.0004365423,0.0001198666,7,1
0.0003201794,9.879808e-05,7,1
0.0002263435,7.546067e-05,7,1
0.0001673517,5.974033e-05,7,1
0.0001365593,5.682316e-05,7,1
0.0001086841,6.897806e-05,7,1
4.645098e-05,9.280167e-05,7,1
-7.218083e-05,0.0001219734,7,1
-0.0002345703,0.0001496866,7,1
-0.0003950149,0.0001678379,7,1
-0.0004914437,0.0001663793,7,1
-0.0004768579,0.0001428799,7,1
-0.0003442885,0.0001054428,7,1
-0.0001332795,6.508849e-05,7,1
9.458438e-05,2.700314e-05,7,1
0.000274639,-7.192643e-06,7,1
0.0003598854,-3.620233e-05,7,1
0.0003375204,-5.986387e-05,7,1
0.0002260194,-7.914964e-05,7,1
6.41161e-05,-8.919769e-05,7,1
-0.0001060525,-8.287715e-05,7,1
-0.0002608248,-5.953974e-05,7,1
-0.0003898288,-2.226472e-05,7,1
-0.0004836646,2.149292e-05,7,1
-0.0005347152,6.541262e-05,7,1
-0.0005332566,0.0001096565,7,1
-0.0004715097,0.000155683,7,1
-0.0003450988,0.0002049509,7,1
-0.000161965,0.0002621599,7,1
5.212327e-05,0.0003239069,7,1
0.0002506533,0.0003811159,7,1
0.0003846814,0.000418391,7,1
0.0004253598,0.0004227667,7,1
0.0003741471,0.000391164,7,1
0.0002632944,0.0003363859,7,1
0.000135911,0.0002801492,7,1
3.218923e-05,0.0002417397,7,1
-2.696461e-05,0.0002302331,7,1
-5.386745e-05,0.0002430362,7,1
-7.299116e-05,0.0002723701,7,1
-9.730096e-05,0.000304459,7,1
-0.0001229073,0.0003290929,7,1
-0.0001391138,0.000341734,7,1
-0.0001342519,0.0003427064,7,1
-0.0001088076,0.0003329825,7,1
-7.752899e-05,0.0003114278,7,1
-5.743289e-05,0.0002743149,7,1
-6.715681e-05,0.0002222919,7,1
-0.0001136696,0.0001642725,7,1
-0.0001900023,0.000115977,7,1
-0.0002718453,8.680524e-05,7,1
-0.0003267854,7.870197e-05,7,1
-0.0003426678,8.988449e-05,7,1
-0.0003295405,0.0001038221,7,1
-0.000301017,9.717743e-05,7,1
-0.0002579077,5.390598e-05,7,1
-0.0001912988,-2.501983e-05,7,1
-9.730096e-05,-0.0001266348,7,1
1.257933e-05,-0.0002300324,7,1
0.0001216493,-0.0003092824,7,1
0.0002138645,-0.0003470436,7,1
0.0002759355,-0.0003386162,7,1
0.0002957075,-0.0002963172,7,1
0.0002704253,-0.0002455907,7,1
0.0002085163,-0.0002079916,7,1
0.0001304008,-0.0001934057,7,1
5.536457e-05,-0.0001997262,7,1
-5.247859e-06,-0.0002254946,7,1
-4.317115e-05,-0.0002755728,7,1
-6.035007e-05,-0.0003501228,7,1
-5.937768e-05,-0.0004437966,7,1
-4.657452e-05,-0.000546708,7,1
-3.312309e-05,-0.0006567503,7,1
-3.101625e-05,-0.0007701961,7,1
-4.074016e-05,-0.0008888278,7,1
-5.467778e-05,-0.001015887,7,1
-6.650855e-05,-0.001141488,7,1
-7.299116e-05,-0.001247154,7,1
-7.898758e-05,-0.001318139,7,1
-9.227693e-05,-0.001350714,7,1
-0.0001193418,-0.001349093,7,1
-0.000161965,-0.001326728,7,1
-0.0002169052,-0.001308253,7,1
-0.0002640662,-0.001313277,7,1
-0.000268604,-0.00134488,7,1
-0.0001981056,-0.001393823,7,1
-4.219875e-05,-0.001441957,7,1
0.0001658931,-0.001459784,7,1
0.0003556717,-0.001418944,7,1
0.000462959,-0.001301932,7,1
0.0004668485,-0.001099027,7,1
0.0003877606,-0.0008055263,7,1
0.0002726942,-0.0004209454,7,1
0.0001652449,5.293359e-05,7,1
9.037068e-05,0.0006212969,7,1
5.455425e-05,0.001298245,7,1
5.730935e-05,0.00208086,7,1
9.247754e-05,0.002907722,7,1
0.0001412592,0.003667976,7,1
0.0001822617,0.00421317,7,1
0.0002081922,0.004405706,7,1
0.0002363916,0.004185943,7,1
0.0002971661,0.003604284,7,1
0.0004029947,0.002814371,7,1
0.0005287575,0.002004527,7,1
0.0006258347,0.001324499,7,1
0.0006532237,0.00084203,7,1
0.0006005525,0.0005514466,7,1
0.0004835413,0.0004025085,7,1
0.0003331446,0.0003297412,7,1
0.0001796687,0.0002803113,7,1
4.693717e-05,0.0002292607,7,1
-5.208474e-05,0.000168,7,1
-0.0001136696,9.733949e-05,7,1
-0.0001455964,1.54965e-05,7,1
-0.0001642339,-7.898758e-05,7,1
-0.0001880575,-0.0001812508,7,1
-0.0002285739,-0.0002823795,7,1
-0.0002896725,-0.0003726499,7,1
-0.0003600088,-0.0004467137,7,1
-0.0004136524,-0.0005026262,7,1
-0.0004209454,-0.0005486528,7,1
-0.0003682741,-0.0005964621,7,1
-0.000266173,-0.0006544815,7,1
-0.0001454344,-0.0007214144,7,1
-4.544006e-05,-0.0007821888,7,1
1.22552e-05,-0.0008150881,7,1
2.538249e-05,-0.0008081193,7,1
4.151929e-06,-0.0007624169,7,1
-3.668853e-05,-0.0006904599,7,1
-8.547019e-05,-0.0006163961,7,1
-0.0001313347,-0.0005617801,7,1
-0.0001621271,-0.0005402254,7,1
-0.0001579134,-0.0005510838,7,1
-0.0001079973,-0.000573935,7,1
-1.967167e-05,-0.0005796073,7,1
7.886404e-05,-0.0005510838,7,1
0.0001485521,-0.0004924161,7,1
0.0001540623,-0.0004204592,7,1
9.16672e-05,-0.0003528779,7,1
-8.720959e-07,-0.0002997205,7,1
-7.444975e-05,-0.0002655248,7,1
-0.0001011905,-0.0002433218,7,1
-8.433573e-05,-0.0002237119,7,1
-5.013995e-05,-0.0002062088,7,1
-1.740276e-05,-0.0001927574,7,1
4.638125e-06,-0.000184168,7,1
1.808955e-05,-0.0001806025,7,1
2.441009e-05,-0.0001859507,7,1
2.732727e-05,-0.000196647,7,1
2.76514e-05,-0.0002118811,7,1
2.716521e-05,-0.0002298704,7,1
2.781346e-05,-0.000248832,7,1
3.55926e-05,-0.0002668213,7,1
5.066468e-05,-0.0002852967,7,1
6.768154e-05,-0.000300855,7,1
7.6271e-05,-0.0003057169,7,1
6.881599e-05,-0.0002938862,7,1
4.499239e-05,-0.000266011,7,1
1.12828e-05,-0.0002310048,7,1
-2.194059e-05,-0.0001976194,7,1
-5.305713e-05,-0.0001699062,7,1
-9.389759e-05,-0.0001496481,7,1
-0.0001543479,-0.0001407345,7,1
-0.0002250084,-0.0001464067,7,1
-0.0002733039,-0.000166827,7,1
-0.0002757348,-0.0002002124,7,1
-0.0002368392,-0.0002397564,7,1
-0.0001812508,-0.0002765452,7,1
-0.0001290658,-0.0003053928,7,1
-8.02841e-05,-0.0003199787,7,1
-2.372331e-05,-0.0003180339,7,1
4.369587e-05,-0.0003047445,7,1
0.0001166253,-0.0002857829,7,1
0.0001838824,-0.0002648765,7,1
0.0002310434,-0.0002418632,7,1
0.0002462775,-0.0002120432,7,1
0.0002290986,-0.0001728234,7,1
0.0001884202,-0.0001216107,7,1
0.0001398006,-6.0188e-05,7,1
9.766362e-05,7.879432e-06,7,1
7.562274e-05,7.805372e-05,7,1
8.664318e-05,0.0001440143,7,1
0.0001315353,0.0002060853,7,1
0.0002030061,0.0002686426,7,1
0.000284687,0.0003375204,7,1
0.000356644,0.0004162841,7,1
0.0004065602,0.0005039615,7,1
0.0004323286,0.0005956905,7,1
0.0004354078,0.0006870955,7,1
0.0004136911,0.0007686144,7,1
0.0003650715,0.0008290648,7,1
0.0002992729,0.0008580745,7,1
0.0002339606,0.0008488368,7,1
0.000175455,0.0008011895,7,1
0.0001128978,0.0007169155,7,1
3.397195e-05,0.0006012007,7,1
-6.148453e-05,0.0004642555,7,1
-0.0001665028,0.000324231,7,1
-0.0002703867,0.0001987924,7,1
-0.0003736223,9.863601e-05,7,1
-0.0004847991,2.522042e-05,7,1
-0.0006150996,-2.631635e-05,7,1
-0.0007731132,-6.326724e-05,7,1
-0.0009513851,-9.276313e-05,7,1
-0.001121878,-0.0001219349,7,1
-0.001249099,-0.0001548341,7,1
-0.001301284,-0.0001903264,7,1
-0.001253799,-0.0002229016,7,1
-0.001097892,-0.0002509389,7,1
-0.0008475012,-0.0002708729,7,1
-0.0005436288,-0.0002828657,7,1
-0.0002412149,-0.0002893484,7,1
4.151929e-06,-0.0002937241,7,1
0.0001576278,-0.0002990722,7,1
0.0002143507,-0.000305879,7,1
0.0001994406,-0.0003162512,7,1
0.0001602208,-0.0003311612,7,1
0.000153252,-0.000348016,7,1
0.0002146748,-0.000360333,7,1
0.0003328204,-0.0003585502,7,1
0.0004540453,-0.0003344025,7,1
0.0005219508,-0.0002877277,7,1
0.0005055821,-0.0002232257,7,1
0.0004162841,-0.000144624,7,1
0.0002973281,-5.030202e-05,7,1
0.0001916615,5.99024e-05,7,1
0.0001242423,0.0001744826,7,1
0.0001018773,0.000279663,7,1
0.0001198666,0.0003585888,7,1
0.0001667035,0.0004008879,7,1
0.0002265056,0.0004052637,7,1
0.0002838767,0.0003848434,7,1
0.0003263378,0.0003629646,7,1
0.0003474063,0.000356644,7,1
0.0003459477,0.0003692851,7,1
0.0003255275,0.0003900295,7,1
0.0002979764,0.0004078567,7,1
0.0002806354,0.0004211461,7,1
0.0002838767,0.0004394595,7,1
0.0003021901,0.0004749518,7,1
0.0003106175,0.0005315126,7,1
0.0002905214,0.0006029835,7,1
0.0002422259,0.0006716992,7,1
0.0001822617,0.0007172396,7,1
0.0001331559,0.000728098,7,1
0.0001067393,0.0007005468,7,1
0.0001081979,0.0006434998,7,1
0.0001427178,0.0005640878,7,1
0.0002093267,0.0004670106,7,1
0.0002906835,0.0003574544,7,1
0.0003559958,0.0002456293,7,1
0.0003715541,0.0001474177,7,1
0.000319207,7.513654e-05,7,1
0.0002086784,3.202716e-05,7,1
7.416415e-05,7.23117e-06,7,1
-4.511593e-05,-1.480971e-05,7,1
-0.0001230693,-4.187462e-05,7,1
-0.0001480274,-7.315322e-05,7,1
-0.0001302002,-0.0001057284,7,1
-9.260107e-05,-0.0001408965,7,1
-6.213279e-05,-0.0001771992,7,1
-6.472583e-05,-0.0002123673,7,1
-0.0001175591,-0.0002472114,7,1
-0.000213988,-0.0002809209,7,1
-0.0003313232,-0.0003076617,7,1
-0.0004402311,-0.0003220855,7,1
-0.0005215878,-0.0003211132,7,1
-0.0005656697,-0.0003053928,7,1
-0.0005728005,-0.0002815692,7,1
-0.0005510838,-0.000256287,7,1
-0.0005037607,-0.000231329,7,1
-0.0004256453,-0.000206695,7,1
-0.0003209511,-0.0001812508,7,1
-0.0002086398,-0.0001507825,7,1
-0.0001130213,-0.0001062146,7,1
-5.419158e-05,-4.47918e-05,7,1
-3.863332e-05,2.716521e-05,7,1
-4.754691e-05,9.588091e-05,7,1
-5.548811e-05,0.0001501728,7,1
-4.300908e-05,0.0001859892,7,1
-7.354709e-06,0.0002060853,7,1
4.077869e-05,0.0002156472,7,1
8.550872e-05,0.000222616,7,1
0.0001153287,0.0002312055,7,1
0.000123432,0.0002469258,7,1
0.000113546,0.0002670219,7,1
9.280167e-05,0.0002793389,7,1
6.557468e-05,0.0002691288,7,1
3.429608e-05,0.0002321778,7,1
-5.409925e-06,0.000175455,7,1
-5.208474e-05,0.0001080358,7,1
-0.0001010285,3.964424e-05,7,1
-0.0001485136,-2.388537e-05,7,1
-0.0001909747,-7.995997e-05,7,1
-0.000219012,-0.0001339277,7,1
-0.0002180396,-0.0001930815,7,1
-0.0001783336,-0.0002553146,7,1
-0.0001065387,-0.0003149546,7,1
-2.745081e-05,-0.0003666535,7,1
2.651694e-05,-0.0004039285,7,1
3.753739e-05,-0.0004238625,7,1
1.047248e-05,-0.0004262935,7,1
-3.182657e-05,-0.000417542,7,1
-7.104638e-05,-0.000410087,7,1
-9.260107e-05,-0.0004178661,7,1
-8.498399e-05,-0.0004465517,7,1
-4.041603e-05,-0.0004904714,7,1
3.413401e-05,-0.0005360117,7,1
0.0001182459,-0.000571504,7,1
0.0001833962,-0.0005911139,7,1
0.0002146748,-0.0005967862,7,1
0.0002271538,-0.0005911139,7,1
0.0002534084,-0.0005752315,7,1
0.0003096451,-0.000551732,7,1
0.0003884089,-0.0005264499,7,1
0.0004585832,-0.0005024642,7,1
0.0004955341,-0.0004762096,7,1
0.0004950479,-0.0004400691,7,1
0.0004624728,-0.0003891806,7,1
0.0004119083,-0.0003261372,7,1
0.0003608578,-0.0002548284,7,1
0.0003255275,-0.0001765509,7,1
0.0003200173,-0.0001018388,7,1
0.0003414099,-3.944364e-05,7,1
0.0003717161,5.448452e-06,7,1
0.0003892192,3.802358e-05,7,1
0.0003799815,7.027458e-05,7,1
0.0003409237,0.000106091,7,1
0.0002786906,0.0001449867,7,1
0.0002117576,0.0001835583,7,1
0.0001551968,0.0002117576,7,1
0.0001218114,0.0002164575,7,1
0.0001119254,0.0001880961,7,1
0.0001201907,0.0001242423,7,1
0.0001331559,2.829966e-05,7,1
0.000138342,-9.859748e-05,7,1
0.0001261871,-0.0002527216,7,1
8.388807e-05,-0.0004279142,7,1
3.503668e-06,-0.0006209339,7,1
-0.0001146419,-0.0008264327,7,1
-0.0002528836,-0.001037118,7,1
-0.0003783222,-0.001239861,7,1
-0.0004612996,-0.001418944,7,1
-0.0004825302,-0.001558968,7,1
-0.0004378002,-0.001644863,7,1
-0.0003402368,-0.001657342,7,1
-0.0002232257,-0.001577605,7,1
-0.0001219349,-0.001390096,7,1
-6.148453e-05,-0.001086385,7,1
-4.511593e-05,-0.0006640433,7,1
-5.581224e-05,-0.0001233935,7,1
-7.23429e-05,0.0005235714,7,1
-8.82253e-05,0.001260807,7,1
-0.0001138316,0.002088153,7,1
-0.0001629374,0.003003503,7,1
-0.0002335979,0.00396148,7,1
-0.0002998826,0.004851555,7,1
-0.0003269475,0.004959168,7,1
-0.0002997205,0.00495933,7,1
-0.0002381357,0.004959005,7,1
-0.0001749302,0.004959168,7,1
-0.0001339277,0.004336827,7,1
-0.00010978,0.003385332,7,1
-8.190475e-05,0.002448102,7,1
-3.668853e-05,0.0016321,7,1
2.01964e-05,0.0009951819,7,1
6.541262e-05,0.0005405883,7,1
7.497447e-05,0.000232502,7,1
4.320967e-05,1.711715e-05,7,1
-1.837515e-05,-0.0001564548,7,1
-9.065628e-05,-0.0003206269,7,1
-0.0001504584,-0.000484637,7,1
-0.00018433,-0.0006445955,7,1
-0.0001865989,-0.0007907783,7,1
-0.0001572651,-0.0009132997,7,1
-0.0001050801,-0.001006811,7,1
-5.111234e-05,-0.001079417,7,1
-9.785688e-06,-0.001143432,7,1
8.689758e-06,-0.001207772,7,1
4.47606e-06,-0.001273733,7,1
-1.367526e-05,-0.001334183,7,1
-3.344723e-05,-0.001381668,7,1
-4.47918e-05,-0.001412947,7,1
-4.592625e-05,-0.001422509,7,1
-3.620233e-05,-0.001405006,7,1
-1.950961e-05,-0.00135979,7,1
-3.465141e-06,-0.001290912,7,1
2.04508e-06,-0.001210689,7,1
-1.221667e-05,-0.001132898,7,1
-4.689865e-05,-0.001069693,7,1
-8.984595e-05,-0.001026259,7,1
-0.0001258245,-0.000995953,7,1
-0.0001477033,-0.0009656468,7,1
-0.0001524032,-0.0009235098,7,1
-0.0001423551,-0.0008679214,7,1
-0.0001212866,-0.0008090917,7,1
-9.211487e-05,-0.000762579,7,1
-5.030202e-05,-0.0007385933,7,1
1.744129e-05,-0.0007372968,7,1
0.0001150046,-0.0007489655,7,1
0.0002219677,-0.000762579,7,1
0.0002976523,-0.0007664686,7,1
0.000314345,-0.0007570688,7,1
0.0002809595,-0.0007385933,7,1
0.0002318537,-0.0007186593,7,1
0.0001960373,-0.0007011562,7,1
0.0001884202,-0.0006846256,7,1
0.0002114335,-0.0006685811,7,1
0.0002574601,-0.0006561021,7,1
0.0003099692,-0.0006582089,7,1
0.0003508097,-0.0006802498,7,1
0.0003608578,-0.0007116905,7,1
0.0003313618,-0.0007335693,7,1
0.0002692908,-0.0007319486,7,1
0.0001913374,-0.0007029389,7,1
0.0001130598,-0.0006515643,7,1
5.115087e-05,-0.0005818762,7,1
1.079661e-05,-0.0005000332,7,1
-7.840905e-06,-0.000410249,7,1
-8.651231e-06,-0.0003144685,7,1
-4.923729e-06,-0.0002102605,7,1
-1.497178e-05,-0.0001002181,7,1
-5.143648e-05,3.017472e-06,7,1
-0.0001104282,7.52986e-05,7,1
-0.0001739578,9.733949e-05,7,1
-0.0002206326,6.995045e-05,7,1
-0.0002410529,1.760335e-05,7,1
-0.0002350565,-2.550602e-05,7,1
-0.0002037779,-3.150244e-05,7,1
-0.0001527273,1.095867e-05,7,1
-9.162867e-05,9.377406e-05,7,1
-3.247483e-05,0.0001934442,7,1
1.257933e-05,0.0002863077,7,1
3.18651e-05,0.0003632887,7,1
2.01964e-05,0.0004216323,7,1
-1.67545e-05,0.0004608521,7,1
-6.504996e-05,0.0004786793,7,1
-0.000117235,0.0004773828,7,1
-0.0001828714,0.0004603659,7,1
-0.0002705488,0.0004287631,7,1
-0.0003682741,0.0003903536,7,1
-0.0004390967,0.0003598854,7,1
-0.000444769,0.0003572923,7,1
-0.0003775118,0.0003926226,7,1
-0.0002718453,0.0004657141,7,1
-0.000176875,0.0005673291,7,1
-0.0001216107,0.0006843403,7,1
-0.0001070249,0.0007987585,7,1
-0.0001201522,0.0008887049,7,1
-0.0001472171,0.0009404037,7,1
-0.0001818991,0.0009504518,7,1
-0.0002233878,0.0009191732,7,1
-0.0002697385,0.0008548332,7,1
-0.0003125237,0.0007725039,7,1
-0.0003321336,0.0006867713,7,1
-0.000313334,0.0006057385,7,1
-0.0002588801,0.0005354022,7,1
-0.0001830335,0.0004791655,7,1
-0.0001008664,0.0004349216,7,1
-2.46957e-05,0.0003999155,7,1
3.60788e-05,0.0003683128,7,1
7.659513e-05,0.0003388169,7,1
9.361199e-05,0.000307052,7,1
8.291568e-05,0.0002696149,7,1
4.72613e-05,0.000222616,7,1
1.031041e-05,0.0001652449,7,1
5.610517e-06,0.0001023635,7,1
5.828175e-05,4.077869e-05,7,1
0.0001678379,-1.108221e-05,7,1
0.0003072141,-5.240886e-05,7,1
0.0004404318,-8.303922e-05,7,1
0.0005352402,-0.0001036215,7,1
0.0005712186,-0.0001114006,7,1
0.0005520949,-0.000104756,7,1
0.0005013684,-8.952183e-05,7,1
0.0004491834,-7.250496e-05,7,1
0.0004192013,-5.613637e-05,7,1
0.0004182289,-4.106429e-05,7,1
0.0004418904,-2.826114e-05,7,1
0.0004892136,-1.67545e-05,7,1
0.000557281,-1.237873e-05,7,1
0.000621783,-2.080613e-05,7,1
0.0006504686,-4.446767e-05,7,1
0.0006281036,-7.218083e-05,7,1
0.000564574,-9.357346e-05,7,1
0.0004809482,-0.0001003802,7,1
0.0003947294,-9.454585e-05,7,1
0.0003221241,-8.109443e-05,7,1
0.0002728562,-6.537409e-05,7,1
0.0002457913,-5.127441e-05,7,1
0.0002281262,-4.025397e-05,7,1
0.0002041406,-3.182657e-05,7,1
0.0001568175,-2.323711e-05,7,1
7.400208e-05,-1.092015e-05,7,1
-4.527799e-05,5.286387e-06,7,1
-0.000181737,1.825161e-05,7,1
-0.0003015032,2.457216e-05,7,1
-0.0003731361,2.214118e-05,7,1
-0.0003804291,1.64689e-05,7,1
-0.0003243544,1.501031e-05,7,1
-0.000226467,2.295151e-05,7,1
-0.000117235,3.737532e-05,7,1
-2.696461e-05,4.953022e-05,7,1
2.554455e-05,5.552663e-05,7,1
4.158902e-05,5.390598e-05,7,1
3.55926e-05,4.35338e-05,7,1
2.81376e-05,2.684107e-05,7,1
3.105477e-05,8.689758e-06,7,1
3.688912e-05,-1.844488e-06,7,1
2.797553e-05,4.244267e-07,7,1
-5.409925e-06,1.144487e-05,7,1
-5.662256e-05,2.878586e-05,7,1
-0.0001078352,4.871989e-05,7,1
-0.0001477033,6.800567e-05,7,1
-0.000174444,8.080883e-05,7,1
-0.0001930815,8.486046e-05,7,1
-0.0002107467,8.437427e-05,7,1
-0.0002300324,8.42122e-05,7,1
-0.0002472114,9.182927e-05,7,1
-0.000253694,0.0001044704,7,1
-0.0002420253,0.0001219734,7,1
-0.0002042641,0.0001459591,7,1
-0.0001502963,0.0001775618,7,1
-0.0001062146,0.0002080301,7,1
-9.438378e-05,0.0002245608,7,1
-0.0001204763,0.0002153231,7,1
-0.0001715269,0.0001769136,7,1
-0.0002329496,0.0001150046,7,1
-0.0002937241,4.077869e-05,7,1
-0.0003493125,-2.566809e-05,7,1
-0.0003959873,-7.169464e-05,7,1
-0.0004280762,-9.470791e-05,7,1
-0.0004463896,-0.0001016767,7,1
-0.000454817,-0.000102325,7,1
-0.0004509274,-0.000107349,7,1
-0.0004243487,-0.0001199901,7,1
-0.0003713534,-0.0001373311,7,1
-0.0002997205,-0.000159534,7,1
-0.0002303566,-0.0001874093,7,1
-0.000186761,-0.0002185258,7,1
-0.0001840059,-0.0002514251,7,1
-0.0002167431,-0.0002791382,7,1
-0.0002632558,-0.0002943724,7,1
-0.0002956689,-0.0002968033,7,1
-0.0002930758,-0.0002895104,7,1
-0.0002502906,-0.0002770314,7,1
-0.000174282,-0.0002655248,7,1
-7.833932e-05,-0.0002574215,7,1
1.760335e-05,-0.0002494803,7,1
9.377406e-05,-0.0002404046,7,1
0.0001409351,-0.0002316531,7,1
0.0001545486,-0.0002209568,7,1
0.000138342,-0.0002073433,7,1
9.63671e-05,-0.0001906506,7,1
3.656499e-05,-0.0001724993,7,1
-2.242678e-05,-0.0001562927,7,1
-5.111234e-05,-0.0001451102,7,1
-2.177852e-05,-0.0001361966,7,1
6.735741e-05,-0.00012469,7,1
0.0001835583,-0.0001094559,7,1
0.0002858215,-8.984595e-05,7,1
0.0003394651,-7.023606e-05,7,1
0.0003342791,-5.257093e-05,7,1
0.0002807975,-3.522994e-05,7,1
0.0002046267,-1.578211e-05,7,1
0.0001391524,6.90704e-06,7,1
0.0001067393,3.397195e-05,7,1
0.0001091703,6.606088e-05,7,1
0.0001338042,0.0001041462,7,1
0.0001634622,0.0001448246,7,1
0.0001838824,0.0001884202,7,1
0.0001889064,0.0002355812,7,1
0.0001756171,0.0002861456,7,1
0.0001467694,0.0003414099,7,1
0.0001163011,0.0004008879,7,1
0.000103498,0.000458259,7,1
0.0001182459,0.0005037994,7,1
0.0001571416,0.0005289196,7,1
0.0002000889,0.0005276231,7,1
0.0002221298,0.0005026649,7,1
0.0002073819,0.0004577728,7,1
0.0001611932,0.0004018603,7,1
0.0001043083,0.0003474063,7,1
6.46023e-05,0.0003031625,7,1
5.99024e-05,0.0002665357,7,1
8.032264e-05,0.0002320158,7,1
9.328786e-05,0.0001970097,7,1
6.849186e-05,0.000162976,7,1
1.241726e-05,0.0001323456,7,1
-4.576419e-05,0.0001049566,7,1
-7.056019e-05,7.918817e-05,7,1
-5.289507e-05,5.406805e-05,7,1
-1.416145e-05,3.056858e-05,7,1
1.744129e-05,1.112074e-05,7,1
2.651694e-05,-2.81688e-06,7,1
8.527692e-06,-1.902341e-05,7,1
-2.939559e-05,-4.868137e-05,7,1
-7.428769e-05,-9.973194e-05,7,1
-0.0001229073,-0.0001739578,7,1
-0.0001750923,-0.0002655248,7,1
-0.0002182017,-0.0003697327,7,1
-0.000238946,-0.0004768579,7,1
-0.0002348944,-0.0005820383,7,1
-0.0002128535,-0.0006813843,7,1
-0.0001864369,-0.0007688995,7,1
-0.0001642339,-0.0008381014,7,1
-0.0001428413,-0.000889314,7,1
-0.0001086455,-0.0009230236,7,1
-4.462973e-05,-0.0009376095,7,1
5.19612e-05,-0.0009325854,7,1
0.0001654069,-0.0009098963,7,1
0.000264753,-0.0008672731,7,1
0.0003266619,-0.0007995299,7,1
0.0003487029,-0.0006985632,7,1
0.0003386548,-0.0005674524,7,1
0.0003130485,-0.0004193247,7,1
0.0002872801,-0.0002689281,7,1
0.0002639427,-0.0001243659,7,1
0.0002420638,1.484824e-05,7,1
0.0002094887,0.0001590864,7,1
0.0001490383,0.0003145071,7,1
4.337174e-05,0.0004691174,7,1
-9.924574e-05,0.0006041179,7,1
-0.0002332737,0.0007037881,7,1
-0.0003053928,0.0007551629,7,1
-0.0002864312,0.0007562974,7,1
-0.0001862748,0.0007188602,7,1
-4.138842e-05,0.0006668373,7,1
0.00010366,0.0006297242,7,1
0.0002187264,0.0006287518,7,1
0.0002913317,0.0006657028,7,1
0.0003227724,0.0007193465,7,1
0.0003198552,0.0007551629,7,1
0.0002879283,0.0007468975,7,1
0.0002337985,0.0006939021,7,1
0.0001637863,0.0006203245,7,1
8.599492e-05,0.000559712,7,1
9.175954e-06,0.0005345919,7,1
-5.240886e-05,0.0005452881,7,1
-8.935975e-05,0.0005742979,7,1
-9.438378e-05,0.0005965008,7,1
-6.602235e-05,0.0005903424,7,1
-6.058186e-06,0.0005323229,7,1
7.708133e-05,0.0004026706,7,1
0.0001620036,0.0002007372,7,1
0.0002312055,-5.159854e-05,7,1
0.0002816078,-0.0003151167,7,1
0.0003164518,-0.0005536768,7,1
0.0003289309,-0.000745238,7,1
0.0003046211,-0.0008860728,7,1
0.0002355812,-0.000988498,7,1
0.0001347766,-0.001068882,7,1
3.251336e-05,-0.001138246,7,1
-4.43056e-05,-0.001195617,7,1
-8.125649e-05,-0.001231272,7,1
-7.769106e-05,-0.001230462,7,1
-4.333321e-05,-0.001176818,7,1
4.638125e-06,-0.001059645,7,1
4.82337e-05,-0.0008786177,7,1
7.57848e-05,-0.0006356818,7,1
7.756752e-05,-0.0003335922,7,1
6.055066e-05,2.894792e-05,7,1
3.721326e-05,0.0004436732,7,1
1.825161e-05,0.0008746051,7,1
3.341602e-06,0.001262104,7,1
-1.351319e-05,0.001556091,7,1
-3.717473e-05,0.001740522,7,1
-6.91016e-05,0.001835492,7,1
-0.0001135075,0.001864988,7,1
-0.0001716889,0.001832575,7,1
-0.0002370013,0.001719939,7,1
-0.0003023136,0.001508444,7,1
-0.0003570916,0.001202302,7,1
-0.0003940425,0.0008386266,7,1
-0.0004139766,0.0004692795,7,1
-0.0004241867,0.0001475797,7,1
-0.000432452,-9.438378e-05,7,1
-0.000447362,-0.0002498044,7,1
-0.0004692408,-0.000335699,7,1
-0.0004904714,-0.0003836704,7,1
-0.0005023021,-0.0004185144,7,1
-0.0005011677,-0.0004460655,7,1
-0.0004899852,-0.0004608134,7,1
-0.0004653512,-0.0004553032,7,1
-0.0004139766,-0.0004224039,7,1
-0.000318196,-0.0003647087,7,1
-0.0001799543,-0.0002912931,7,1
-3.198864e-05,-0.0002188499,7,1
7.610894e-05,-0.0001660166,7,1
0.0001044704,-0.0001457585,7,1
5.536457e-05,-0.0001621271,7,1
-2.46957e-05,-0.0002063709,7,1
-7.363943e-05,-0.0002548284,7,1
-5.208474e-05,-0.0002780038,7,1
4.288554e-05,-0.0002519113,7,1
0.0001814514,-0.0001723372,7,1
0.000316776,-5.872941e-05,7,1
0.0004093153,5.730935e-05,7,1
0.0004360561,0.0001453108,7,1
0.000396188,0.0001880961,7,1
0.0003099692,0.0001785342,7,1
0.0002057612,0.0001218114,7,1
0.0001046324,3.413401e-05,7,1
1.630683e-05,-6.48879e-05,7,1
-6.099833e-05,-0.0001671511,7,1
-0.0001253383,-0.0002690902,7,1
-0.0001715269,-0.0003689224,7,1
-0.0001937298,-0.000459679,7,1
-0.0001901644,-0.0005360117,7,1
-0.0001627754,-0.0005950035,7,1
-0.0001175591,-0.0006358439,7,1
-6.699475e-05,-0.0006612882,7,1
-1.529591e-05,-0.0006742534,7,1
4.256141e-05,-0.0006784671,7,1
0.000111115,-0.0006747396,7,1
0.0001850168,-0.0006635571,7,1
0.0002542187,-0.0006470265,7,1
0.0003060797,-0.0006270924,7,1
0.0003277964,-0.0006071584,7,1
0.0003124002,-0.0005886829,7,1
0.000267346,-0.0005666421,7,1
0.0002114335,-0.0005379565,7,1
0.0001592484,-0.0005001953,7,1
0.000125863,-0.0004612996,7,1
0.0001218114,-0.0004288866,7,1
0.0001498487,-0.000407656,7,1
0.0001963614,-0.0003942046,7,1
0.0002420638,-0.0003788084,7,1
0.0002752873,-0.0003536883,7,1
0.0002947351,-0.0003194925,7,1
0.0003015418,-0.0002807589,7,1
0.0002966799,-0.0002417012,7,1
0.0002832284,-0.0002032917,7,1
0.0002624841,-0.0001653684,7,1
0.0002381743,-0.000127121,7,1
0.0002012234,-8.968389e-05,7,1
0.0001376938,-5.127441e-05,7,1
3.834771e-05,-1.059602e-05,7,1
-7.785312e-05,3.18651e-05,7,1
-0.0001786577,7.30297e-05,7,1
-0.0002358668,0.0001182459,7,1
-0.0002394322,0.0001684862,7,1
-0.0002045882,0.0002190506,7,1
-0.0001606685,0.0002560015,7,1
-0.0001374932,0.0002765838,7,1
-0.0001496481,0.0002869559,7,1
-0.0001998883,0.0002979764,7,1
-0.0002755728,0.0003161277,7,1
-0.0003494746,0.0003443271,7,1
-0.0003883702,0.000381278,7,1
-0.0003690845,0.0004206599,7,1
-0.0002943724,0.0004558281,7,1
-0.000186761,0.0004793275,7,1
-7.947377e-05,0.0004875929,7,1
5.448452e-06,0.000477869,7,1
6.233338e-05,0.0004545315,7,1
9.31258e-05,0.0004261701,7,1
0.0001080358,0.0003999155,7,1
0.0001177597,0.0003717161,7,1
0.0001175977,0.0003370341,7,1
9.912221e-05,0.0002927903,7,1
5.52025e-05,0.000235095,7,1
-1.659243e-05,0.0001686482,7,1
-0.0001086455,0.0001054428,7,1
-0.0002037779,5.390598e-05,7,1
-0.0002797865,2.165498e-05,7,1
-0.0003266234,6.744974e-06,7,1
-0.0003510952,-1.844488e-06,7,1
-0.0003643846,-1.707863e-05,7,1
-0.0003700569,-5.046408e-05,7,1
-0.0003608192,-0.0001131834,7,1
-0.0003322956,-0.0002125294,7,1
-0.0002827037,-0.0003421817,7,1
-0.0002186879,-0.0004838267,7,1
-0.0001567789,-0.0006197995,7,1
-0.0001175591,-0.0007398899,7,1
-0.0001143178,-0.0008372911,7,1
-0.0001430034,-0.0009154066,7,1
-0.0001818991,-0.0009769914,7,1
-0.0002078295,-0.00102399,7,1
-0.0002011848,-0.001057376,7,1
-0.0001549962,-0.001074717,7,1
-7.995997e-05,-0.001071313,7,1
9.338019e-06,-0.001047976,7,1
0.0001002567,-0.001000005,7,1
0.0001710792,-0.0009186479,7,1
0.0002017096,-0.0007864026,7,1
0.0001911753,-0.0005826865,7,1
0.0001534141,-0.000301017,7,1
0.0001069013,4.126489e-05,7,1
6.800567e-05,0.0004154738,7,1
4.661304e-05,0.0007992447,7,1
4.175109e-05,0.001192091,7,1
4.72613e-05,0.001623186,7,1
6.314371e-05,0.002120566,7,1
9.199134e-05,0.002677425,7,1
0.0001363972,0.003234285,7,1
0.0001991165,0.00369261,7,1
0.0002806354,0.003951594,7,1
0.0003731747,0.003945759,7,1
0.0004574487,0.003675107,7,1
0.0005089855,0.003204465,7,1
0.0005140096,0.002643716,7,1
0.0004757621,0.002097877,7,1
0.0004119083,0.001635341,7,1
0.0003477304,0.001273124,7,1
0.00030689,0.000992913,7,1
0.0003007315,0.0007655351,7,1
0.000321638,0.0005702463,7,1
0.0003482167,0.0003969983,7,1
0.0003613439,0.0002457913,7,1
0.0003535648,0.0001140322,7,1
0.0003274723,2.04508e-06,7,1
0.0002916559,-8.968389e-05,7,1
0.0002551911,-0.0001605064,7,1
0.0002268297,-0.0002159328,7,1
0.0002112714,-0.0002627696,7,1
0.0002025199,-0.0003071755,7,1
0.0001848548,-0.0003549848,7,1
0.0001451488,-0.0004113835,7,1
8.696731e-05,-0.0004760476,7,1
2.586868e-05,-0.0005475183,7,1
-1.869928e-05,-0.0006214201,7,1
-3.458168e-05,-0.000695646,7,1
-2.955766e-05,-0.00076501,7,1
-2.291298e-05,-0.0008204363,7,1
-2.826114e-05,-0.0008525252,7,1
-4.916756e-05,-0.0008635456,7,1
-8.725291e-05,-0.0008641939,7,1
-0.0001439758,-0.0008659766,7,1
-0.000208964,-0.0008758627,7,1
-0.0002566112,-0.0008974173,7,1
-0.0002614731,-0.0009257787,7,1
-0.000219012,-0.0009546264,7,1
-0.0001511067,-0.0009755327,7,1
-9.924574e-05,-0.0009859049,7,1
-9.098041e-05,-0.0009883359,7,1
-0.0001285796,-0.0009870394,7,1
-0.0001951884,-0.0009828256,7,1
-0.000266173,-0.0009752086,7,1
-0.0003120375,-0.0009627296,7,1
-0.000300855,-0.0009458748,7,1
-0.0002241981,-0.0009249684,7,1
-0.0001057284,-0.0009035757,7,1
9.66215e-06,-0.0008829935,7,1
8.129502e-05,-0.0008640318,7,1
9.53947e-05,-0.0008481495,7,1
6.427817e-05,-0.0008364808,7,1
1.403791e-05,-0.0008259465,7,1
-2.874733e-05,-0.0008107124,7,1
-4.90055e-05,-0.0007864026,7,1
-4.754691e-05,-0.0007547998,7,1
-3.21507e-05,-0.0007197938,7,1
-7.840905e-06,-0.000685436,7,1
2.116879e-05,-0.0006551297,7,1
5.341979e-05,-0.0006300096,7,1
8.534666e-05,-0.0006065101,7,1
0.0001070634,-0.000578959,7,1
0.0001143563,-0.0005452494,7,1
0.0001073875,-0.0005079744,7,1
9.150514e-05,-0.0004724821,7,1
7.076078e-05,-0.0004392588,7,1
5.390598e-05,-0.0004060354,7,1
4.434413e-05,-0.0003721637,7,1
3.996837e-05,-0.000333268,7,1
3.267542e-05,-0.0002888622,7,1
1.22552e-05,-0.0002449425,7,1
-2.323711e-05,-0.000206695,7,1
-6.456377e-05,-0.0001729855,7,1
-9.649064e-05,-0.0001392759,7,1
-0.0001078352,-0.0001058904,7,1
-9.940781e-05,-7.444975e-05,7,1
-8.563225e-05,-4.706071e-05,7,1
-8.433573e-05,-2.372331e-05,7,1
-0.0001104282,-3.789272e-06,7,1
-0.0001689338,1.64689e-05,7,1
-0.0002588801,4.304761e-05,7,1
-0.0003770257,7.756752e-05,7,1
-0.0005117019,0.0001169494,7,1
-0.0006395715,0.0001551968,7,1
-0.0007325969,0.0001906891,7,1
-0.0007604721,0.0002218057,7,1
-0.0007125008,0.000244981,7,1
-0.0006024585,0.0002641047,7,1
-0.000464703,0.0002830664,7,1
-0.0003527159,0.0003052694,7,1
-0.0003100927,0.0003313618,7,1
-0.0003416954,0.0003598854,7,1
-0.0004117076,0.0003895433,7,1
-0.0004724821,0.0004174185,7,1
-0.0004831784,0.0004392974,7,1
-0.0004241867,0.0004551798,7,1
-0.0003047445,0.0004702519,7,1
-0.0001514308,0.0004900239,7,1
3.179537e-06,0.0005130371,7,1
0.0001313732,0.000534754,7,1
0.000217592,0.0005507984,7,1
0.0002607014,0.0005540397,7,1
0.0002668598,0.0005410745,7,1
0.0002396328,0.0005182233,7,1
0.0001945787,0.0004971547,7,1
0.0001537382,0.0004874308,7,1
0.000135911,0.0004914824,7,1
0.000153252,0.0005029891,7,1
0.0002017096,0.0005115786,7,1
0.0002658874,0.0005106062,7,1
0.0003263378,0.0004999099,7,1
0.0003726885,0.0004837033,7,1
0.0004093153,0.000465552,7,1
0.0004511282,0.0004483731,7,1
0.0004995857,0.0004297355,7,1
0.0005396159,0.0004070464,7,1
0.0005470709,0.0003762539,7,1
0.0005106062,0.0003378445,7,1
0.0004337872,0.0002965178,7,1
0.0003326584,0.0002540567,7,1
0.0002334744,0.00021273,7,1
0.0001573037,0.0001764274,7,1
0.0001112771,0.0001454729,7,1
8.907416e-05,0.0001175977,7,1
7.772959e-05,9.037068e-05,7,1
6.233338e-05,6.687121e-05,7,1
3.753739e-05,4.661304e-05,7,1
4.151929e-06,2.781346e-05,7,1
-3.21507e-05,6.90704e-06,7,1
-6.423963e-05,-1.578211e-05,7,1
-8.919769e-05,-4.074016e-05,7,1
-0.000104918,-6.81292e-05,7,1
-0.0001125351,-9.616651e-05,7,1
-0.000122259,-0.0001212866,7,1
-0.0001436516,-0.0001387897,7,1
-0.000169258,-0.0001496481,7,1
-0.0001710407,-0.0001564548,7,1
-0.0001229073,-0.0001603444,7,1
-1.270286e-05,-0.0001663408,7,1
0.0001496866,-0.0001754164,7,1
0.0003263378,-0.0001861127,7,1
0.0004639314,-0.0001890299,7,1
0.0005161164,-0.0001760647,7,1
0.000465552,-0.0001426792,7,1
0.0003307136,-9.341139e-05,7,1
0.0001574657,-3.749886e-05,7,1
6.90704e-06,1.679302e-05,7,1
-7.072225e-05,6.330578e-05,7,1
-5.775702e-05,0.0001069013,7,1
2.149292e-05,0.0001534141,7,1
0.0001232699,0.0002033302,7,1
0.0002090025,0.0002543808,7,1
0.0002587566,0.0002965178,7,1
0.0002691288,0.0003091589,7,1
0.0002490327,0.0002775562,7,1
0.0002104611,0.0001987924,7,1
0.0001603829,8.340187e-05,7,1
0.0001039842,-4.38194e-05,7,1
4.920609e-05,-0.0001553203,7,1
3.989864e-06,-0.0002316531,7,1
-2.550602e-05,-0.000268604,7,1
-3.522994e-05,-0.0002699005,7,1
-2.437157e-05,-0.0002441321,7,1
-3.627206e-06,-0.0001981056,7,1
1.792748e-05,-0.0001368449,7,1
4.547859e-05,-6.586029e-05,7,1
9.620504e-05,7.393236e-06,7,1
0.0001803169,7.870197e-05,7,1
0.0002927903,0.0001479039,7,1
0.0004049396,0.0002190506,7,1
0.0004731691,0.0002965178,7,1
0.0004662003,0.0003765781,7,1
0.0003851676,0.0004512903,7,1
0.0002560015,0.0005102821,7,1
0.0001232699,0.0005483674,7,1
2.181705e-05,0.0005674912,7,1
-3.425755e-05,0.0005723531,7,1
-5.402952e-05,0.0005678153,7,1
-5.354332e-05,0.0005545259,7,1
-4.544006e-05,0.0005285954,7,1
-4.300908e-05,0.0004890515,7,1
-5.32192e-05,0.000435732,7,1
-7.55842e-05,0.0003705817,7,1
-0.0001070249,0.0002979764,7,1
-0.000144462,0.000225047,7,1
-0.0001794681,0.0001600588,7,1
-0.0001971332,0.0001065772,7,1
-0.0001846542,6.379197e-05,7,1
-0.0001431655,3.218923e-05,7,1
-9.049421e-05,1.436204e-05,7,1
-4.932962e-05,8.203562e-06,7,1
-3.814712e-05,1.565857e-05,7,1
-5.824322e-05,3.283749e-05,7,1
-0.0001002181,4.920609e-05,7,1
-0.0001506204,5.228533e-05,7,1
-0.0001948643,4.272347e-05,7,1
-0.0002230636,2.81376e-05,7,1
-0.0002327876,2.619281e-05,7,1
-0.0002230636,5.504044e-05,7,1
-0.0002003745,0.0001167873,7,1
-0.0001836818,0.0001864754,7,1
-0.0001812508,0.0002290986,7,1
-0.0001947022,0.000222616,7,1
-0.000221443,0.0001667035,7,1
-0.000256287,7.610894e-05,7,1
-0.0002893484,-3.555408e-05,7,1
-0.0003100927,-0.0001546721,7,1
-0.0003144685,-0.0002663351,7,1
-0.0003089583,-0.0003566054,7,1
-0.0003000446,-0.0004185144,7,1
-0.000298424,-0.0004590307,7,1
-0.0003105789,-0.0004982505,7,1
-0.0003358611,-0.000551732,7,1
-0.0003638984,-0.0006249856,7,1
-0.0003823738,-0.0007118525,7,1
-0.0003844807,-0.0008001782,7,1
-0.0003744326,-0.0008849383,7,1
-0.0003590364,-0.0009706708,7,1
-0.0003463953,-0.001067424,7,1
-0.0003395886,-0.001189621,7,1
-0.0003326198,-0.001340018,7,1
-0.0003113892,-0.001509214,7,1
-0.000263742,-0.001678248,7,1
-0.0001861127,-0.00182589,7,1
-8.303922e-05,-0.001939822,7,1
3.283749e-05,-0.002015506,7,1
0.0001488763,-0.002051161,7,1
0.0002561635,-0.002043543,7,1
0.000341734,-0.001985686,7,1
0.0003880847,-0.001873375,7,1
0.00038614,-0.001704827,7,1
0.0003399513,-0.001482311,7,1
0.0002655633,-0.001213283,7,1
0.0001773998,-0.0009045482,7,1
9.118101e-05,-0.0005663179,7,1
2.408596e-05,-0.0002326255,7,1
-8.975362e-06,4.45062e-05,7,1
2.623614e-07,0.0002209954,7,1
4.531652e-05,0.0002806354,7,1
0.0001057669,0.0002547049,7,1
0.0001514693,0.0002137024,7,1
0.0001548727,0.0002373639,7,1
0.0001065772,0.0003905157,7,1
1.841368e-05,0.0006995744,7,1
-8.109443e-05,0.001130507,7,1
-0.0001572651,0.001592232,7,1
-0.0001877334,0.001963524,7,1
-0.0001687718,0.002142283,7,1
-0.0001133454,0.002086856,7,1
-4.43056e-05,0.001842623,7,1
1.241726e-05,0.001512657,7,1
3.964424e-05,0.001208298,7,1
3.348575e-05,0.00100993,7,1
4.80019e-06,0.0009601758,7,1
-2.647842e-05,0.001070218,7,1
-4.673658e-05,0.00133082,7,1
-4.835724e-05,0.001724801,7,1
-2.696461e-05,0.002228016,7,1
1.727922e-05,0.002783741,7,1
6.703327e-05,0.003299112,7,1
0.0001018773,0.003652742,7,1
0.0001106288,0.003739448,7,1
8.956036e-05,0.003521468,7,1
4.094075e-05,0.003041913,7,1
-2.858527e-05,0.00240402,7,1
-0.0001054042,0.001730312,7,1
-0.0001677994,0.001124672,7,1
-0.0001814128,0.0006459308,7,1
-0.0001316588,0.0003089969,7,1
-2.874733e-05,9.118101e-05,7,1
9.571884e-05,-5.32192e-05,7,1
0.0002146748,-0.0001720131,7,1
0.0003166139,-0.0002946965,7,1
0.0003895433,-0.0004280762,7,1
0.0004243874,-0.0005645352,7,1
0.0004229288,-0.0006893255,7,1
0.0004015361,-0.0007901301,7,1
0.0003720403,-0.0008646801,7,1
0.0003418961,-0.0009217271,7,1
0.0003205035,-0.0009703467,7,1
0.0003091589,-0.001018966,7,1
0.0002940868,-0.001069855,7,1
0.0002649151,-0.00111734,7,1
0.0002205092,-0.001153967,7,1
0.0001707551,-0.001176818,7,1
0.0001260251,-0.001184111,7,1
9.053275e-05,-0.001179411,7,1
6.217132e-05,-0.00116758,7,1
3.964424e-05,-0.001153318,7,1
2.084466e-05,-0.001139219,7,1
1.396819e-06,-0.00112366,7,1
-2.356124e-05,-0.001107292,7,1
-5.662256e-05,-0.001091734,7,1
-9.843541e-05,-0.001077472,7,1
-0.0001455964,-0.001062562,7,1
-0.0001835197,-0.001042304,7,1
-0.0002003745,-0.001016049,7,1
-0.0001937298,-0.0009854188,7,1
-0.0001715269,-0.0009526816,7,1
-0.0001402483,-0.0009197823,7,1
-0.0001011905,-0.0008872072,7,1
-4.398147e-05,-0.0008560906,7,1
4.094075e-05,-0.0008244879,7,1
0.0001543865,-0.0007904542,7,1
0.0002786906,-0.0007512344,7,1
0.0003781987,-0.0007090974,7,1
0.0004157979,-0.0006659881,7,1
0.0003783608,-0.0006279027,7,1
0.0002854973,-0.0005995413,7,1
0.0001811273,-0.0005799314,7,1
0.0001054428,-0.0005635628,7,1
7.594687e-05,-0.0005494631,7,1
8.323981e-05,-0.0005389289,7,1
0.0001081979,-0.0005326084,7,1
0.0001328318,-0.0005248293,7,1
0.0001467694,-0.0005074882,7,1
0.0001466074,-0.0004715097,7,1
0.0001355869,-0.0004167317,7,1
0.0001231079,-0.0003519055,7,1
0.0001198666,-0.0002896725,7,1
0.0001266733,-0.0002381357,7,1
0.0001396385,-0.0001935677,7,1
0.0001472556,-0.0001506204,7,1
0.0001396385,-0.0001024871,7,1
0.0001130598,-5.078821e-05,7,1
6.995045e-05,2.693341e-06,7,1
1.533444e-05,5.536457e-05,7,1
-4.722278e-05,0.0001025256,7,1
-0.0001112386,0.0001443384,7,1
-0.0001671511,0.0001783722,7,1
-0.0002122053,0.0002068957,7,1
-0.0002548284,0.0002342847,7,1
-0.0003027998,0.0002637806,7,1
-0.0003494746,0.0002991108,7,1
-0.0003737844,0.000339141,7,1
-0.0003557951,0.0003760919,7,1
-0.0002883759,0.0004021844,7,1
-0.0001865989,0.0004174185,7,1
-8.320128e-05,0.0004294114,7,1
-4.113403e-06,0.0004422146,7,1
3.964424e-05,0.0004576108,7,1
4.385793e-05,0.0004773828,7,1
1.1769e-05,0.000500234,7,1
-5.338126e-05,0.0005234093,7,1
-0.0001384655,0.0005439916,7,1
-0.0002230636,0.000562305,7,1
-0.0002865932,0.0005755944,7,1
-0.0003136581,0.0005806184,7,1
-0.0002985861,0.0005741358,7,1
-0.0002507768,0.0005580913,7,1
-0.0001895161,0.0005357263,7,1
-0.0001342519,0.0005102821,7,1
-9.568031e-05,0.0004833792,7,1
-7.299116e-05,0.0004574487,7,1
-6.261898e-05,0.0004331389,7,1
-6.893953e-05,0.0004145014,7,1
-0.0001120489,0.0004070464,7,1
-0.0002078295,0.0004070464,7,1
-0.0003606571,0.0004099636,7,1
-0.00055157,0.0004083429,7,1
-0.0007351899,0.0003963501,7,1
-0.0008593319,0.0003743092,7,1
-0.000889152,0.0003451374,7,1
-0.0008233535,0.0003141829,7,1
-0.0006838153,0.0002866318,7,1
-0.0005110537,0.0002676702,7,1
-0.000342992,0.0002561635,7,1
-0.0002094502,0.0002517878,7,1
-0.0001211246,0.0002464396,7,1
-7.169464e-05,0.0002360674,7,1
-3.863332e-05,0.000220185,7,1
-3.627206e-06,0.000200413,7,1
4.515445e-05,0.0001717275,7,1
0.0001028497,0.0001346145,7,1
0.0001571416,9.020862e-05,7,1
0.0001960373,4.288554e-05,7,1
0.000215161,-3.303076e-06,7,1
0.0002216436,-4.203669e-05,7,1
0.0002256952,-7.104638e-05,7,1
0.0002344468,-8.968389e-05,7,1
0.0002532463,-0.0001011905,7,1
0.0002798251,-0.0001102662,7,1
0.0003060797,-0.0001237176,7,1
0.0003188828,-0.0001452723,7,1
0.0003083486,-0.0001763888,7,1
0.0002728562,-0.0002100984,7,1
0.0002132162,-0.0002324634,7,1
0.0001417454,-0.0002326255,7,1
8.259155e-05,-0.0002068571,7,1
5.244739e-05,-0.0001616409,7,1
5.649903e-05,-0.0001032974,7,1
8.46984e-05,-3.668853e-05,7,1
0.0001153287,3.786152e-05,7,1
0.0001273216,0.0001221355,7,1
0.000113546,0.0002192126,7,1
8.275361e-05,0.0003276344,7,1
5.325772e-05,0.0004360561,7,1
4.045456e-05,0.000532647,7,1
4.953022e-05,0.0006118971,7,1
7.708133e-05,0.0006742922,7,1
0.0001138702,0.0007222636,7,1
0.0001540623,0.0007520836,7,1
0.0001900409,0.0007605111,7,1
0.0002135403,0.0007490044,7,1
0.0002185644,0.0007238843,7,1
0.0002051129,0.0006976296,7,1
0.0001775618,0.0006772094,7,1
0.0001454729,0.0006639201,7,1
0.0001171115,0.0006477135,7,1
0.0001077117,0.0006125454,7,1
0.0001338042,0.000547395,7,1
0.0001976579,0.0004533971,7,1
0.0002913317,0.0003414099,7,1
0.0003879227,0.0002261814,7,1
0.0004593935,0.0001221355,7,1
0.0004931031,4.094075e-05,7,1
0.0004884033,-1.62683e-05,7,1
0.0004597176,-5.581224e-05,7,1
0.0004266563,-8.465986e-05,7,1
0.0004025085,-0.0001128592,7,1
0.0003850055,-0.0001473791,7,1
0.000368961,-0.0001903264,7,1
0.0003446512,-0.0002405667,7,1
0.0003034866,-0.0002976137,7,1
0.0002443328,-0.0003585502,7,1
0.000175455,-0.0004159214,7,1
0.0001116012,-0.0004634065,7,1
6.525056e-05,-0.0004916058,7,1
4.223728e-05,-0.0004985746,7,1
3.850978e-05,-0.0004907955,7,1
4.223728e-05,-0.00047702,7,1
4.499239e-05,-0.0004632444,7,1
4.515445e-05,-0.0004530343,7,1
4.239934e-05,-0.0004475241,7,1
2.975825e-05,-0.0004446069,7,1
-1.358292e-06,-0.0004463896,7,1
-4.85193e-05,-0.0004557894,7,1
-9.794922e-05,-0.0004710235,7,1
-0.0001243659,-0.0004885266,7,1
-0.0001024871,-0.0005003574,7,1
-2.437157e-05,-0.0005003574,7,1
9.247754e-05,-0.0004833405,7,1
0.0002146748,-0.0004494688,7,1
0.0002953834,-0.0004032803,7,1
0.0003023522,-0.0003486642,7,1
0.0002378501,-0.0002899966,7,1
0.0001338042,-0.0002254946,7,1
2.748934e-05,-0.0001554824,7,1
-5.678463e-05,-8.887356e-05,7,1
-0.0001065387,-3.474375e-05,7,1
-0.0001170729,-1.034161e-06,7,1
-9.486997e-05,6.744974e-06,7,1
-5.046408e-05,-1.237873e-05,7,1
-8.720959e-07,-5.257093e-05,7,1
3.494434e-05,-0.0001032974,7,1
3.883391e-05,-0.0001541859,7,1
2.855407e-06,-0.0001919471,7,1
-6.553616e-05,-0.0002075054,7,1
-0.0001528894,-0.0002003745,7,1
-0.0002457528,-0.0001765509,7,1
-0.0003344025,-0.0001464067,7,1
-0.0004143007,-0.0001167488,7,1
-0.0004835025,-9.2439e-05,7,1
-0.0005394151,-7.769106e-05,7,1
-0.00058139,-8.158062e-05,7,1
-0.000606186,-0.0001135075,7,1
-0.0006091032,-0.0001763888,7,1
-0.0005771763,-0.0002621213,7,1
-0.0004974402,-0.0003536883,7,1
-0.0003745947,-0.0004314796,7,1
-0.0002370013,-0.000482044,7,1
-0.0001251762,-0.0005060296,7,1
-7.056019e-05,-0.0005155915,7,1
-8.060823e-05,-0.0005245051,7,1
-0.0001352242,-0.0005397392,7,1
-0.0002096122,-0.0005551354,7,1
-0.0002852967,-0.000556594,7,1
-0.0003373197,-0.0005321222,7,1
-0.0003413713,-0.0004784786,7,1
-0.0002903207,-0.0004094387,7,1
-0.0002011848,-0.0003457471,7,1
-0.0001045939,-0.0003011791,7,1
-3.101625e-05,-0.0002775176,7,1
1.002961e-07,-0.0002652006,7,1
-9.785688e-06,-0.000251263,7,1
-4.219875e-05,-0.0002280877,7,1
-7.412562e-05,-0.0001987538,7,1
-8.838737e-05,-0.0001728234,7,1
-8.336335e-05,-0.0001606685,7,1
-5.937768e-05,-0.0001600202,7,1
-1.059602e-05,-0.0001579134,7,1
6.670914e-05,-0.0001430034,7,1
0.0001547106,-0.0001096179,7,1
0.0002169437,-6.132246e-05,7,1
0.0002234263,-7.030578e-06,7,1
0.0001739964,3.834771e-05,7,1
9.280167e-05,6.573675e-05,7,1
1.873781e-05,7.254349e-05,7,1
-1.724069e-05,5.811968e-05,7,1
-9.137427e-06,2.975825e-05,7,1
3.170304e-05,-6.058186e-06,7,1
8.534666e-05,-4.38194e-05,7,1
0.0001336421,-7.509801e-05,7,1
0.0001639484,-8.984595e-05,7,1
0.0001667035,-7.688073e-05,7,1
0.0001398006,-2.388537e-05,7,1
8.534666e-05,7.853991e-05,7,1
1.112074e-05,0.0002295848,7,1
-6.44017e-05,0.0004195254,7,1
-0.0001109144,0.0006345862,7,1
-0.0001037836,0.0008634226,7,1
-4.155049e-05,0.001087883,7,1
5.325772e-05,0.00127669,7,1
0.0001446626,0.001390784,7,1
0.0002021958,0.001403749,7,1
0.0002120818,0.001317206,7,1
0.0001837203,0.001160327,7,1
0.0001368834,0.0009812443,7,1
8.453633e-05,0.0008219338,7,1
3.964424e-05,0.0007146465,7,1
1.468618e-05,0.0006916333,7,1
1.97102e-05,0.0007856312,7,1
5.277153e-05,0.001007337,7,1
0.0001013911,0.00131591,7,1
0.0001436902,0.001631289,7,1
0.000163138,0.001865961,7,1
0.0001529279,0.001949749,7,1
0.0001128978,0.001857857,7,1
4.871989e-05,0.001617676,7,1
-2.404744e-05,0.001293059,7,1
-8.741498e-05,0.000950938,7,1
-0.0001314967,0.0006430136,7,1
-0.0001556445,0.0003955397,7,1
-0.000169258,0.0002099749,7,1
-0.00018433,7.059871e-05,7,1
-0.0002068571,-4.268495e-05,7,1
-0.0002306807,-0.0001415448,7,1
-0.0002442942,-0.0002266291,7,1
-0.0002446183,-0.0002898345,7,1
-0.0002360289,-0.0003284061,7,1
-0.0002199844,-0.0003478539,7,1
-0.0001906506,-0.0003561192,7,1
-0.0001425172,-0.0003574158,7,1
-7.882551e-05,-0.0003535262,7,1
-1.529591e-05,-0.0003577399,7,1
2.570662e-05,-0.0003825359,7,1
3.494434e-05,-0.0004327761,7,1
2.700314e-05,-0.000507002,7,1
2.197911e-05,-0.0005997034,7,1
3.056858e-05,-0.0007019666,7,1
4.77475e-05,-0.0008029332,7,1
6.816773e-05,-0.000889314,7,1
8.79397e-05,-0.0009474955,7,1
0.0001012291,-0.000971319,7,1
0.0001080358,-0.0009654847,7,1
0.0001101427,-0.0009419852,7,1
0.0001138702,-0.0009181616,7,1
0.0001269974,-0.0009063309,7,1
0.0001485521,-0.0009110308,7,1
0.0001707551,-0.0009270753,7,1
0.0001824238,-0.0009460369,7,1
0.0001791825,-0.0009570573,7,1
0.0001684862,-0.0009500885,7,1
0.0001577899,-0.0009209168,7,1
0.0001529279,-0.0008682456,7,1
0.000150659,-0.0007907783,7,1
0.0001480659,-0.0006925668,7,1
0.0001451488,-0.0005802555,7,1
0.0001425557,-0.0004661616,7,1
0.0001415833,-0.0003682741,7,1
0.0001417454,-0.0002995585,7,1
0.0001402868,-0.0002648765,7,1
0.000135749,-0.000258718,7,1
0.000125863,-0.0002684419,7,1
0.0001148425,-0.0002812451,7,1
0.0001073875,-0.0002848105,7,1
0.0001056048,-0.0002645523,7,1
0.0001081979,-0.0002128535,7,1
0.0001146805,-0.0001305243,7,1
0.0001245665,-2.453363e-05,7,1
0.000135749,9.069481e-05,7,1
0.0001380179,0.000200251,7,1
0.0001197045,0.0002948972,7,1
7.594687e-05,0.0003709058,7,1
1.355172e-05,0.0004226047,7,1
-5.435365e-05,0.0004436732,7,1
-0.0001135075,0.0004360561,7,1
-0.0001525652,0.0004096394,7,1
-0.0001681235,0.0003743092,7,1
-0.0001585616,0.0003357376,7,1
-0.0001217728,0.0002997591,7,1
-6.002594e-05,0.0002676702,7,1
1.419998e-05,0.0002372019,7,1
7.853991e-05,0.0002017096,7,1
0.0001101427,0.0001584381,7,1
9.831188e-05,0.0001080358,7,1
4.77475e-05,5.747142e-05,7,1
-2.194059e-05,1.403791e-05,7,1
-8.368748e-05,-2.064406e-05,7,1
-0.0001211246,-4.965376e-05,7,1
-0.0001334415,-7.720486e-05,7,1
-0.0001238797,-0.0001037836,7,1
-0.0001055663,-0.0001298761,7,1
-9.065628e-05,-0.0001546721,7,1
-8.563225e-05,-0.0001752544,7,1
-9.276313e-05,-0.000189192,7,1
-0.0001037836,-0.0001969711,7,1
-0.0001034594,-0.0002037779,7,1
-8.287715e-05,-0.0002126914,7,1
-4.252288e-05,-0.0002212809,7,1
6.744974e-06,-0.0002266291,7,1
5.52025e-05,-0.0002254946,7,1
8.923623e-05,-0.000219012,7,1
0.0001007429,-0.000206533,7,1
8.388807e-05,-0.0001922712,7,1
3.18651e-05,-0.0001797922,7,1
-4.446767e-05,-0.0001702304,7,1
-0.0001224211,-0.0001621271,7,1
-0.0001820611,-0.0001488377,7,1
-0.0002118811,-0.000122259,7,1
-0.000211557,-7.785312e-05,7,1
-0.0001898403,-2.210265e-05,7,1
-0.00015451,3.170304e-05,7,1
-0.0001065387,7.335383e-05,7,1
-4.997789e-05,9.750156e-05,7,1
8.041497e-06,0.0001051186,7,1
5.585077e-05,0.0001028497,7,1
7.918817e-05,0.0001022015,7,1
6.541262e-05,0.0001132219,7,1
1.501031e-05,0.0001433661,7,1
-5.532604e-05,0.0001966855,7,1
-0.0001245279,0.0002705873,7,1
-0.0001721751,0.0003559958,7,1
-0.0001828714,0.0004347596,7,1
-0.0001549962,0.0004882411,7,1
-9.973194e-05,0.0005026649,7,1
-3.717473e-05,0.0004751139,7,1
1.501031e-05,0.0004146635,7,1
4.612685e-05,0.0003375204,7,1
5.844381e-05,0.0002679943,7,1
6.168512e-05,0.0002258573,7,1
6.606088e-05,0.0002166196,7,1
7.643307e-05,0.0002312055,7,1
8.74535e-05,0.0002589186,7,1
8.891209e-05,0.0002884145,7,1
7.416415e-05,0.0003138588,7,1
4.547859e-05,0.0003324963,7,1
7.717366e-06,0.0003469201,7,1
-2.988179e-05,0.0003623164,7,1
-5.727083e-05,0.0003824125,7,1
-6.229485e-05,0.0004094774,7,1
-3.847125e-05,0.0004449697,7,1
1.063454e-05,0.0004874308,7,1
7.092284e-05,0.0005289196,7,1
0.0001295905,0.0005542018,7,1
0.000177886,0.000552419,7,1
0.0002159713,0.0005167646,7,1
0.0002415777,0.0004475628,7,1
0.0002508154,0.000359075,7,1
0.0002462775,0.0002655633,7,1
0.000234933,0.00018291,7,1
0.0002237505,0.0001205148,7,1
0.0002107852,7.853991e-05,7,1
0.0001945787,5.017848e-05,7,1
0.0001764274,2.846173e-05,7,1
0.0001684862,7.393236e-06,7,1
0.0001840444,-1.448558e-05,7,1
0.000220185,-3.506788e-05,7,1
0.0002631324,-5.127441e-05,7,1
0.0002916559,-6.261898e-05,7,1
0.00027707,-7.169464e-05,7,1
0.0002055991,-7.963584e-05,7,1
8.810177e-05,-8.044617e-05,7,1
-5.030202e-05,-6.861539e-05,7,1
-0.0001825473,-4.722278e-05,7,1
-0.0002840002,-2.437157e-05,7,1
-0.0003373197,-6.706447e-06,7,1
-0.0003311612,-6.176923e-08,7,1
-0.0002807589,-7.678839e-06,7,1
-0.0002259808,-2.777494e-05,7,1
-0.0002110708,-4.722278e-05,7,1
-0.0002522354,-5.516398e-05,7,1
-0.0003339163,-4.625038e-05,7,1
-0.0004198109,-2.194059e-05,7,1
-0.0004676201,1.565857e-05,7,1
-0.0004535205,5.909208e-05,7,1
-0.0003882082,9.490851e-05,7,1
-0.0003050687,0.0001107909,7,1
-0.0002395943,0.0001018773,7,1
-0.0002062088,6.978839e-05,7,1
-0.0001943781,2.133085e-05,7,1
-0.0001797922,-3.425755e-05,7,1
-0.0001413827,-8.871149e-05,7,1
-7.088431e-05,-0.0001407345,7,1
1.727922e-05,-0.0001909747,7,1
9.68533e-05,-0.0002379736,7,1
0.0001404489,-0.0002775176,7,1
0.0001389903,-0.0003047445,7,1
0.0001046324,-0.000315765,7,1
5.795762e-05,-0.0003096065,7,1
1.711715e-05,-0.0002895104,7,1
-3.951337e-06,-0.0002653627,7,1
-8.489166e-06,-0.0002522354,7,1
-8.002969e-06,-0.0002608248,7,1
-8.002969e-06,-0.0002883759,7,1
-6.176923e-08,-0.000325651,7,1
2.327564e-05,-0.0003627639,7,1
6.573675e-05,-0.0003901529,7,1
0.000115977,-0.0004029561,7,1
0.0001560072,-0.0004040906,7,1
0.0001688103,-0.000402632,7,1
0.0001511452,-0.0004039285,7,1
0.0001148425,-0.0004113835,7,1
8.161915e-05,-0.0004227281,7,1
6.914012e-05,-0.0004334244,7,1
8.664318e-05,-0.0004376381,7,1
0.0001287802,-0.0004290486,7,1
0.0001812893,-0.0004065215,7,1
0.0002278021,-0.0003718396,7,1
0.0002579462,-0.0003261372,7,1
0.0002730183,-0.0002702246,7,1
0.0002765838,-0.0002037779,7,1
0.0002720459,-0.0001276072,7,1
0.0002628082,-4.770897e-05,7,1
0.0002532463,2.408596e-05,7,1
0.0002477361,8.534666e-05,7,1
0.000252274,0.0001376938,7,1
0.0002692908,0.0001838824,7,1
0.0002889007,0.0002239125,7,1
0.0002966799,0.0002564877,7,1
0.0002730183,0.0002817699,7,1
0.0002130541,0.0002987867,7,1
0.0001235941,0.0003089969,7,1
1.12828e-05,0.0003164518,7,1
-0.0001190177,0.0003232586,7,1
-0.0002436459,0.0003261758,7,1
-0.0003238683,0.0003227724,7,1
-0.0003259751,0.0003132105,7,1
-0.0002520733,0.0002999212,7,1
-0.0001269589,0.0002861456,7,1
5.772582e-06,0.0002769079,7,1
0.0001043083,0.0002717218,7,1
0.0001453108,0.0002678322,7,1
0.0001312112,0.0002615117,7,1
8.340187e-05,0.0002480603,7,1
3.251336e-05,0.0002221298,7,1
1.883015e-06,0.0001897167,7,1
9.106227e-07,0.0001542244,7,1
2.133085e-05,0.0001148425,7,1
4.466826e-05,7.448828e-05,7,1
5.536457e-05,3.915804e-05,7,1
4.531652e-05,1.160693e-05,7,1
1.22552e-05,-9.299493e-06,7,1
-3.814712e-05,-2.728874e-05,7,1
-8.871149e-05,-4.641245e-05,7,1
-0.0001245279,-5.872941e-05,7,1
-0.0001407345,-6.342931e-05,7,1
-0.0001381414,-6.926366e-05,7,1
-0.0001206384,-9.146661e-05,7,1
-9.519411e-05,-0.0001386276,7,1
-6.780507e-05,-0.0002110708,7,1
-4.38194e-05,-0.0002992343,7,1
-2.777494e-05,-0.0003862634,7,1
-1.805102e-05,-0.0004536825,7,1
-2.064406e-05,-0.0004929024,7,1
-5.095028e-05,-0.0005011677,7,1
-0.000122097,-0.0004755614,7,1
-0.0002301945,-0.0004185144,7,1
-0.0003533641,-0.0003319715,7,1
-0.0004634065,-0.0002201465,7,1
-0.0005400634,-9.146661e-05,7,1
-0.0005757177,4.158902e-05,7,1
-0.0005736109,0.0001654069,7,1
-0.000544277,0.0002660495,7,1
-0.0005016539,0.0003308757,7,1
-0.0004535205,0.00035162,7,1
-0.0004055492,0.0003208276,7,1
-0.0003587123,0.0002448189,7,1
-0.0003117133,0.0001492004,7,1
-0.0002692523,6.946425e-05,7,1
-0.0002429977,2.927205e-05,7,1
-0.0002404046,2.295151e-05,7,1
-0.000253694,3.883391e-05,7,1
-0.0002608248,6.78436e-05,7,1
-0.0002352185,0.0001106288,7,1
-0.0001640719,0.0001694586,7,1
-5.013995e-05,0.0002357433,7,1
9.847395e-05,0.0002910076,7,1
0.0002744769,0.0003154794,7,1
0.0004687933,0.0003015418,7,1
0.0006571133,0.0002516257,7,1
0.0008005413,0.0001770756,7,1
0.0008590469,9.296373e-05,7,1
0.0008101031,1.808955e-05,7,1
0.0006645683,-2.647842e-05,7,1
0.0004686312,-2.550602e-05,7,1
0.0002900352,2.878586e-05,7,1
0.0001770756,0.000138342,7,1
0.0001339663,0.0003002453,7,1
0.0001328318,0.0005012064,7,1
0.0001417454,0.000710757,7,1
0.0001415833,0.000871688,7,1
0.0001289422,0.0009282488,7,1
0.0001080358,0.0008506195,7,1
8.453633e-05,0.0006517651,7,1
7.221937e-05,0.0003819262,7,1
8.129502e-05,0.0001047945,7,1
0.000103498,-0.0001274451,7,1
0.0001167873,-0.0002852967,7,1
0.0001088461,-0.0003579019,7,1
8.664318e-05,-0.0003515814,7,1
7.076078e-05,-0.0002771934,7,1
7.90261e-05,-0.0001558065,7,1
0.0001117633,-1.788895e-05,7,1
0.0001547106,0.0001057669,7,1
0.0001911753,0.0001974959,7,1
0.0002140265,0.0002577842,7,1
0.0002231022,0.0002968419,7,1
0.0002263435,0.0003261758,7,1
0.0002294227,0.0003568061,7,1
0.0002316917,0.000386302,7,1
0.0002289366,0.0003992672,7,1
0.0002156472,0.000381278,7,1
0.0001902029,0.0003261758,7,1
0.0001551968,0.0002417397,7,1
0.0001222976,0.0001477418,7,1
9.717743e-05,6.865393e-05,7,1
6.865393e-05,2.214118e-05,7,1
2.441009e-05,1.387585e-05,7,1
-3.344723e-05,3.105477e-05,7,1
-8.871149e-05,4.888196e-05,7,1
-0.0001173971,4.580272e-05,7,1
-0.0001063766,7.555301e-06,7,1
-6.504996e-05,-6.180866e-05,7,1
-2.599222e-05,-0.0001431655,7,1
-2.291298e-05,-0.0002096122,7,1
-6.926366e-05,-0.0002392702,7,1
-0.00015451,-0.0002334358,7,1
-0.0002553146,-0.0002196603,7,1
-0.0003392644,-0.0002300324,7,1
-0.0003839945,-0.0002823795,7,1
-0.0003831841,-0.0003792946,7,1
-0.0003465574,-0.0005061917,7,1
-0.0002968033,-0.0006428128,7,1
-0.0002515871,-0.0007680892,7,1
-0.0002245222,-0.0008695421,7,1
-0.0002123673,-0.0009398784,7,1
-0.0002032917,-0.0009880118,7,1
-0.0001849783,-0.001030635,7,1
-0.0001464067,-0.001080389,7,1
-8.919769e-05,-0.001145863,7,1
-3.247483e-05,-0.001222682,7,1
-5.57199e-06,-0.001293667,7,1
-2.615429e-05,-0.001339369,7,1
-8.935975e-05,-0.001347797,7,1
-0.0001734716,-0.001314411,7,1
-0.0002454286,-0.001238565,7,1
-0.0002744383,-0.001126091,7,1
-0.0002449425,-0.0009844464,7,1
-0.0001731475,-0.0008176812,7,1
-9.908367e-05,-0.0006149375,7,1
-6.261898e-05,-0.0003541745,7,1
-7.801519e-05,-2.518189e-05,7,1
-0.000129714,0.0003446512,7,1
-0.0001883817,0.0006904988,7,1
-0.0002287359,0.0009402417,7,1
-0.0002386219,0.001044936,7,1
-0.0002156086,0.001005068,7,1
-0.0001673132,0.0008613158,7,1
-0.0001063766,0.0006776956,7,1
-3.944364e-05,0.0005068787,7,1
3.202716e-05,0.0003746333,7,1
0.0001081979,0.0002903593,7,1
0.000185341,0.0002480603,7,1
0.0002527602,0.0002420638,7,1
0.0002952213,0.0002688046,7,1
0.0003055935,0.0003240689,7,1
0.000284525,0.0004015361,7,1
0.0002410915,0.0004866205,7,1
0.0001963614,0.0005574431,7,1
0.0001710792,0.0006008766,7,1
0.0001725378,0.0006144901,7,1
0.0001961994,0.000606711,7,1
0.0002219677,0.0005819149,7,1
0.0002326641,0.0005402642,7,1
0.0002205092,0.0004807861,7,1
0.0001958752,0.0004072085,7,1
0.0001715654,0.0003227724,7,1
0.0001561692,0.000234933,7,1
0.0001480659,0.0001566554,7,1
0.0001410971,0.0001031738,7,1
0.0001304008,8.178122e-05,7,1
0.0001218114,9.620504e-05,7,1
0.0001268354,0.0001448246,7,1
0.0001446626,0.0002195368,7,1
0.0001624898,0.0003034866,7,1
0.0001702689,0.0003747954,7,1
0.0001633001,0.0004167703,7,1
0.0001451488,0.0004271425,7,1
0.0001188942,0.000410936,7,1
9.733949e-05,0.0003778746,7,1
9.231547e-05,0.0003362238,7,1
0.0001002567,0.00029198,7,1
0.0001062531,0.0002487085,7,1
9.523264e-05,0.0002065715,7,1
6.573675e-05,0.0001615174,7,1
2.894792e-05,0.0001146805,7,1
-1.25408e-05,7.092284e-05,7,1
-6.148453e-05,3.899597e-05,7,1
-0.0001193418,2.684107e-05,7,1
-0.000179306,2.943412e-05,7,1
-0.0002303566,3.526847e-05,7,1
-0.0002629317,3.056858e-05,7,1
-0.0002754107,9.338019e-06,7,1
-0.0002805968,-2.550602e-05,7,1
-0.000295993,-6.44017e-05,7,1
-0.000333268,-9.357346e-05,7,1
-0.0003797808,-0.0001143178,7,1
-0.0004079801,-0.0001308485,7,1
-0.0003964735,-0.0001413827,7,1
-0.0003376438,-0.0001400862,7,1
-0.0002447804,-0.0001211246,7,1
-0.0001473791,-8.644259e-05,7,1
-7.850138e-05,-4.657452e-05,7,1
-5.548811e-05,-1.691656e-05,7,1
-7.509801e-05,-1.189254e-05,7,1
-0.0001165867,-4.187462e-05,7,1
-0.0001642339,-0.0001092938,7,1
-0.0002135018,-0.0002053985,7,1
-0.0002629317,-0.0003084721,7,1
-0.0003031239,-0.0003948528,7,1
-0.0003204649,-0.0004506033,7,1
-0.000300855,-0.0004692408,7,1
-0.0002392702,-0.0004546549,7,1
-0.0001477033,-0.0004215936,7,1
-4.754691e-05,-0.000385291,7,1
3.818565e-05,-0.0003525538,7,1
9.16672e-05,-0.0003177098,7,1
0.0001114392,-0.0002718453,7,1
0.0001127357,-0.0002058847,7,1
0.0001192183,-0.0001208004,7,1
0.0001419075,-2.923353e-05,7,1
0.0001743205,5.698522e-05,7,1
0.0002075439,0.000123432,7,1
0.0002318537,0.0001573037,7,1
0.0002427121,0.0001511452,7,1
0.0002417397,0.00010366,7,1
0.0002286124,3.13789e-05,7,1
0.0001987924,-3.895745e-05,7,1
0.0001514693,-8.239095e-05,7,1
9.782569e-05,-9.098041e-05,7,1
5.017848e-05,-7.526008e-05,7,1
1.484824e-05,-4.819517e-05,7,1
-1.20546e-05,-1.740276e-05,7,1
-3.928157e-05,1.371378e-05,7,1
-7.007399e-05,4.790957e-05,7,1
-9.924574e-05,9.16672e-05,7,1
-0.0001096179,0.0001539003,7,1
-8.320128e-05,0.0002329882,7,1
-1.027188e-05,0.0003174242,7,1
9.280167e-05,0.0003919743,7,1
0.0002010613,0.0004350837,7,1
0.0002898731,0.0004349216,7,1
0.0003452995,0.0003924605,7,1
0.0003683128,0.0003221241,7,1
0.0003662059,0.0002431983,7,1
0.0003529166,0.0001731861,7,1
0.0003311998,0.0001229458,7,1
0.0002965178,9.328786e-05,7,1
0.0002336365,7.805372e-05,7,1
0.0001401247,7.124698e-05,7,1
2.878586e-05,6.622294e-05,7,1
-8.174268e-05,6.022653e-05,7,1
-0.0001707166,5.585077e-05,7,1
-0.0002131776,5.471631e-05,7,1
-0.0001935677,5.844381e-05,7,1
-0.0001120489,6.654708e-05,7,1
8.365628e-06,8.04847e-05,7,1
0.000135749,9.896015e-05,7,1
0.0002485465,0.0001158149,7,1
0.000336548,0.0001304008,7,1
0.0003989431,0.0001433661,7,1
0.0004365423,0.0001550348,7,1
0.0004456179,0.0001623277,7,1
0.0004256839,0.0001594105,7,1
0.0003804677,0.0001436902,7,1
0.0003187208,0.0001182459,7,1
0.0002440086,9.231547e-05,7,1
0.0001511452,6.654708e-05,7,1
3.316162e-05,4.207521e-05,7,1
-0.0001079973,1.857574e-05,7,1
-0.0002520733,-1.682422e-06,7,1
-0.0003700569,-1.691656e-05,7,1
-0.0004334244,-2.453363e-05,7,1
-0.0004292107,-2.712668e-05,7,1
-0.0003784843,-3.004385e-05,7,1
-0.0003168994,-3.976777e-05,7,1
-0.0002773555,-5.791909e-05,7,1
-0.0002749245,-8.190475e-05,7,1
-0.0003039342,-0.0001091317,7,1
-0.0003444506,-0.0001361966,7,1
-0.000375405,-0.0001618029,7,1
-0.000377836,-0.0001846542,7,1
-0.0003408851,-0.0002052365,7,1
-0.000266173,-0.0002207947,7,1
-0.0001661787,-0.0002357047,7,1
-6.002594e-05,-0.0002528836,7,1
3.121684e-05,-0.0002690902,7,1
8.84259e-05,-0.000276221,7,1
0.0001046324,-0.0002707109,7,1
8.599492e-05,-0.0002558008,7,1
3.996837e-05,-0.0002327876,7,1
-1.562004e-05,-0.0002057227,7,1
-6.44017e-05,-0.0001765509,7,1
-8.952183e-05,-0.000144462,7,1
-8.158062e-05,-0.0001088076,7,1
-3.847125e-05,-7.493595e-05,7,1
2.894792e-05,-4.965376e-05,7,1
0.0001072255,-3.960571e-05,7,1
0.0001738343,-4.462973e-05,7,1
0.0002044647,-6.002594e-05,7,1
0.000177886,-8.07703e-05,7,1
9.037068e-05,-0.0001055663,7,1
-3.166451e-05,-0.0001349001,7,1
-0.0001391138,-0.00016942,7,1
-0.0001904885,-0.0002073433,7,1
-0.0001737958,-0.0002417012,7,1
-0.0001076731,-0.000266011,7,1
-2.258885e-05,-0.0002739521,7,1
5.212327e-05,-0.0002652006,7,1
0.0001000946,-0.0002442942,7,1
0.0001219734,-0.0002219292,7,1
0.000130725,-0.000206533,7,1
0.0001394765,-0.0001968091,7,1
0.0001589243,-0.0001861127,7,1
0.0001861513,-0.0001684476,7,1
0.0002106232,-0.0001415448,7,1
0.000217592,-0.0001065387,7,1
0.0001949028,-7.056019e-05,7,1
0.0001446626,-3.814712e-05,7,1
7.918817e-05,-9.947754e-06,7,1
1.841368e-05,1.387585e-05,7,1
-2.177852e-05,3.721326e-05,7,1
-4.122636e-05,5.94162e-05,7,1
-4.527799e-05,7.967438e-05,7,1
-4.511593e-05,9.490851e-05,7,1
-4.787104e-05,0.0001093323,7,1
-5.159854e-05,0.0001268354,7,1
-4.835724e-05,0.0001433661,7,1
-3.069211e-05,0.0001566554,7,1
-5.085794e-06,0.000165569,7,1
1.484824e-05,0.0001723757,7,1
9.175954e-06,0.0001790204,7,1
-3.425755e-05,0.000185503,7,1
-0.0001091317,0.0001900409,7,1
-0.000189192,0.000190365,7,1
-0.0002525595,0.0001863134,7,1
-0.0002901587,0.0001785342,7,1
-0.0003074997,0.000170431,7,1
-0.0003175477,0.0001654069,7,1
-0.00032322,0.0001594105,7,1
-0.0003120375,0.0001479039,7,1
-0.000271035,0.000133318,7,1
-0.0001998883,0.0001205148,7,1
-0.000112211,0.0001146805,7,1
-2.145439e-05,0.000115977,7,1
6.136099e-05,0.0001206769,7,1
0.0001291043,0.0001224596,7,1
0.0001840444,0.0001171115,7,1
0.0002406053,0.0001031738,7,1
0.0003172622,8.340187e-05,7,1
0.0004192013,6.427817e-05,7,1
0.0005316747,5.228533e-05,7,1
0.0006198382,5.277153e-05,7,1
0.0006454446,6.427817e-05,7,1
0.0005939078,8.291568e-05,7,1
0.0004825689,0.0001039842,7,1
0.0003448133,0.0001247285,7,1
0.0002182402,0.0001433661,7,1
0.0001373696,0.0001558451,7,1
0.0001175977,0.000160707,7,1
0.000148228,0.000160545,7,1
0.0002000889,0.000160707,7,1
0.0002417397,0.000160707,7,1
0.000252274,0.0001592484,7,1
0.0002279642,0.0001589243,7,1
0.0001762653,0.0001662173,7,1
0.0001104668,0.0001838824,7,1
3.818565e-05,0.0002075439,7,1
-3.830919e-05,0.0002263435,7,1
-0.0001151281,0.0002299089,7,1
-0.0001760647,0.0002145127,7,1
-0.000206695,0.0001842065,7,1
-0.000206695,0.0001467694,7,1
-0.0001895161,0.0001137081,7,1
-0.000171851,9.280167e-05,7,1
-0.0001656925,8.664318e-05,7,1
-0.0001731475,8.907416e-05,7,1
-0.0001922712,9.409818e-05,7,1
-0.0002256567,8.939829e-05,7,1
-0.0002754107,6.525056e-05,7,1
-0.0003408851,2.01964e-05,7,1
-0.0004044147,-3.344723e-05,7,1
-0.0004446069,-8.093236e-05,7,1
-0.0004507654,-0.000114804,7,1
-0.0004267797,-0.0001339277,7,1
-0.0003867496,-0.0001410586,7,1
-0.0003463953,-0.0001431655,7,1
-0.0003113892,-0.0001451102,7,1
-0.0002802727,-0.0001512687,7,1
-0.0002467252,-0.0001614788,7,1
-0.0002099363,-0.0001765509,7,1
-0.0001731475,-0.0001989159,7,1
-0.0001404103,-0.0002285739,7,1
-0.00010978,-0.0002630937,7,1
-7.493595e-05,-0.0002961551,7,1
-3.701266e-05,-0.0003206269,7,1
-3.627206e-06,-0.0003329439,7,1
2.100672e-05,-0.0003387782,7,1
3.818565e-05,-0.0003418575,7,1
4.969229e-05,-0.0003439643,7,1
5.309566e-05,-0.0003403989,7,1
4.888196e-05,-0.0003277578,7,1
4.207521e-05,-0.0003024756,7,1
3.915804e-05,-0.0002715212,7,1
4.677511e-05,-0.0002412149,7,1
6.46023e-05,-0.000209126,7,1
8.858796e-05,-0.0001721751,7,1
0.0001200286,-0.000119828,7,1
0.0001590864,-4.268495e-05,7,1
0.0002025199,6.136099e-05,7,1
0.0002360674,0.0001910133,7,1
0.0002441707,0.000329255,7,1
0.0002263435,0.00044578,7,1
0.0001968476,0.0005133613,7,1
0.0001769136,0.0005200059,7,1
0.0001801549,0.0004749518,7,1
0.0002078681,0.0004130428,7,1
0.0002508154,0.0003717161,7,1
0.0002948972,0.0003671783,7,1
0.0003235827,0.0003950536,7,1
0.0003263378,0.0004381629,7,1
0.0002987867,0.0004749518,7,1
0.0002488706,0.0004901859,7,1
0.0001838824,0.0004791655,7,1
0.0001163011,0.0004401077,7,1
6.103686e-05,0.0003762539,7,1
2.732727e-05,0.0002991108,7,1
1.744129e-05,0.0002265056,7,1
2.505836e-05,0.0001786963,7,1
3.299956e-05,0.0001641104,7,1
2.554455e-05,0.0001699448,7,1
-4.599598e-06,0.0001767515,7,1
-4.835724e-05,0.0001626518,7,1
-9.357346e-05,0.0001179218,7,1
-0.0001308485,4.272347e-05,7,1
-0.0001536997,-4.868137e-05,7,1
-0.0001588858,-0.0001397621,7,1
-0.0001489998,-0.0002156086,7,1
-0.0001326312,-0.0002692523,7,1
-0.0001164247,-0.0002979378,7,1
-0.0001062146,-0.000301017,7,1
-0.0001028112,-0.0002836761,7,1
-0.0001062146,-0.0002603387,7,1
-0.0001118868,-0.0002498044,7,1
-0.0001079973,-0.0002616352,7,1
-8.644259e-05,-0.0002883759,7,1
-5.2733e-05,-0.0003152788,7,1
-2.566809e-05,-0.0003324577,7,1
-2.42095e-05,-0.000335537,7,1
-6.521203e-05,-0.0003217614,7,1
-0.0001511067,-0.0002908069,7,1
-0.0002655248,-0.0002476975,7,1
-0.0003789705,-0.0001989159,7,1
-0.0004632444,-0.0001548341,7,1
-0.0005027883,-0.0001287416,7,1
-0.0005024642,-0.0001256624,7,1
-0.0004713477,-0.0001413827,7,1
-0.0004160834,-0.0001677994,7,1
-0.0003379679,-0.0001961608,7,1
-0.0002451045,-0.0002209568,7,1
-0.0001488377,-0.0002407288,7,1
-6.116039e-05,-0.000251101,7,1
9.986281e-06,-0.0002472114,7,1
5.649903e-05,-0.0002358668,7,1
7.789165e-05,-0.0002295462,7,1
8.032264e-05,-0.0002340841,7,1
7.918817e-05,-0.0002472114,7,1
8.79397e-05,-0.0002595283,7,1
0.0001088461,-0.0002635799,7,1
0.0001378558,-0.0002546664,7,1
0.0001644345,-0.0002347323,7,1
0.0001741585,-0.0002118811,7,1
0.000163138,-0.0001887058,7,1
0.0001428799,-0.0001574272,7,1
0.0001289422,-0.0001182074,7,1
0.000128456,-9.065628e-05,7,1
0.0001402868,-9.697683e-05,7,1
0.0001547106,-0.0001433275,7,1
0.0001647587,-0.0002167431,7,1
0.0001657311,-0.0002972895,7,1
0.0001645966,-0.0003624398,7,1
0.0001726999,-0.0003995528,7,1
0.0001981441,-0.0004149489,7,1
0.0002419018,-0.0004248349,7,1
0.000292142,-0.0004353692,7,1
0.0003336308,-0.000444769,7,1
0.0003649094,-0.0004512515,7,1
0.0003893813,-0.0004561135,7,1
0.0004093153,-0.0004627582,7,1
0.0004196875,-0.0004703753,7,1
0.0004089912,-0.0004718339,7,1
0.0003579406,-0.0004551412,7,1
0.0002530843,-0.0004045768,7,1
0.0001103047,-0.0003068514,7,1
-2.647842e-05,-0.000152079,7,1
-0.0001094559,5.99024e-05,7,1
-0.0001117248,0.0003240689,7,1
-4.041603e-05,0.0006329655,7,1
7.059871e-05,0.0009810822,7,1
0.0001783722,0.001360964,7,1
0.0002519498,0.001744087,7,1
0.0002850112,0.00207065,7,1
0.0002858215,0.002272746,7,1
0.0002694529,0.002315694,7,1
0.0002478982,0.002214564,7,1
0.0002214815,0.002037102,7,1
0.0001906891,0.001857695,7,1
0.0001542244,0.001710216,7,1
0.0001081979,0.001570839,7,1
5.552663e-05,0.001396132,7,1
-5.479652e-07,0.001162109,7,1
-5.921561e-05,0.0008828705,7,1
-0.0001143178,0.0005947181,7,1
-0.0001553203,0.0003397893,7,1
-0.0001797922,0.0001355869,7,1
-0.0001874093,-1.724069e-05,7,1
-0.0001827094,-0.0001242038,7,1
-0.0001731475,-0.0001953505,7,1
-0.0001624512,-0.0002392702,7,1
-0.0001540238,-0.0002645523,7,1
-0.0001507825,-0.000283514,7,1
-0.0001600202,-0.0003011791,7,1
-0.0001904885,-0.0003196545,7,1
-0.0002392702,-0.0003399127,7,1
-0.0002890242,-0.0003601709,7,1
-0.0003152788,-0.0003784843,7,1
-0.0003074997,-0.0003895047,7,1
-0.0002783279,-0.0003938804,7,1
-0.000248832,-0.0003989045,7,1
-0.0002391081,-0.0004083043,7,1
-0.0002514251,-0.0004177041,7,1
-0.0002771934,-0.0004258073,7,1
-0.0003073376,-0.0004313175,7,1
-0.0003368335,-0.0004358554,7,1
-0.0003574158,-0.0004452552,7,1
-0.0003570916,-0.0004684305,7,1
-0.0003326198,-0.0005167259,7,1
-0.0002934,-0.000591438,7,1
-0.0002515871,-0.0006810602,7,1
-0.0002075054,-0.0007664686,7,1
-0.0001558065,-0.0008327533,7,1
-9.422172e-05,-0.0008774833,7,1
-2.712668e-05,-0.0009004966,7,1
3.656499e-05,-0.0009043861,7,1
8.307774e-05,-0.0008910968,7,1
9.474644e-05,-0.0008635456,7,1
6.914012e-05,-0.0008259465,7,1
2.214118e-05,-0.0007821888,7,1
-1.610624e-05,-0.0007356761,7,1
-1.788895e-05,-0.0006864083,7,1
2.927205e-05,-0.0006343853,7,1
0.0001145184,-0.0005784728,7,1
0.0002091646,-0.0005214258,7,1
0.000284687,-0.0004658375,7,1
0.0003286068,-0.0004079801,7,1
0.0003483787,-0.0003457471,7,1
0.0003522683,-0.0002796244,7,1
0.0003427064,-0.0002094502,7,1
0.0003198552,-0.000137169,7,1
0.0002890628,-6.521203e-05,7,1
0.0002553532,1.883015e-06,7,1
0.0002247229,6.200925e-05,7,1
0.0002080301,0.0001145184,7,1
0.0002114335,0.0001610312,7,1
0.0002312055,0.0001999268,7,1
0.0002519498,0.000225209,7,1
0.0002571359,0.0002307193,7,1
0.0002336365,0.0002193747,7,1
0.0001769136,0.0001955511,7,1
9.507057e-05,0.0001673517,7,1
7.393236e-06,0.0001412592,7,1
-6.796714e-05,0.0001240803,7,1
-0.0001159385,0.0001180839,7,1
-0.0001311726,0.0001206769,7,1
-0.0001195039,0.0001268354,7,1
-0.0001016767,0.0001347766,7,1
-9.989401e-05,0.0001423936,7,1
-0.0001204763,0.0001461212,7,1
-0.0001447861,0.0001459591,7,1
-0.0001464067,0.0001412592,7,1
-0.0001015147,0.0001352628,7,1
2.207145e-06,0.0001321835,7,1
0.0001483901,0.0001363972,7,1
0.0002948972,0.0001495245,7,1
0.000388895,0.0001662173,7,1
0.0003953777,0.0001806411,7,1
0.000311914,0.0001897167,7,1
0.000168,0.0001908512,7,1
1.436204e-05,0.0001863134,7,1
-0.0001007043,0.0001793446,7,1
-0.0001499722,0.0001735102,7,1
-0.0001455964,0.000170431,7,1
-0.0001125351,0.0001689724,7,1
-8.141856e-05,0.0001670276,7,1
-6.91016e-05,0.0001620036,7,1
-7.898758e-05,0.0001511452,7,1
-0.0001026491,0.0001368834,7,1
-0.0001240417,0.0001227837,7,1
-0.0001302002,0.0001099806,7,1
-0.0001216107,9.831188e-05,7,1
-9.940781e-05,8.84259e-05,7,1
-7.18567e-05,8.145709e-05,7,1
-4.770897e-05,7.740546e-05,7,1
-3.490581e-05,7.221937e-05,7,1
-3.911951e-05,6.249545e-05,7,1
-6.261898e-05,4.677511e-05,7,1
-9.989401e-05,2.829966e-05,7,1
-0.0001501342,7.23117e-06,7,1
-0.0002083157,-1.367526e-05,7,1
-0.0002639041,-2.955766e-05,7,1
-0.0003042584,-3.26369e-05,7,1
-0.0003254889,-2.210265e-05,7,1
-0.0003293785,-7.192643e-06,7,1
-0.0003259751,2.531276e-06,7,1
-0.0003238683,-2.492749e-06,7,1
-0.0003250027,-2.664048e-05,7,1
-0.0003238683,-6.958779e-05,7,1
-0.0003110651,-0.0001214487,7,1
-0.0002823795,-0.0001681235,7,1
-0.0002420253,-0.0001995642,7,1
-0.0002013469,-0.0002136638,7,1
-0.0001653684,-0.0002136638,7,1
-0.0001383035,-0.0002008607,7,1
-0.000119828,-0.0001822232,7,1
-0.0001081593,-0.0001674752,7,1
-9.811128e-05,-0.000161965,7,1
-8.239095e-05,-0.00016942,7,1
-5.840528e-05,-0.0001864369,7,1
-2.664048e-05,-0.0002083157,7,1
7.393236e-06,-0.0002241981,7,1
4.142696e-05,-0.0002199844,7,1
7.319176e-05,-0.0001872472,7,1
0.0001004187,-0.0001313347,7,1
0.0001248906,-6.81292e-05,7,1
0.0001488763,-1.189254e-05,7,1
0.000170431,3.413401e-05,7,1
0.0001880961,7.108491e-05,7,1
0.0002041406,0.0001064152,7,1
0.0002278021,0.0001558451,7,1
0.0002692908,0.0002368777,7,1
0.0003263378,0.000359075,7,1
0.0003854917,0.0005167646,7,1
0.000433301,0.0006911471,7,1
0.0004538833,0.0008554814,7,1
0.000440756,0.0009827028,7,1
0.0004005638,0.001056605,7,1
0.0003459477,0.001071029,7,1
0.0002908455,0.001030188,7,1
0.0002514636,0.000941052,7,1
0.0002346088,0.0008233925,7,1
0.0002308813,0.0006979538,7,1
0.0002245608,0.0005824011,7,1
0.0001958752,0.0004914824,7,1
0.0001349386,0.0004331389,7,1
5.860588e-05,0.0004127187,7,1
6.258778e-06,0.0004326527,7,1
6.744974e-06,0.0004835413,7,1
5.082674e-05,0.0005430193,7,1
0.0001017153,0.0005874252,7,1
0.0001187321,0.0006003904,7,1
7.740546e-05,0.0005801322,7,1
-2.485776e-05,0.0005328091,7,1
-0.0001632615,0.0004673347,7,1
-0.0002974516,0.0003984569,7,1
-0.00039777,0.0003339549,7,1
-0.0004553032,0.0002756114,7,1
-0.0004799371,0.0002255332,7,1
-0.0004867439,0.000185341,7,1
-0.0004893369,0.0001521176,7,1
-0.0005040849,0.0001187321,7,1
-0.0005360117,8.064677e-05,7,1
-0.0005753936,3.267542e-05,7,1
-0.0006047274,-2.955766e-05,7,1
-0.0005961379,-0.0001028112,7,1
-0.0005314739,-0.0001814128,7,1
-0.0004146248,-0.0002556388,7,1
-0.0002697385,-0.0003165753,7,1
-0.0001274451,-0.0003634122,7,1
-1.416145e-05,-0.0003992286,7,1
5.390598e-05,-0.0004279142,7,1
7.740546e-05,-0.0004506033,7,1
6.638502e-05,-0.000469727,7,1
3.380988e-05,-0.0004899852,7,1
-1.358292e-06,-0.0005091089,7,1
-2.518189e-05,-0.0005264499,7,1
-3.296103e-05,-0.000539253,7,1
-2.501983e-05,-0.0005470322,7,1
3.827799e-06,-0.0005484907,7,1
6.006447e-05,-0.0005470322,7,1
0.0001399627,-0.0005429805,7,1
0.000225047,-0.0005405495,7,1
0.0002911697,-0.0005431426,7,1
0.000324231,-0.0005458977,7,1
0.0003290929,-0.0005436288,7,1
0.0003166139,-0.0005321222,7,1
0.0002942489,-0.0005149432,7,1
0.0002709115,-0.0004953333,7,1
0.0002555152,-0.0004768579,7,1
0.0002550291,-0.0004601652,7,1
0.0002670219,-0.0004429862,7,1
0.0002795009,-0.0004220798,7,1
0.0002829043,-0.0003993907,7,1
0.0002735045,-0.0003788084,7,1
0.0002550291,-0.0003645466,7,1
0.0002342847,-0.0003590364,7,1
0.0002198609,-0.0003626019,7,1
0.0002195368,-0.0003711913,7,1
0.0002336365,-0.0003779981,7,1
0.000250005,-0.0003767015,7,1
0.0002527602,-0.0003663294,7,1
0.0002316917,-0.0003485022,7,1
0.0001906891,-0.000328244,7,1
0.0001496866,-0.0003112272,7,1
0.0001269974,-0.0002974516,7,1
0.000130887,-0.0002794623,7,1
0.0001568175,-0.0002532078,7,1
0.0001910133,-0.0002211189,7,1
0.0002145127,-0.0001901644,7,1
0.0002188885,-0.0001645581,7,1
0.0002073819,-0.0001472171,7,1
0.0001902029,-0.0001394379,7,1
0.000178048,-0.0001389517,7,1
0.0001759412,-0.0001400862,7,1
0.0001827479,-0.0001378173,7,1
0.0001895547,-0.0001300382,7,1
0.0001884202,-0.000114804,7,1
0.0001770756,-9.843541e-05,7,1
0.0001598967,-8.692878e-05,7,1
0.0001422316,-8.498399e-05,7,1
0.0001252147,-9.227693e-05,7,1
0.0001056048,-0.0001057284,7,1
8.340187e-05,-0.0001216107,7,1
5.536457e-05,-0.0001331174,7,1
2.554455e-05,-0.000137007,7,1
4.47606e-06,-0.0001308485,7,1
1.234753e-06,-0.0001130213,7,1
2.01964e-05,-8.417367e-05,7,1
5.61749e-05,-5.030202e-05,7,1
9.847395e-05,-1.659243e-05,7,1
0.0001347766,1.1769e-05,7,1
0.0001521176,3.202716e-05,7,1
0.0001404489,4.580272e-05,7,1
9.928428e-05,5.536457e-05,7,1
3.154097e-05,6.200925e-05,7,1
-6.310517e-05,6.768154e-05,7,1
-0.0001861127,7.286763e-05,7,1
-0.000333268,7.772959e-05,7,1
-0.0004862577,8.372601e-05,7,1
-0.0006204477,9.361199e-05,7,1
-0.0007238454,0.0001054428,7,1
-0.0007980713,0.0001140322,7,1
-0.0008507425,0.0001114392,7,1
-0.0008821832,9.118101e-05,7,1
-0.0008776453,5.552663e-05,7,1
-0.0008188156,1.711715e-05,7,1
-0.000690622,-4.761664e-06,7,1
-0.0004907955,1.160693e-05,7,1
-0.0002423494,8.064677e-05,7,1
1.720949e-06,0.0001976579,7,1
0.0001773998,0.0003496752,7,1
0.0002487085,0.0005169268,7,1
0.0002214815,0.0006833679,7,1
0.0001295905,0.0008373301,7,1
1.841368e-05,0.0009724927,7,1
-6.748094e-05,0.0010955,7,1
-0.0001024871,0.001213484,7,1
-7.817725e-05,0.001325471,7,1
4.962256e-06,0.001421739,7,1
0.000138342,0.001488672,7,1
0.0002890628,0.001519788,7,1
0.0004096394,0.001512333,7,1
0.0004559901,0.001467117,7,1
0.0004149876,0.001396456,7,1
0.0003080245,0.001323365,7,1
0.000180479,0.0012775,7,1
7.270556e-05,0.001280255,7,1
2.623614e-07,0.001331144,7,1
-4.155049e-05,0.001389487,7,1
-6.634648e-05,0.001392405,7,1
-8.368748e-05,0.0012822,7,1
-0.0001029732,0.00104445,7,1
-0.0001332795,0.0007135121,7,1
-0.0001757406,0.0003504856,7,1
-0.0002178775,2.116879e-05,7,1
-0.0002371633,-0.0002340841,7,1
-0.000221605,-0.0004018217,7,1
-0.0001746061,-0.0004972781,7,1
-0.0001101041,-0.0005499493,7,1
-4.673658e-05,-0.0005881967,7,1
-2.238346e-07,-0.0006304958,7,1
2.603075e-05,-0.0006844635,7,1
3.867184e-05,-0.0007496137,7,1
4.839576e-05,-0.0008139537,7,1
5.99024e-05,-0.0008684076,7,1
6.962632e-05,-0.0009071412,7,1
7.189524e-05,-0.0009273994,7,1
6.281957e-05,-0.0009286959,7,1
4.596478e-05,-0.000916379,7,1
3.073064e-05,-0.0008970932,7,1
2.570662e-05,-0.0008752144,7,1
