EMG1,EMG2,class,user
9.013889e-06,0.0002388225,7,1
7.059871e-05,0.0002088404,7,1
0.0001355869,0.0001773998,7,1
0.0001955511,0.0001459591,7,1
0.0002360674,0.0001166253,7,1
0.0002444948,8.923623e-05,7,1
0.0002182402,6.022653e-05,7,1
0.0001701068,2.424803e-05,7,1
0.0001229458,-1.562004e-05,7,1
9.101894e-05,-5.127441e-05,7,1
6.508849e-05,-7.947377e-05,7,1
2.667901e-05,-0.0001015147,7,1
-3.717473e-05,-0.0001208004,7,1
-0.0001143178,-0.0001433275,7,1
-0.0001844921,-0.0001705545,7,1
-0.000238784,-0.0002031296,7,1
-0.0002791382,-0.0002410529,7,1
-0.0003081479,-0.0002823795,7,1
-0.0003214373,-0.0003230579,7,1
-0.0003081479,-0.0003579019,7,1
-0.0002592042,-0.0003822118,7,1
-0.0001770371,-0.0003945287,7,1
-7.218083e-05,-0.0004003631,7,1
3.721326e-05,-0.0004071698,7,1
0.0001287802,-0.0004204592,7,1
0.0001845306,-0.0004418518,7,1
0.000192796,-0.0004664857,7,1
0.000155683,-0.0004856094,7,1
9.31258e-05,-0.0004977643,7,1
3.056858e-05,-0.0005057055,7,1
-1.62683e-05,-0.0005112157,7,1
-4.722278e-05,-0.0005152673,7,1
-6.845333e-05,-0.0005183466,7,1
-8.40116e-05,-0.0005176983,7,1
-8.676672e-05,-0.0005123502,7,1
-6.261898e-05,-0.0005001953,7,1
-1.173047e-05,-0.0004823681,7,1
3.899597e-05,-0.0004553032,7,1
4.888196e-05,-0.0004178661,7,1
-2.81688e-06,-0.0003707051,7,1
-0.0001044318,-0.0003146305,7,1
-0.0002154466,-0.0002473734,7,1
-0.000293562,-0.0001629374,7,1
-0.0003177098,-5.953974e-05,7,1
-0.0002929138,5.115087e-05,7,1
-0.0002263049,0.0001496866,7,1
-0.0001280934,0.0002141886,7,1
-2.015787e-05,0.0002342847,7,1
6.184718e-05,0.000215161,7,1
8.696731e-05,0.000170431,7,1
5.455425e-05,0.0001112771,7,1
-8.165035e-06,4.45062e-05,7,1
-6.650855e-05,-1.886135e-05,7,1
-0.0001084835,-6.667062e-05,7,1
-0.000147055,-8.644259e-05,7,1
-0.0002024813,-7.914964e-05,7,1
-0.0002776796,-5.111234e-05,7,1
-0.0003536883,-1.399939e-05,7,1
-0.0003984183,2.489629e-05,7,1
-0.0003890185,5.795762e-05,7,1
-0.000333268,8.226741e-05,7,1
-0.0002598524,9.847395e-05,7,1
-0.0001987538,0.0001065772,7,1
-0.0001618029,0.0001028497,7,1
-0.0001376552,8.599492e-05,7,1
-0.0001075111,6.006447e-05,7,1
-6.261898e-05,3.413401e-05,7,1
-1.520357e-06,1.468618e-05,7,1
6.978839e-05,2.855407e-06,7,1
0.0001415833,-2.330684e-06,7,1
0.0002051129,-5.479652e-07,7,1
0.0002478982,1.396819e-06,7,1
0.0002621599,-1.520357e-06,7,1
0.0002472499,-1.173047e-05,7,1
0.0002117576,-2.696461e-05,7,1
0.0001710792,-4.819517e-05,7,1
0.0001433661,-7.023606e-05,7,1
0.0001378558,-8.838737e-05,7,1
0.0001462832,-0.0001013526,7,1
0.0001603829,-0.0001109144,7,1
0.0001741585,-0.0001165867,7,1
0.000185341,-0.0001139937,7,1
0.000185341,-9.584238e-05,7,1
0.000160707,-5.824322e-05,7,1
0.0001077117,-4.275467e-06,7,1
3.040651e-05,6.217132e-05,7,1
-6.06742e-05,0.0001341283,7,1
-0.0001559686,0.000210137,7,1
-0.0002391081,0.000294573,7,1
-0.0002903207,0.0003921364,7,1
-0.0002979378,0.0005046097,7,1
-0.000263742,0.0006206486,7,1
-0.0002010227,0.000718212,7,1
-0.0001300382,0.0007757452,7,1
-7.169464e-05,0.0007840106,7,1
-3.863332e-05,0.0007449528,7,1
-3.506788e-05,0.0006682958,7,1
-5.970181e-05,0.0005644119,7,1
-0.00010978,0.000443187,7,1
-0.0001815749,0.0003156415,7,1
-0.0002645523,0.0001950649,7,1
-0.0003386162,9.701536e-05,7,1
-0.0003854531,2.748934e-05,7,1
-0.0003880461,-1.707863e-05,7,1
-0.0003335922,-4.47918e-05,7,1
-0.0002182017,-6.197072e-05,7,1
-5.532604e-05,-7.347736e-05,7,1
0.0001231079,-8.611845e-05,7,1
0.000277232,-0.0001054042,7,1
0.0003681507,-0.000134576,7,1
0.0003765781,-0.0001784957,7,1
0.0003164518,-0.0002332737,7,1
0.000225209,-0.0002906449,7,1
0.0001451488,-0.0003407231,7,1
0.0001022015,-0.0003776739,7,1
9.847395e-05,-0.0004036044,7,1
0.0001200286,-0.0004212695,7,1
0.0001474177,-0.0004337485,7,1
0.0001586002,-0.0004381243,7,1
0.0001399627,-0.0004279142,7,1
0.0001004187,-0.0004019837,7,1
7.432621e-05,-0.0003637363,7,1
9.069481e-05,-0.000325651,7,1
0.0001354248,-0.0002987481,7,1
0.0001574657,-0.0002901587,7,1
0.0001049566,-0.0003071755,7,1
-2.453363e-05,-0.0003502849,7,1
-0.0001665028,-0.0004068457,7,1
-0.0002335979,-0.0004549791,7,1
-0.0001750923,-0.0004757234,7,1
1.234753e-06,-0.0004650271,7,1
0.0002394708,-0.0004219178,7,1
0.0004650658,-0.0003499608,7,1
0.0006174073,-0.0002580697,7,1
0.0006621373,-0.0001622891,7,1
0.0005987698,-7.688073e-05,7,1
0.0004584211,-5.57199e-06,7,1
0.0002840388,5.406805e-05,7,1
0.0001156529,0.0001070634,7,1
-7.192643e-06,0.000160545,7,1
-5.581224e-05,0.0002128921,7,1
-3.279896e-05,0.0002543808,7,1
3.575467e-05,0.0002762596,7,1
0.0001192183,0.0002793389,7,1
0.0001889064,0.0002660495,7,1
0.0002239125,0.0002401191,7,1
0.0002221298,0.0002073819,7,1
0.0001893926,0.0001739964,7,1
0.0001396385,0.000145797,7,1
8.988449e-05,0.0001297526,7,1
5.633696e-05,0.000130725,7,1
4.82337e-05,0.0001498487,7,1
5.795762e-05,0.000177886,7,1
6.589881e-05,0.0001976579,7,1
5.406805e-05,0.0001882582,7,1
2.829966e-05,0.0001338042,7,1
-1.196227e-06,3.445814e-05,7,1
-2.923353e-05,-9.924574e-05,7,1
-6.116039e-05,-0.000246239,7,1
-0.0001138316,-0.00038286,7,1
-0.0001872472,-0.0004883645,7,1
-0.0002645523,-0.0005531906,7,1
-0.0003264613,-0.0005781487,7,1
-0.000362926,-0.0005646973,7,1
-0.0003664914,-0.0005097571,7,1
-0.0003217614,-0.0003997148,7,1
-0.0002159328,-0.0002305186,7,1
-5.678463e-05,-1.286493e-05,7,1
0.0001253768,0.0002420638,7,1
0.0002931144,0.00052503,7,1
0.0004145014,0.0008308475,7,1
0.0004652279,0.001132289,7,1
0.0004313562,0.001379764,7,1
0.0003180725,0.001526595,7,1
0.0001498487,0.001549446,7,1
-2.712668e-05,0.001464686,7,1
-0.0001562927,0.001320609,7,1
-0.0002003745,0.001169889,7,1
-0.0001627754,0.00104915,7,1
-7.574627e-05,0.0009627688,7,1
1.792748e-05,0.0008887049,7,1
8.226741e-05,0.0008003792,7,1
9.68533e-05,0.0006822334,7,1
5.293359e-05,0.0005318367,7,1
-5.127441e-05,0.0003584268,7,1
-0.0001995642,0.0001806411,7,1
-0.0003600088,1.54965e-05,7,1
-0.0004893369,-0.0001242038,7,1
-0.0005488148,-0.0002303566,7,1
-0.0005279084,-0.0002924276,7,1
-0.0004564377,-0.0003104168,7,1
-0.0003736223,-0.000301017,7,1
-0.0003047445,-0.0002883759,7,1
-0.0002549905,-0.0002972895,7,1
-0.0002123673,-0.000335699,7,1
-0.0001681235,-0.0003985804,7,1
-0.0001188556,-0.0004728062,7,1
-7.428769e-05,-0.0005450874,7,1
-5.548811e-05,-0.000606186,7,1
-6.667062e-05,-0.0006501057,7,1
-9.503204e-05,-0.0006739292,7,1
-0.000122097,-0.0006779809,7,1
-0.0001303623,-0.0006611261,7,1
-0.0001152902,-0.0006206098,7,1
-8.352541e-05,-0.0005611319,7,1
-3.409549e-05,-0.0004916058,7,1
3.073064e-05,-0.0004204592,7,1
9.020862e-05,-0.000355471,7,1
0.000115977,-0.000301017,7,1
9.798775e-05,-0.0002579077,7,1
5.56887e-05,-0.0002235498,7,1
2.003433e-05,-0.0001887058,7,1
9.66215e-06,-0.0001514308,7,1
3.429608e-05,-0.0001156143,7,1
8.437427e-05,-8.547019e-05,7,1
0.0001367214,-6.39155e-05,7,1
0.0001636242,-5.338126e-05,7,1
0.0001529279,-4.997789e-05,7,1
0.0001107909,-4.689865e-05,7,1
5.455425e-05,-3.26369e-05,7,1
7.555301e-06,4.80019e-06,7,1
-1.108221e-05,6.557468e-05,7,1
7.717366e-06,0.0001385041,7,1
5.61749e-05,0.000210137,7,1
0.0001177597,0.0002641047,7,1
0.0001720516,0.0002910076,7,1
0.0002062474,0.0002879283,7,1
0.000217754,0.0002595669,7,1
0.0002122438,0.0002140265,7,1
0.0001986303,0.0001573037,7,1
0.0001777239,8.956036e-05,7,1
0.0001496866,1.582063e-05,7,1
0.0001174356,-5.69467e-05,7,1
8.502253e-05,-0.0001186936,7,1
5.844381e-05,-0.0001616409,7,1
3.445814e-05,-0.0001835197,7,1
9.986281e-06,-0.000186761,7,1
-1.562004e-05,-0.0001723372,7,1
-3.717473e-05,-0.0001481895,7,1
-5.030202e-05,-0.0001204763,7,1
-5.013995e-05,-9.843541e-05,7,1
-4.155049e-05,-8.563225e-05,7,1
-2.84232e-05,-7.963584e-05,7,1
-4.599598e-06,-7.914964e-05,7,1
3.494434e-05,-7.898758e-05,7,1
7.951231e-05,-7.396356e-05,7,1
9.993253e-05,-6.845333e-05,7,1
6.654708e-05,-7.007399e-05,7,1
-2.437157e-05,-8.174268e-05,7,1
-0.0001467309,-9.973194e-05,7,1
-0.0002645523,-0.0001185315,7,1
-0.00033813,-0.0001361966,7,1
-0.0003298647,-0.000149486,7,1
-0.0002219292,-0.0001588858,7,1
-4.90055e-05,-0.0001699062,7,1
0.0001104668,-0.0001822232,7,1
0.0001911753,-0.0001893541,7,1
0.0001785342,-0.0001807646,7,1
0.0001039842,-0.0001530514,7,1
1.322759e-05,-0.0001084835,7,1
-6.359137e-05,-6.294311e-05,7,1
-0.0001125351,-3.620233e-05,7,1
-0.0001425172,-3.717473e-05,7,1
-0.0001630995,-6.326724e-05,7,1
-0.0001825473,-0.0001039456,7,1
-0.0002019951,-0.00015451,7,1
-0.0002186879,-0.0002099363,7,1
-0.0002290601,-0.0002632558,7,1
-0.0002237119,-0.0003074997,7,1
-0.0001911368,-0.0003368335,7,1
-0.0001305243,-0.0003522297,7,1
-5.240886e-05,-0.0003548227,7,1
2.716521e-05,-0.0003452609,7,1
9.523264e-05,-0.0003269475,7,1
0.0001412592,-0.0003042584,7,1
0.0001573037,-0.0002802727,7,1
0.0001462832,-0.0002545043,7,1
0.0001235941,-0.0002230636,7,1
0.0001033359,-0.0001770371,7,1
8.74535e-05,-0.0001110765,7,1
6.881599e-05,-2.550602e-05,7,1
4.288554e-05,6.897806e-05,7,1
1.160693e-05,0.0001563313,7,1
-1.659243e-05,0.0002229401,7,1
-3.134038e-05,0.0002605393,7,1
-3.63644e-05,0.000264753,7,1
-4.43056e-05,0.0002427121,7,1
-6.586029e-05,0.0002065715,7,1
-9.956988e-05,0.0001689724,7,1
-0.0001423551,0.0001409351,7,1
-0.0001844921,0.0001260251,7,1
-0.0002209568,0.0001250527,7,1
-0.0002468872,0.0001385041,7,1
-0.0002559629,0.0001615174,7,1
-0.0002441321,0.0001913374,7,1
-0.0002070192,0.0002229401,7,1
-0.0001473791,0.0002506533,7,1
-7.931171e-05,0.0002720459,7,1
-1.529591e-05,0.0002880904,7,1
4.223728e-05,0.0002974902,7,1
9.814982e-05,0.0002974902,7,1
0.000168162,0.0002885766,7,1
0.0002645909,0.0002743149,7,1
0.0003781987,0.0002632944,7,1
0.0004717105,0.0002532463,7,1
0.0005167646,0.0002428742,7,1
0.0005209784,0.0002329882,7,1
0.0005133613,0.0002243987,7,1
0.0005198439,0.0002179161,7,1
0.0005433434,0.0002140265,7,1
0.0005734875,0.0002159713,7,1
0.0005956905,0.0002222919,7,1
0.000599256,0.0002292607,7,1
0.0005765668,0.0002341226,7,1
0.0005204921,0.0002359054,7,1
0.0004339493,0.0002355812,7,1
0.0003290929,0.0002378501,7,1
0.0002235884,0.0002436845,7,1
0.0001328318,0.000252436,7,1
7.124698e-05,0.0002662116,7,1
4.693717e-05,0.0002890628,7,1
4.758544e-05,0.0003187208,7,1
5.61749e-05,0.0003462718,7,1
5.974033e-05,0.0003592371,7,1
5.828175e-05,0.0003496752,7,1
5.925414e-05,0.000316776,7,1
6.330578e-05,0.0002658874,7,1
6.330578e-05,0.0002065715,7,1
4.547859e-05,0.0001477418,7,1
-1.844488e-06,9.328786e-05,7,1
-7.201877e-05,4.223728e-05,7,1
-0.0001434896,-8.651231e-06,7,1
-0.0002039399,-6.051213e-05,7,1
-0.0002507768,-0.0001088076,7,1
-0.0002818933,-0.0001540238,7,1
-0.0002903207,-0.0002003745,7,1
-0.0002697385,-0.0002486699,7,1
-0.0002253326,-0.0002946965,7,1
-0.0001883817,-0.0003319715,7,1
-0.0001945401,-0.0003557951,7,1
-0.0002522354,-0.000360495,7,1
-0.000343154,-0.0003472056,7,1
-0.0004363416,-0.0003211132,7,1
-0.0005087847,-0.0002888622,7,1
-0.0005473563,-0.0002546664,7,1
-0.0005531906,-0.0002183637,7,1
-0.0005399013,-0.0001822232,7,1
-0.0005270981,-0.0001428413,7,1
-0.0005298533,-9.179074e-05,7,1
-0.0005407116,-1.902341e-05,7,1
-0.0005347152,7.465034e-05,7,1
-0.0004972781,0.00018291,7,1
-0.0004245108,0.0002914938,7,1
-0.0003233821,0.0003846814,7,1
-0.0002058847,0.0004474007,7,1
-8.676672e-05,0.0004728449,7,1
2.003433e-05,0.0004608521,7,1
0.000106091,0.00041596,7,1
0.0001660552,0.0003503235,7,1
0.0001979821,0.0002816078,7,1
0.0001932822,0.000225209,7,1
0.0001487142,0.0001892305,7,1
8.242948e-05,0.0001714034,7,1
2.81376e-05,0.000163138,7,1
1.679302e-05,0.0001490383,7,1
5.763349e-05,0.0001193804,7,1
0.0001385041,7.513654e-05,7,1
0.0002282883,2.408596e-05,7,1
0.0002801492,-2.89094e-05,7,1
0.0002645909,-7.720486e-05,7,1
0.0001916615,-0.0001167488,7,1
9.847395e-05,-0.0001478653,7,1
2.424803e-05,-0.0001707166,7,1
-1.480971e-05,-0.000186761,7,1
-2.437157e-05,-0.000194216,7,1
-1.740276e-05,-0.0001972953,7,1
-7.354709e-06,-0.0001985918,7,1
-8.489166e-06,-0.000199078,7,1
-2.907146e-05,-0.0001976194,7,1
-6.310517e-05,-0.0001912988,7,1
-8.352541e-05,-0.0001806025,7,1
-6.245691e-05,-0.0001652063,7,1
5.124321e-06,-0.0001477033,7,1
9.523264e-05,-0.0001332795,7,1
0.0001816135,-0.000127121,7,1
0.0002466017,-0.0001279313,7,1
0.0002830664,-0.0001276072,7,1
0.0002819319,-0.0001193418,7,1
0.0002373639,-0.0001029732,7,1
0.0001535762,-8.579432e-05,7,1
6.022653e-05,-7.363943e-05,7,1
4.244267e-07,-6.618442e-05,7,1
6.420843e-06,-6.278104e-05,7,1
8.161915e-05,-6.002594e-05,7,1
0.0001986303,-5.69467e-05,7,1
0.0003089969,-5.953974e-05,7,1
0.0003736609,-6.715681e-05,7,1
0.0003851676,-7.882551e-05,7,1
0.0003619922,-9.535618e-05,7,1
0.0003313618,-0.0001180453,7,1
0.0003109416,-0.0001511067,7,1
0.0003114278,-0.0002047502,7,1
0.0003346032,-0.000285945,7,1
0.0003684748,-0.0003888564,7,1
0.0003869503,-0.0004982505,7,1
0.0003616681,-0.0005909518,7,1
0.0002825802,-0.0006494574,7,1
0.000158114,-0.0006700397,7,1
1.144487e-05,-0.0006611261,7,1
-0.0001280934,-0.0006345474,7,1
-0.0002395943,-0.0006039171,7,1
-0.000310741,-0.0005755557,7,1
-0.0003452609,-0.0005494631,7,1
-0.0003543365,-0.0005261258,7,1
-0.0003446126,-0.0005060296,7,1
-0.0003251648,-0.0004856094,7,1
-0.0003097686,-0.0004650271,7,1
-0.0003144685,-0.0004455793,7,1
-0.0003394265,-0.0004173799,7,1
-0.0003666535,-0.0003570916,7,1
-0.0003695707,-0.0002379736,7,1
-0.0003335922,-4.462973e-05,7,1
-0.0002647144,0.0002174299,7,1
-0.0001806025,0.0005240576,7,1
-0.0001062146,0.0008442989,7,1
-6.197072e-05,0.001157085,7,1
-5.662256e-05,0.001457879,7,1
-8.741498e-05,0.001736956,7,1
-0.0001384655,0.001962552,7,1
-0.0001875713,0.002085884,7,1
-0.0002170672,0.002072109,7,1
-0.0002178775,0.001918956,7,1
-0.0001981056,0.001661758,7,1
-0.0001666649,0.001359019,7,1
-0.0001383035,0.001065356,7,1
-0.0001277692,0.00081221,7,1
-0.0001293899,0.0006133557,7,1
-0.0001243659,0.0004713863,7,1
-9.535618e-05,0.0003807918,7,1
-5.111234e-05,0.0003269861,7,1
-2.501983e-05,0.0002908455,7,1
-5.289507e-05,0.000249843,7,1
-0.0001336036,0.0001895547,7,1
-0.0002331117,0.0001156529,7,1
-0.00030831,4.628891e-05,7,1
-0.0003253268,-5.89612e-06,7,1
-0.0002690902,-4.122636e-05,7,1
-0.0001475412,-7.104638e-05,7,1
6.096713e-06,-0.0001075111,7,1
0.000148228,-0.0001580754,7,1
0.0002365536,-0.0002263049,7,1
0.0002519498,-0.0003071755,7,1
0.0002073819,-0.0003932322,7,1
0.0001378558,-0.0004744269,7,1
7.870197e-05,-0.000539091,7,1
4.499239e-05,-0.0005841451,7,1
3.380988e-05,-0.000613641,7,1
3.964424e-05,-0.0006338991,7,1
5.730935e-05,-0.0006481609,7,1
7.546067e-05,-0.0006578848,7,1
9.26396e-05,-0.0006642053,7,1
0.0001216493,-0.0006714982,7,1
0.0001777239,-0.0006804119,7,1
0.0002587566,-0.000683167,7,1
0.0003354135,-0.0006711741,7,1
0.0003762539,-0.0006442713,7,1
0.0003730126,-0.000608617,7,1
0.0003355756,-0.0005708557,7,1
0.0002799871,-0.0005330946,7,1
0.0002229401,-0.0004993849,7,1
0.0001817755,-0.0004710235,7,1
0.0001694586,-0.0004454172,7,1
0.0001902029,-0.0004227281,7,1
0.0002372019,-0.0004008493,7,1
0.0002957075,-0.0003781601,7,1
0.0003412479,-0.0003485022,7,1
0.000349027,-0.0003102548,7,1
0.0003026763,-0.0002653627,7,1
0.0002124059,-0.0002113949,7,1
0.0001148425,-0.0001451102,7,1
4.77475e-05,-7.18567e-05,7,1
2.197911e-05,-7.030578e-06,7,1
1.727922e-05,3.445814e-05,7,1
6.744974e-06,4.223728e-05,7,1
-2.161646e-05,1.841368e-05,7,1
-6.650855e-05,-2.89094e-05,7,1
-0.0001175591,-8.660465e-05,7,1
-0.000161965,-0.0001415448,7,1
-0.0001961608,-0.0001878955,7,1
-0.0002292221,-0.0002251705,7,1
-0.0002778417,-0.0002582318,7,1
-0.0003384541,-0.0002844864,7,1
-0.0003831841,-0.0003026377,7,1
-0.0003810773,-0.0003115513,7,1
-0.0003212752,-0.0003079858,7,1
-0.0002055606,-0.0002896725,7,1
-4.511593e-05,-0.0002543422,7,1
0.0001398006,-0.0002002124,7,1
0.0003067279,-0.0001279313,7,1
0.0004104497,-5.483985e-05,7,1
0.0004352458,-1.367526e-05,7,1
0.0003968363,-3.360929e-05,7,1
0.0003252034,-0.0001149661,7,1
0.0002459534,-0.0002347323,7,1
0.0001744826,-0.0003590364,7,1
0.0001158149,-0.0004642168,7,1
7.432621e-05,-0.0005326084,7,1
4.936815e-05,-0.000554001,7,1
3.737532e-05,-0.0005269361,7,1
4.612685e-05,-0.0004606514,7,1
8.097089e-05,-0.0003664914,7,1
0.0001402868,-0.0002519113,7,1
0.0001984683,-0.0001195039,7,1
0.00022764,2.684107e-05,7,1
0.0002124059,0.0001827479,7,1
0.0001600588,0.0003336308,7,1
8.826383e-05,0.0004662003,7,1
1.9224e-05,0.0005725152,7,1
-3.101625e-05,0.0006530617,7,1
-6.180866e-05,0.0007104329,7,1
-8.563225e-05,0.0007512733,7,1
-0.0001206384,0.0007890346,7,1
-0.0001791439,0.0008378163,7,1
-0.0002643903,0.0008992391,7,1
-0.0003645466,0.0009569344,7,1
-0.0004634065,0.0009809202,7,1
-0.0005397392,0.0009483449,7,1
-0.0005648594,0.0008639088,7,1
-0.0005092709,0.0007537043,7,1
-0.000372974,0.0006498204,7,1
-0.0001964849,0.0005686256,7,1
-3.976777e-05,0.00051012,7,1
5.698522e-05,0.000473007,7,1
9.069481e-05,0.0004474007,7,1
8.631905e-05,0.0004214702,7,1
7.400208e-05,0.0003874365,7,1
6.589881e-05,0.0003469201,7,1
5.390598e-05,0.0003075383,7,1
3.397195e-05,0.0002765838,7,1
2.635488e-05,0.0002487085,7,1
5.633696e-05,0.00021273,7,1
0.0001346145,0.0001618415,7,1
0.0002430362,9.896015e-05,7,1
0.0003499994,3.494434e-05,7,1
0.0004072085,-1.740276e-05,7,1
0.0003801436,-5.240886e-05,7,1
0.0002702632,-6.667062e-05,7,1
0.0001188942,-6.423963e-05,7,1
-2.031993e-05,-5.176061e-05,7,1
-0.0001126972,-3.717473e-05,7,1
-0.0001575893,-2.501983e-05,7,1
-0.0001729855,-1.659243e-05,7,1
-0.0001752544,-9.785688e-06,7,1
-0.0001763888,-6.176923e-08,7,1
-0.0001831956,1.630683e-05,7,1
-0.0001950263,4.35338e-05,7,1
-0.0002096122,7.772959e-05,7,1
-0.0002251705,0.0001104668,7,1
-0.0002342462,0.0001328318,7,1
-0.0002326255,0.0001415833,7,1
-0.0002241981,0.0001427178,7,1
-0.0002152845,0.000148228,7,1
-0.0002031296,0.0001595726,7,1
-0.0001796301,0.0001663793,7,1
-0.0001447861,0.0001466074,7,1
-0.0001086455,8.696731e-05,7,1
-9.227693e-05,-5.57199e-06,7,1
-0.0001115627,-0.0001143178,7,1
-0.0001630995,-0.0002235498,7,1
-0.0002287359,-0.0003224097,7,1
-0.0002880518,-0.0004081422,7,1
-0.0003285682,-0.0004804233,7,1
-0.0003473677,-0.000544115,7,1
-0.0003413713,-0.0006100755,7,1
-0.0003117133,-0.0006862463,7,1
-0.000268766,-0.0007745718,7,1
-0.0002222533,-0.0008650042,7,1
-0.000174282,-0.0009429576,7,1
-0.0001211246,-0.0009964393,7,1
-5.953974e-05,-0.001017832,7,1
7.393236e-06,-0.0009982219,7,1
6.897806e-05,-0.0009337199,7,1
0.0001124116,-0.0008175191,7,1
0.0001344524,-0.0006449196,7,1
0.0001445005,-0.0004191627,7,1
0.0001551968,-0.0001481895,7,1
0.000170431,0.0001553589,7,1
0.0001858272,0.0004770586,7,1
0.0001947408,0.0008032963,7,1
0.0001961994,0.001112517,7,1
0.0001913374,0.001359667,7,1
0.0001735102,0.001485917,7,1
0.0001394765,0.001447669,7,1
9.442231e-05,0.001246546,7,1
5.666109e-05,0.0009361901,7,1
4.888196e-05,0.0005956905,7,1
8.194328e-05,0.0003005694,7,1
0.0001467694,9.21534e-05,7,1
0.0002255332,-1.902341e-05,7,1
0.0002961937,-4.981582e-05,7,1
0.00033671,-2.907146e-05,7,1
0.0003282826,1.193106e-05,7,1
0.0002636185,5.098881e-05,7,1
0.0001587623,7.367795e-05,7,1
4.72613e-05,6.849186e-05,7,1
-3.490581e-05,3.089271e-05,7,1
-6.893953e-05,-3.182657e-05,7,1
-5.710876e-05,-0.0001039456,7,1
-1.643037e-05,-0.00016942,7,1
3.040651e-05,-0.0002151224,7,1
6.476436e-05,-0.0002361909,7,1
7.52986e-05,-0.0002357047,7,1
6.379197e-05,-0.0002230636,7,1
4.369587e-05,-0.0002088019,7,1
3.13789e-05,-0.0001955125,7,1
4.013043e-05,-0.0001831956,7,1
7.319176e-05,-0.000171851,7,1
0.0001177597,-0.0001603444,7,1
0.0001587623,-0.0001499722,7,1
0.0001910133,-0.0001392759,7,1
0.0002094887,-0.0001289037,7,1
0.0002090025,-0.0001190177,7,1
0.0001918236,-0.0001110765,7,1
0.0001714034,-0.000104756,7,1
0.0001689724,-0.0001005423,7,1
0.0001983062,-9.66527e-05,7,1
0.0002564877,-9.162867e-05,7,1
0.0003271482,-8.174268e-05,7,1
0.0003890571,-6.748094e-05,7,1
0.0004245494,-5.483985e-05,7,1
0.0004329769,-4.916756e-05,7,1
0.0004203358,-4.511593e-05,7,1
0.0003960259,-3.620233e-05,7,1
0.0003527545,-2.031993e-05,7,1
0.0002803113,1.558884e-06,7,1
0.0001741585,2.862379e-05,7,1
4.434413e-05,5.536457e-05,7,1
-8.806324e-05,7.643307e-05,7,1
-0.00019924,8.550872e-05,7,1
-0.0002632558,8.194328e-05,7,1
-0.0002593663,6.670914e-05,7,1
-0.0001788198,4.677511e-05,7,1
-3.814712e-05,2.894792e-05,7,1
0.000115977,1.54965e-05,7,1
0.000232502,1.095867e-05,7,1
0.0002843629,1.338965e-05,7,1
0.0002730183,1.906194e-05,7,1
0.0002158093,2.457216e-05,7,1
0.0001323456,2.651694e-05,7,1
3.98063e-05,2.732727e-05,7,1
-4.981582e-05,3.056858e-05,7,1
-0.000132145,3.656499e-05,7,1
-0.0001968091,4.515445e-05,7,1
-0.000238784,5.163707e-05,7,1
-0.0002640662,5.585077e-05,7,1
-0.0002822175,5.487838e-05,7,1
-0.000300855,4.596478e-05,7,1
-0.0003154408,2.684107e-05,7,1
-0.0003237062,2.369211e-06,7,1
-0.0003267854,-2.09682e-05,7,1
-0.0003274337,-3.571614e-05,7,1
-0.0003238683,-3.328516e-05,7,1
-0.0003117133,-1.788895e-05,7,1
-0.0002899966,-3.858999e-07,7,1
-0.0002664971,1.160693e-05,7,1
-0.0002527216,1.59827e-05,7,1
-0.000258718,1.582063e-05,7,1
-0.0002893484,1.452411e-05,7,1
-0.0003452609,9.500085e-06,7,1
-0.000417542,-4.275467e-06,7,1
-0.0004903093,-2.631635e-05,7,1
-0.0005386047,-5.435365e-05,7,1
-0.0005395772,-8.287715e-05,7,1
-0.0004891749,-0.0001079973,7,1
-0.000402632,-0.0001305243,7,1
-0.0003062031,-0.0001512687,7,1
-0.000221605,-0.0001690959,7,1
-0.0001556445,-0.0001815749,7,1
-0.0001011905,-0.0001874093,7,1
-4.689865e-05,-0.0001869231,7,1
9.66215e-06,-0.0001828714,7,1
6.087479e-05,-0.0001780095,7,1
9.247754e-05,-0.0001746061,7,1
9.296373e-05,-0.0001731475,7,1
6.78436e-05,-0.000174444,7,1
3.850978e-05,-0.0001759026,7,1
2.262738e-05,-0.0001770371,7,1
2.39239e-05,-0.0001796301,7,1
3.348575e-05,-0.0001814128,7,1
4.709924e-05,-0.0001820611,7,1
6.897806e-05,-0.0001783336,7,1
0.0001057669,-0.0001665028,7,1
0.0001568175,-0.0001442999,7,1
0.0002104611,-0.0001139937,7,1
0.0002516257,-7.850138e-05,7,1
0.000269777,-4.284701e-05,7,1
0.0002619979,-9.299493e-06,7,1
0.0002321778,1.954813e-05,7,1
0.0001971717,4.499239e-05,7,1
0.0001735102,6.638502e-05,7,1
0.000162976,7.886404e-05,7,1
0.0001623277,8.307774e-05,7,1
0.0001707551,8.405014e-05,7,1
0.0001892305,8.437427e-05,7,1
0.0002161334,8.080883e-05,7,1
0.0002388225,7.367795e-05,7,1
0.000239957,7.20573e-05,7,1
0.0002167816,8.405014e-05,7,1
0.0001835583,0.0001116012,7,1
0.000158114,0.0001519555,7,1
0.0001470936,0.0001989545,7,1
0.0001435281,0.0002472499,7,1
0.0001404489,0.0002901973,7,1
0.0001375317,0.0003187208,7,1
0.0001344524,0.0003240689,7,1
0.0001312112,0.0003028383,7,1
0.000121001,0.0002582704,7,1
9.782569e-05,0.0001979821,7,1
6.525056e-05,0.000130887,7,1
3.218923e-05,6.946425e-05,7,1
-1.196227e-06,2.052053e-05,7,1
-4.041603e-05,-1.383732e-05,7,1
-8.935975e-05,-2.939559e-05,7,1
-0.0001438137,-2.242678e-05,7,1
-0.000191785,1.031041e-05,7,1
-0.0002147983,6.541262e-05,7,1
-0.0001955125,0.0001415833,7,1
-0.0001323071,0.0002360674,7,1
-4.673658e-05,0.0003409237,7,1
2.732727e-05,0.0004363802,7,1
7.043665e-05,0.000500396,7,1
7.740546e-05,0.0005180612,7,1
6.184718e-05,0.0004892136,7,1
5.082674e-05,0.0004261701,7,1
7.221937e-05,0.0003480546,7,1
0.0001349386,0.0002725321,7,1
0.0002205092,0.0002114335,7,1
0.0002940868,0.0001735102,7,1
0.0003229345,0.0001652449,7,1
0.0002947351,0.0001916615,7,1
0.0002125679,0.0002508154,7,1
9.16672e-05,0.0003303894,7,1
-4.576419e-05,0.0004089912,7,1
-0.0001723372,0.0004650658,7,1
-0.000258718,0.0004859722,7,1
-0.0002901587,0.0004666864,7,1
-0.0002697385,0.0004143393,7,1
-0.0002207947,0.0003380065,7,1
-0.0001703924,0.0002459534,7,1
-0.0001400862,0.0001459591,7,1
-0.0001412206,4.142696e-05,7,1
-0.0001752544,-6.197072e-05,7,1
-0.0002324634,-0.0001541859,7,1
-0.0002924276,-0.0002297083,7,1
-0.0003347266,-0.0002883759,7,1
-0.0003465574,-0.0003290543,7,1
-0.0003316474,-0.0003546606,7,1
-0.0003016653,-0.0003713534,7,1
-0.0002746004,-0.0003859393,7,1
-0.0002617972,-0.0004011734,7,1
-0.0002671454,-0.0004149489,7,1
-0.0002833519,-0.0004130042,7,1
-0.0002924276,-0.0003794566,7,1
-0.0002771934,-0.0002998826,7,1
-0.0002378116,-0.000181737,7,1
-0.0001799543,-5.402952e-05,7,1
-0.0001136696,4.077869e-05,7,1
-5.095028e-05,7.157111e-05,7,1
-7.030578e-06,3.543054e-05,7,1
6.744974e-06,-5.159854e-05,7,1
-9.785688e-06,-0.000161965,7,1
-4.43056e-05,-0.0002715212,7,1
-8.222889e-05,-0.0003606571,7,1
-0.0001143178,-0.0004165696,7,1
-0.0001337657,-0.0004412035,7,1
-0.0001233935,-0.0004426621,7,1
-6.132246e-05,-0.0004288866,7,1
5.99024e-05,-0.0004034423,7,1
0.0002185644,-0.0003690845,7,1
0.0003686369,-0.0003272716,7,1
0.0004665244,-0.000283514,7,1
0.0004969927,-0.0002421874,7,1
0.0004772207,-0.0002104225,7,1
0.0004355699,-0.0001898403,7,1
0.000393595,-0.0001765509,7,1
0.0003707437,-0.0001673132,7,1
0.0003754436,-0.0001574272,7,1
0.0003968363,-0.0001462447,7,1
0.0004098015,-0.000134576,7,1
0.0003958639,-0.0001237176,7,1
0.0003585888,-0.0001144799,7,1
0.0003088348,-0.000102325,7,1
0.000252274,-8.547019e-05,7,1
0.0001966855,-6.861539e-05,7,1
0.0001501728,-5.581224e-05,7,1
0.0001172735,-4.884343e-05,7,1
0.0001025256,-4.527799e-05,7,1
0.000106091,-4.576419e-05,7,1
0.000123432,-5.759496e-05,7,1
0.0001394765,-8.919769e-05,7,1
0.0001370455,-0.0001433275,7,1
0.0001179218,-0.0002143121,7,1
9.474644e-05,-0.0002893484,7,1
8.323981e-05,-0.0003497987,7,1
8.080883e-05,-0.000385291,7,1
6.962632e-05,-0.0003938804,7,1
3.429608e-05,-0.0003822118,7,1
-2.437157e-05,-0.0003595226,7,1
-9.114248e-05,-0.000335537,7,1
-0.0001426792,-0.0003130099,7,1
-0.0001618029,-0.0002874036,7,1
-0.000147055,-0.0002501286,7,1
-0.0001094559,-0.0001893541,7,1
-6.197072e-05,-0.0001028112,7,1
-1.821308e-05,-5.479652e-07,7,1
1.54965e-05,0.0001078737,7,1
3.494434e-05,0.0002169437,7,1
3.883391e-05,0.0003264999,7,1
2.910999e-05,0.000435732,7,1
1.387585e-05,0.0005413986,7,1
-1.358292e-06,0.0006399344,7,1
-1.318906e-05,0.0007287462,7,1
-2.761287e-05,0.0008076721,7,1
-5.516398e-05,0.0008801154,7,1
-9.681477e-05,0.0009501277,7,1
-0.000144624,0.00101625,7,1
-0.0001859507,0.001067949,7,1
-0.0002117191,0.00108448,7,1
-0.000223874,0.001042019,7,1
-0.000238946,0.0009310039,7,1
-0.0002724935,0.0007640765,7,1
-0.0003201407,0.0005728393,7,1
-0.0003621157,0.0003944053,7,1
-0.0003768636,0.0002540567,7,1
-0.0003590364,0.0001589243,7,1
-0.0003173856,0.0001044704,7,1
-0.0002663351,7.659513e-05,7,1
-0.0002232257,5.828175e-05,7,1
-0.0002053985,3.640293e-05,7,1
-0.0002217671,3.341602e-06,7,1
-0.000261311,-4.05781e-05,7,1
-0.0003023136,-9.324933e-05,7,1
-0.0003243544,-0.0001507825,7,1
-0.0003136581,-0.0002099363,7,1
-0.0002639041,-0.0002666592,7,1
-0.0001765509,-0.0003099306,7,1
-7.65566e-05,-0.0003365093,7,1
-8.327101e-06,-0.000345585,7,1
-4.437533e-06,-0.0003483401,7,1
-6.229485e-05,-0.0003595226,7,1
-0.0001438137,-0.0003864254,7,1
-0.0001956746,-0.0004271038,7,1
-0.0001781716,-0.0004750752,7,1
-7.18567e-05,-0.0005180225,7,1
0.0001122495,-0.0005458977,7,1
0.0003354135,-0.0005559457,7,1
0.0005368608,-0.0005460597,7,1
0.0006567892,-0.0005183466,7,1
0.0006674855,-0.0004784786,7,1
0.000579646,-0.0004410415,7,1
0.0004378388,-0.0004141386,7,1
0.0002965178,-0.0003969597,7,1
0.0001996027,-0.0003830221,7,1
0.0001611932,-0.0003619536,7,1
0.0001707551,-0.0003266234,7,1
0.0002096508,-0.0002747625,7,1
0.000259729,-0.0002086398,7,1
0.0003028383,-0.0001332795,7,1
0.000324393,-4.932962e-05,7,1
0.0003180725,4.175109e-05,7,1
0.0002851732,0.0001422316,7,1
0.0002329882,0.0002551911,7,1
0.0001725378,0.0003746333,7,1
0.0001214872,0.0004888894,7,1
9.831188e-05,0.0005783495,7,1
0.0001054428,0.0006300483,7,1
0.0001245665,0.000643986,7,1
0.000140773,0.000631669,7,1
0.0001401247,0.0006070351,7,1
0.0001213252,0.0005802943,7,1
8.891209e-05,0.0005545259,7,1
4.677511e-05,0.0005230852,7,1
-1.520357e-06,0.0004798138,7,1
-5.581224e-05,0.0004253598,7,1
-0.0001107524,0.0003675024,7,1
-0.0001611547,0.0003179104,7,1
-0.0001987538,0.0002764217,7,1
-0.0002232257,0.000239957,7,1
-0.0002308428,0.0002034923,7,1
-0.0002196603,0.0001663793,7,1
-0.0001932436,0.000128456,7,1
-0.0001618029,8.518459e-05,7,1
-0.0001365208,3.591673e-05,7,1
-0.0001193418,-1.67545e-05,7,1
-0.0001016767,-6.553616e-05,7,1
-8.336335e-05,-0.0001041077,7,1
-7.18567e-05,-0.0001289037,7,1
-7.995997e-05,-0.0001430034,7,1
-0.0001086455,-0.0001506204,7,1
-0.0001436516,-0.0001549962,7,1
-0.0001702304,-0.0001605064,7,1
-0.0001806025,-0.0001733096,7,1
-0.0001703924,-0.0001951884,7,1
-0.0001436516,-0.0002233878,7,1
-0.0001105903,-0.0002530457,7,1
-9.389759e-05,-0.0002776796,7,1
-0.0001102662,-0.0002943724,7,1
-0.0001571031,-0.0003027998,7,1
-0.0002167431,-0.0003024756,7,1
-0.0002626076,-0.0002963172,7,1
-0.0002758969,-0.0002940482,7,1
-0.000253856,-0.0002972895,7,1
-0.0001977815,-0.000303286,7,1
-0.0001185315,-0.0003057169,7,1
-3.020592e-05,-0.0003002067,7,1
4.645098e-05,-0.0002883759,7,1
9.426025e-05,-0.0002720074,7,1
0.000106091,-0.0002533699,7,1
9.879808e-05,-0.0002340841,7,1
9.717743e-05,-0.0002138259,7,1
0.0001090082,-0.0001924333,7,1
0.0001190562,-0.0001699062,7,1
9.944634e-05,-0.0001480274,7,1
4.256141e-05,-0.0001305243,7,1
-2.777494e-05,-0.0001156143,7,1
-7.039812e-05,-0.0001039456,7,1
-5.743289e-05,-9.551824e-05,7,1
5.124321e-06,-9.146661e-05,7,1
8.956036e-05,-9.114248e-05,7,1
0.000165569,-9.308726e-05,7,1
0.0002128921,-9.114248e-05,7,1
0.0002268297,-8.190475e-05,7,1
0.000217754,-6.618442e-05,7,1
0.0001997648,-4.47918e-05,7,1
0.0001814514,-2.129233e-05,7,1
0.0001558451,3.989864e-06,7,1
0.0001086841,3.089271e-05,7,1
3.624086e-05,5.633696e-05,7,1
-5.159854e-05,7.691926e-05,7,1
-0.0001410586,9.21534e-05,7,1
-0.0002227395,0.0001064152,7,1
-0.0002932379,0.0001214872,7,1
-0.0003416954,0.0001367214,7,1
-0.000355471,0.0001526038,7,1
-0.0003261372,0.000168162,7,1
-0.000258718,0.0001830721,7,1
-0.0001759026,0.0001942546,7,1
-0.0001104282,0.0002030061,7,1
-8.952183e-05,0.0002091646,7,1
-0.0001096179,0.0002141886,7,1
-0.0001293899,0.0002171058,7,1
-9.146661e-05,0.0002187264,7,1
3.283749e-05,0.0002213195,7,1
0.0002227781,0.0002278021,7,1
0.000425846,0.000237526,7,1
0.0005814288,0.0002464396,7,1
0.0006501445,0.0002504913,7,1
0.0006311828,0.0002514636,7,1
0.0005525811,0.0002504913,7,1
0.0004559901,0.0002490327,7,1
0.0003806297,0.0002466017,7,1
0.0003493511,0.0002440086,7,1
0.0003555096,0.0002396328,7,1
0.0003671783,0.0002299089,7,1
0.0003545372,0.0002090025,7,1
0.0003085106,0.0001803169,7,1
0.0002407673,0.0001521176,7,1
0.0001712413,0.0001266733,7,1
0.0001154908,9.912221e-05,7,1
7.805372e-05,6.557468e-05,7,1
5.909208e-05,2.554455e-05,7,1
5.52025e-05,-1.659243e-05,7,1
5.52025e-05,-5.500191e-05,7,1
5.455425e-05,-8.530812e-05,7,1
4.839576e-05,-0.000104918,7,1
3.008238e-05,-0.0001136696,7,1
-7.354709e-06,-0.000112373,7,1
-5.419158e-05,-0.0001028112,7,1
-9.341139e-05,-9.162867e-05,7,1
-0.0001078352,-7.947377e-05,7,1
-9.681477e-05,-6.148453e-05,7,1
-7.833932e-05,-2.7937e-05,7,1
-7.007399e-05,2.408596e-05,7,1
-8.07703e-05,9.458438e-05,7,1
-0.0001052422,0.0001718896,7,1
-0.0001284175,0.0002346088,7,1
-0.0001441378,0.0002621599,7,1
-0.0001548341,0.0002393087,7,1
-0.0001627754,0.0001684862,7,1
-0.0001640719,6.589881e-05,7,1
-0.0001572651,-4.47918e-05,7,1
-0.0001434896,-0.0001397621,7,1
-0.0001323071,-0.0002026434,7,1
-0.0001349001,-0.0002311669,7,1
-0.0001583996,-0.0002340841,7,1
-0.0001989159,-0.0002237119,7,1
-0.0002420253,-0.0002130156,7,1
-0.000278652,-0.0002146363,7,1
-0.0003027998,-0.0002376495,7,1
-0.0003096065,-0.0002793003,7,1
-0.0002985861,-0.0003269475,7,1
-0.0002791382,-0.0003637363,7,1
-0.0002609869,-0.0003760533,7,1
-0.0002532078,-0.0003626019,7,1
-0.0002559629,-0.0003267854,7,1
-0.0002619593,-0.0002703867,7,1
-0.0002630937,-0.0002010227,7,1
-0.000253856,-0.000129714,7,1
-0.0002449425,-7.282909e-05,7,1
-0.0002455907,-4.106429e-05,7,1
-0.0002532078,-3.247483e-05,7,1
-0.0002585559,-3.377136e-05,7,1
-0.0002564491,-3.587821e-05,7,1
-0.0002504527,-3.393342e-05,7,1
-0.0002457528,-2.696461e-05,7,1
-0.0002412149,-1.432352e-05,7,1
-0.0002217671,5.772582e-06,7,1
-0.0001734716,3.721326e-05,7,1
-9.146661e-05,9.21534e-05,7,1
1.630683e-05,0.0001859892,7,1
0.0001292664,0.0003201794,7,1
0.0002198609,0.0004751139,7,1
0.0002754493,0.0006175694,7,1
0.0003033245,0.0007118915,7,1
0.0003198552,0.0007368495,7,1
0.0003342791,0.0006872575,7,1
0.0003464339,0.00057446,7,1
0.0003485408,0.000428277,7,1
0.0003311998,0.0002869559,7,1
0.000294573,0.0001799928,7,1
0.0002464396,0.0001172735,7,1
0.000200251,9.020862e-05,7,1
0.0001675138,7.90261e-05,7,1
0.0001592484,6.444023e-05,7,1
0.000177886,3.251336e-05,7,1
0.0002128921,-1.448558e-05,7,1
0.0002412535,-6.683268e-05,7,1
0.0002295848,-0.0001170729,7,1
0.0001621656,-0.0001622891,7,1
5.61749e-05,-0.0002018331,7,1
-3.053005e-05,-0.0002334358,7,1
-3.766092e-05,-0.0002493182,7,1
4.742337e-05,-0.0002439701,7,1
0.0001786963,-0.000219012,7,1
0.0002854973,-0.000181737,7,1
0.0003180725,-0.0001442999,7,1
0.0002696149,-0.0001141558,7,1
0.000162976,-9.179074e-05,7,1
3.834771e-05,-6.974985e-05,7,1
-6.180866e-05,-3.490581e-05,7,1
-0.0001135075,3.024445e-05,7,1
-0.0001101041,0.0001268354,7,1
-6.650855e-05,0.0002402811,7,1
-9.785688e-06,0.0003467581,7,1
2.538249e-05,0.0004222805,7,1
1.825161e-05,0.0004495075,7,1
-2.566809e-05,0.0004261701,7,1
-7.704279e-05,0.0003662059,7,1
-0.0001060525,0.0002908455,7,1
-0.0001032974,0.0002192126,7,1
-7.056019e-05,0.0001668655,7,1
-1.853722e-05,0.0001331559,7,1
3.672706e-05,0.0001046324,7,1
8.291568e-05,6.362991e-05,7,1
0.0001104668,3.341602e-06,7,1
0.0001130598,-7.412562e-05,7,1
8.46984e-05,-0.0001618029,7,1
2.01964e-05,-0.0002499665,7,1
-8.222889e-05,-0.0003301888,7,1
-0.0002068571,-0.0003974459,7,1
-0.0003180339,-0.0004484965,7,1
-0.0003839945,-0.0004835025,7,1
-0.0003961493,-0.0005042469,7,1
-0.000367788,-0.0005123502,7,1
-0.0003217614,-0.0005138087,7,1
-0.0002797865,-0.0005121881,7,1
-0.000253694,-0.0005057055,7,1
-0.0002436459,-0.0004912817,7,1
-0.0002366771,-0.0004716718,7,1
-0.000223874,-0.0004501171,7,1
-0.0002024813,-0.0004238625,7,1
-0.0001771992,-0.0003916115,7,1
-0.0001541859,-0.0003548227,7,1
-0.0001295519,-0.0003219235,7,1
-9.211487e-05,-0.0002961551,7,1
-3.21507e-05,-0.0002820554,7,1
4.709924e-05,-0.000273628,7,1
0.0001224596,-0.0002592042,7,1
0.0001670276,-0.000219012,7,1
0.0001757791,-0.0001454344,7,1
0.0001639484,-3.733679e-05,7,1
0.0001563313,9.344993e-05,7,1
0.000173024,0.0002282883,7,1
0.0002185644,0.0003469201,7,1
0.0002837146,0.0004318424,7,1
0.0003457857,0.0004663623,7,1
0.0003859779,0.0004478869,7,1
0.0004021844,0.0003840331,7,1
0.0003989431,0.0002905214,7,1
0.0003816021,0.0001867996,7,1
0.0003522683,9.31258e-05,7,1
0.0003086727,2.133085e-05,7,1
0.0002436845,-2.826114e-05,7,1
0.0001547106,-6.731888e-05,7,1
5.325772e-05,-0.0001042698,7,1
-3.474375e-05,-0.0001391138,7,1
-8.773911e-05,-0.0001687718,7,1
-9.503204e-05,-0.0001869231,7,1
-6.472583e-05,-0.0001830335,7,1
-1.740276e-05,-0.0001511067,7,1
2.181705e-05,-9.486997e-05,7,1
3.073064e-05,-3.004385e-05,7,1
9.106227e-07,2.01964e-05,7,1
-5.905355e-05,3.18651e-05,7,1
-0.0001235555,-9.623623e-06,7,1
-0.0001695821,-0.0001050801,7,1
-0.0001823853,-0.0002350565,7,1
-0.0001618029,-0.0003695707,7,1
-0.0001203142,-0.0004804233,7,1
-7.347736e-05,-0.0005447632,7,1
-3.101625e-05,-0.0005476804,7,1
5.772582e-06,-0.0004890127,7,1
4.369587e-05,-0.0003739464,7,1
8.761557e-05,-0.0002102605,7,1
0.0001302388,-1.010982e-05,7,1
0.0001584381,0.000220185,7,1
0.0001673517,0.0004869446,7,1
0.0001545486,0.0008032963,7,1
0.0001153287,0.001170213,7,1
5.406805e-05,0.001554794,7,1
-1.594417e-05,0.001882816,7,1
-7.866345e-05,0.002066274,7,1
-0.0001211246,0.002046016,7,1
-0.0001339277,0.001825282,7,1
-0.0001133454,0.001466631,7,1
-7.056019e-05,0.001061305,7,1
-2.955766e-05,0.0006893643,7,1
-1.318906e-05,0.0004000776,7,1
-2.874733e-05,0.0002062474,7,1
-7.056019e-05,9.831188e-05,7,1
-0.0001266348,5.601284e-05,7,1
-0.0001822232,6.119892e-05,7,1
-0.0002318152,9.912221e-05,7,1
-0.0002729798,0.0001504969,7,1
-0.0003068514,0.0001923098,7,1
-0.0003303509,0.000210137,7,1
-0.0003316474,0.0001895547,7,1
-0.0003057169,0.000130725,7,1
-0.0002569353,4.126489e-05,7,1
-0.0001846542,-6.537409e-05,7,1
-9.017008e-05,-0.0001754164,7,1
1.711715e-05,-0.0002771934,7,1
0.0001125736,-0.000362926,7,1
0.000165569,-0.0004342347,7,1
0.0001636242,-0.000496954,7,1
0.000121001,-0.0005557837,7,1
7.124698e-05,-0.0006131548,7,1
4.304761e-05,-0.0006693914,7,1
4.953022e-05,-0.0007220627,7,1
8.550872e-05,-0.0007648479,7,1
0.0001321835,-0.0007933713,7,1
0.0001678379,-0.0008066607,7,1
0.0001773998,-0.0008035815,7,1
0.0001600588,-0.0007876991,7,1
0.0001216493,-0.0007663065,7,1
6.849186e-05,-0.0007432932,7,1
1.808955e-05,-0.0007212523,7,1
-7.030578e-06,-0.0006949978,7,1
1.241726e-05,-0.0006538332,7,1
7.497447e-05,-0.0005933828,7,1
0.0001579519,-0.0005176983,7,1
0.0002273159,-0.0004392588,7,1
0.0002527602,-0.000370543,7,1
0.0002211574,-0.0003178718,7,1
0.0001441764,-0.0002840002,7,1
4.612685e-05,-0.0002700626,7,1
-4.949169e-05,-0.0002729798,7,1
-0.0001280934,-0.0002799486,7,1
-0.0001823853,-0.0002765452,7,1
-0.0002117191,-0.0002545043,7,1
-0.0002203085,-0.0002146363,7,1
-0.000209126,-0.0001566169,7,1
-0.0001859507,-8.563225e-05,7,1
-0.000166989,-3.465141e-06,7,1
-0.0001618029,8.631905e-05,7,1
-0.0001627754,0.0001788584,7,1
-0.0001515928,0.0002696149,7,1
-0.0001156143,0.0003584268,7,1
-5.159854e-05,0.0004509661,7,1
3.964424e-05,0.0005501501,7,1
0.0001508211,0.000648848,7,1
0.0002579462,0.0007323117,7,1
0.0003158036,0.0007870898,7,1
0.0002950592,0.0008039447,7,1
0.0002015475,0.0007773659,7,1
7.756752e-05,0.0007118915,7,1
-2.291298e-05,0.00061919,7,1
-7.039812e-05,0.0005114165,7,1
-6.780507e-05,0.00040105,7,1
-3.571614e-05,0.0002981384,7,1
7.717366e-06,0.0002140265,7,1
5.56887e-05,0.0001503349,7,1
0.0001033359,9.766362e-05,7,1
0.0001435281,4.839576e-05,7,1
0.000170431,9.106227e-07,7,1
0.000187772,-4.106429e-05,7,1
0.0002159713,-7.120844e-05,7,1
0.0002663737,-8.773911e-05,7,1
0.0003389789,-9.503204e-05,7,1
0.0004132049,-0.0001003802,7,1
0.0004647417,-0.0001101041,7,1
0.0004733311,-0.0001232314,7,1
0.0004345975,-0.0001334415,7,1
0.0003589129,-0.0001340898,7,1
0.0002652392,-0.0001240417,7,1
0.0001691344,-0.0001091317,7,1
8.356394e-05,-9.827335e-05,7,1
1.695509e-05,-9.568031e-05,7,1
-3.377136e-05,-0.0001007043,7,1
-7.963584e-05,-0.0001084835,7,1
-0.0001313347,-0.0001177212,7,1
-0.0001865989,-0.0001276072,7,1
-0.0002381357,-0.0001379794,7,1
-0.0002781658,-0.0001483515,7,1
-0.0003018274,-0.0001574272,7,1
-0.0003097686,-0.0001585616,7,1
-0.0003063652,-0.0001525652,7,1
-0.0002977757,-0.0001475412,7,1
-0.0002916173,-0.0001496481,7,1
-0.0002945344,-0.0001611547,7,1
-0.000305879,-0.0001780095,7,1
-0.0003204649,-0.0001968091,7,1
-0.0003347266,-0.0002097743,7,1
-0.0003485022,-0.0002088019,7,1
-0.0003579019,-0.0001985918,7,1
-0.0003569296,-0.0001877334,7,1
-0.0003389403,-0.0001804405,7,1
-0.0003073376,-0.0001770371,7,1
-0.0002681178,-0.0001783336,7,1
-0.0002229016,-0.0001827094,7,1
-0.0001652063,-0.0001859507,7,1
-9.422172e-05,-0.0001840059,7,1
-2.015787e-05,-0.0001760647,7,1
3.786152e-05,-0.0001648822,7,1
6.314371e-05,-0.000149486,7,1
5.56887e-05,-0.0001285796,7,1
2.732727e-05,-0.0001036215,7,1
-3.627206e-06,-7.769106e-05,7,1
-2.145439e-05,-5.710876e-05,7,1
-1.691656e-05,-4.38194e-05,7,1
1.387585e-05,-3.68506e-05,7,1
7.497447e-05,-3.036798e-05,7,1
0.0001611932,-1.918548e-05,7,1
0.0002538946,-3.951337e-06,7,1
0.0003260137,1.484824e-05,7,1
0.0003483787,3.591673e-05,7,1
0.0003080245,5.747142e-05,7,1
0.0002260194,7.999851e-05,7,1
0.0001479039,0.0001013911,7,1
0.0001106288,0.0001182459,7,1
0.0001235941,0.0001276457,7,1
0.0001649207,0.0001263492,7,1
0.0002033302,0.0001164632,7,1
0.0002218057,0.00010366,7,1
0.0002190506,0.0001005808,7,1
0.0002020337,0.0001130598,7,1
0.0001840444,0.0001420695,7,1
0.0001741585,0.0001777239,7,1
0.0001765894,0.0002107852,7,1
0.0001858272,0.0002378501,7,1
0.0001947408,0.0002556773,7,1
0.0001921477,0.0002668598,7,1
0.0001714034,0.0002744769,7,1
0.0001318594,0.0002835526,7,1
8.032264e-05,0.0002939248,7,1
2.603075e-05,0.0003046211,7,1
-2.404744e-05,0.0003203414,7,1
-6.699475e-05,0.0003402755,7,1
-0.0001068628,0.0003559958,7,1
-0.0001522411,0.0003606957,7,1
-0.0002005366,0.0003529166,7,1
-0.0002368392,0.0003373583,7,1
-0.0002476975,0.0003252034,7,1
-0.0002334358,0.0003221241,7,1
-0.0002075054,0.0003252034,7,1
-0.0001872472,0.0003349273,7,1
-0.0001791439,0.000349027,7,1
-0.0001823853,0.0003640991,7,1
-0.0001888679,0.000373823,7,1
-0.000186761,0.0003723644,7,1
-0.0001736337,0.0003555096,7,1
-0.0001533756,0.0003245551,7,1
-0.0001324691,0.0002856594,7,1
-0.0001219349,0.0002451431,7,1
-0.0001269589,0.0002106232,7,1
-0.0001460826,0.0001864754,7,1
-0.0001755785,0.0001691344,7,1
-0.0002097743,0.0001526038,7,1
-0.0002334358,0.0001289422,7,1
-0.0002358668,9.377406e-05,7,1
-0.0002112329,5.034055e-05,7,1
-0.0001656925,5.124321e-06,7,1
-0.0001079973,-3.571614e-05,7,1
-4.90055e-05,-7.039812e-05,7,1
-7.840905e-06,-9.681477e-05,7,1
2.693341e-06,-0.0001161005,7,1
-1.902341e-05,-0.0001323071,7,1
-5.808115e-05,-0.0001464067,7,1
-9.632857e-05,-0.0001627754,7,1
-0.0001284175,-0.0001851404,7,1
-0.0001551583,-0.0002128535,7,1
-0.000174444,-0.000243808,7,1
-0.0001754164,-0.0002758969,7,1
-0.0001457585,-0.0003049066,7,1
-8.790117e-05,-0.0003266234,7,1
-2.064406e-05,-0.00033813,7,1
3.283749e-05,-0.0003412093,7,1
6.265751e-05,-0.0003386162,7,1
7.789165e-05,-0.0003368335,7,1
9.474644e-05,-0.0003418575,7,1
0.0001171115,-0.0003583881,7,1
0.0001355869,-0.0003893426,7,1
0.0001399627,-0.0004284004,7,1
0.0001313732,-0.0004705373,7,1
0.0001211631,-0.0005063537,7,1
0.0001305629,-0.0005272602,7,1
0.0001772377,-0.0005322842,7,1
0.0002527602,-0.0005253154,7,1
0.0003271482,-0.0005089468,7,1
0.0003726885,-0.000489499,7,1
0.0003822504,-0.0004702132,7,1
0.0003626405,-0.0004506033,7,1
0.0003284447,-0.0004282383,7,1
0.000289387,-0.0004008493,7,1
0.0002490327,-0.000365357,7,1
0.0002148369,-0.0003165753,7,1
0.0001991165,-0.0002498044,7,1
0.0002033302,-0.0001661787,7,1
0.0002187264,-6.780507e-05,7,1
0.0002326641,4.369587e-05,7,1
0.0002347709,0.0001639484,7,1
0.0002219677,0.0002903593,7,1
0.0001960373,0.0004279528,7,1
0.0001637863,0.0005778633,7,1
0.0001300767,0.0007347427,7,1
0.0001020394,0.0008880566,7,1
8.599492e-05,0.001025164,7,1
8.323981e-05,0.001126131,7,1
8.826383e-05,0.001170537,7,1
8.972242e-05,0.00115271,7,1
7.90261e-05,0.001083508,7,1
6.006447e-05,0.0009807581,7,1
4.35338e-05,0.0008548332,7,1
3.818565e-05,0.0007123777,7,1
4.239934e-05,0.0005582534,7,1
4.645098e-05,0.0003953777,7,1
3.60788e-05,0.0002289366,7,1
2.04508e-06,6.281957e-05,7,1
-4.819517e-05,-9.584238e-05,7,1
-0.0001005423,-0.0002342462,7,1
-0.0001384655,-0.000340561,7,1
-0.0001485136,-0.0004117076,7,1
-0.0001287416,-0.0004551412,7,1
-9.2439e-05,-0.0004800992,7,1
-5.451572e-05,-0.0004919299,7,1
-3.166451e-05,-0.0004916058,7,1
-3.231277e-05,-0.0004830164,7,1
-6.116039e-05,-0.0004692408,7,1
-0.0001110765,-0.0004520619,7,1
-0.0001635857,-0.0004306693,7,1
-0.0001984297,-0.000400039,7,1
-0.0002071812,-0.0003533641,7,1
-0.0001961608,-0.0002929138,7,1
-0.0001857886,-0.000231329,7,1
-0.0002000504,-0.0001770371,7,1
-0.0002457528,-0.0001319829,7,1
-0.0003047445,-8.773911e-05,7,1
-0.0003450988,-2.42095e-05,7,1
-0.0003418575,7.189524e-05,7,1
-0.0002901587,0.000195389,7,1
-0.0002042641,0.0003274723,7,1
-0.0001126972,0.0004394595,7,1
-3.830919e-05,0.0005068787,7,1
1.484824e-05,0.0005195198,7,1
5.374392e-05,0.0004864584,7,1
8.097089e-05,0.0004263322,7,1
9.085688e-05,0.0003553475,7,1
7.983644e-05,0.0002798251,7,1
5.1475e-05,0.0002049509,7,1
1.501031e-05,0.0001354248,7,1
-2.031993e-05,7.789165e-05,7,1
-4.754691e-05,3.510641e-05,7,1
-5.953974e-05,1.193106e-05,7,1
-4.527799e-05,1.533444e-05,7,1
-2.978945e-06,4.483033e-05,7,1
5.56887e-05,8.291568e-05,7,1
0.0001107909,0.0001064152,7,1
0.0001404489,9.474644e-05,7,1
0.0001318594,3.899597e-05,7,1
8.810177e-05,-5.240886e-05,7,1
2.311357e-05,-0.000159534,7,1
-4.544006e-05,-0.0002643903,7,1
-9.989401e-05,-0.0003553089,7,1
-0.0001305243,-0.0004251591,7,1
-0.0001353863,-0.0004713477,7,1
-0.000119828,-0.0004948471,7,1
-8.44978e-05,-0.0005057055,7,1
-3.312309e-05,-0.0005097571,7,1
2.505836e-05,-0.0005107295,7,1
7.886404e-05,-0.0005078124,7,1
0.0001218114,-0.0005040849,7,1
0.0001540623,-0.0004998712,7,1
0.0001752929,-0.0004941989,7,1
0.0001866375,-0.0004856094,7,1
0.0001897167,-0.0004758855,7,1
0.0001859892,-0.0004635685,7,1
0.0001773998,-0.0004415277,7,1
0.0001699448,-0.000407656,7,1
0.0001652449,-0.0003645466,7,1
0.0001574657,-0.0003167374,7,1
0.0001420695,-0.000268766,7,1
0.0001221355,-0.0002227395,7,1
9.53947e-05,-0.0001780095,7,1
5.860588e-05,-0.0001324691,7,1
1.517237e-05,-8.141856e-05,7,1
-3.279896e-05,-1.902341e-05,7,1
-8.709085e-05,5.779555e-05,7,1
-0.0001460826,0.0001466074,7,1
-0.0001976194,0.0002376881,7,1
-0.0002156086,0.0003128864,7,1
-0.0001794681,0.0003598854,7,1
-9.211487e-05,0.0003741471,7,1
1.889987e-05,0.0003598854,7,1
0.0001229458,0.0003234207,7,1
0.0001937684,0.0002773941,7,1
0.0002120818,0.0002360674,7,1
0.0001803169,0.0002034923,7,1
0.0001219734,0.0001785342,7,1
6.46023e-05,0.000160545,7,1
2.797553e-05,0.0001501728,7,1
1.906194e-05,0.0001542244,7,1
2.635488e-05,0.0001759412,7,1
2.862379e-05,0.0002137024,7,1
8.041497e-06,0.0002581083,7,1
-4.511593e-05,0.0002989488,7,1
-0.0001216107,0.0003269861,7,1
-0.000196647,0.0003358997,7,1
-0.0002459149,0.0003255275,7,1
-0.0002535319,0.000297004,7,1
-0.0002183637,0.0002563256,7,1
-0.000161965,0.0002013854,7,1
-0.0001118868,0.0001305629,7,1
-8.174268e-05,4.790957e-05,7,1
-6.942573e-05,-3.701266e-05,7,1
-5.970181e-05,-0.0001139937,7,1
-4.43056e-05,-0.0001677994,7,1
-2.307504e-05,-0.0001927574,7,1
-7.840905e-06,-0.0001878955,7,1
-6.868513e-06,-0.0001618029,7,1
-2.323711e-05,-0.0001240417,7,1
-5.289507e-05,-8.44978e-05,7,1
-8.628052e-05,-4.284701e-05,7,1
-0.0001110765,2.855407e-06,7,1
-0.0001185315,5.649903e-05,7,1
-0.0001107524,0.0001190562,7,1
-9.405965e-05,0.0001816135,7,1
-8.206682e-05,0.0002287745,7,1
-8.482193e-05,0.0002478982,7,1
-0.0001075111,0.0002273159,7,1
-0.0001442999,0.0001671896,7,1
-0.000186761,7.659513e-05,7,1
-0.0002241981,-2.518189e-05,7,1
-0.0002478596,-0.0001190177,7,1
-0.0002507768,-0.0001877334,7,1
-0.0002350565,-0.0002199844,7,1
-0.0002050744,-0.0002107467,7,1
-0.0001671511,-0.0001684476,7,1
-0.0001269589,-0.0001076731,7,1
-8.644259e-05,-4.673658e-05,7,1
-4.252288e-05,-1.844488e-06,7,1
1.883015e-06,2.538249e-05,7,1
4.564065e-05,3.964424e-05,7,1
9.523264e-05,5.001642e-05,7,1
0.0001516314,6.055066e-05,7,1
0.000207706,7.335383e-05,7,1
0.0002472499,9.507057e-05,7,1
0.0002621599,0.0001269974,7,1
0.0002547049,0.0001645966,7,1
0.0002316917,0.0001932822,7,1
0.0002044647,0.0002000889,7,1
0.0001783722,0.0001812893,7,1
0.0001595726,0.0001479039,7,1
0.0001594105,0.0001112771,7,1
0.0001895547,8.242948e-05,7,1
0.0002415777,6.314371e-05,7,1
0.0002880904,4.547859e-05,7,1
0.0002984626,2.197911e-05,7,1
0.000259891,-7.030578e-06,7,1
0.0001867996,-3.798505e-05,7,1
0.0001106288,-6.504996e-05,7,1
6.071273e-05,-8.012204e-05,7,1
4.855783e-05,-8.125649e-05,7,1
6.962632e-05,-6.829127e-05,7,1
0.0001094944,-4.090223e-05,7,1
0.0001634622,-4.437533e-06,7,1
0.0002321778,3.478228e-05,7,1
0.0003083486,6.946425e-05,7,1
0.0003696093,9.361199e-05,7,1
0.0003953777,0.0001054428,7,1
0.0003814401,0.0001047945,7,1
0.000331686,9.733949e-05,7,1
0.0002587566,9.150514e-05,7,1
0.0001765894,9.101894e-05,7,1
9.733949e-05,9.652917e-05,7,1
2.878586e-05,0.0001062531,7,1
-2.09682e-05,0.000118408,7,1
-4.90055e-05,0.0001276457,7,1
-4.932962e-05,0.0001326697,7,1
-2.696461e-05,0.0001310491,7,1
1.883015e-06,0.0001195424,7,1
1.9224e-05,9.798775e-05,7,1
1.014835e-05,7.043665e-05,7,1
-2.728874e-05,4.191315e-05,7,1
-7.428769e-05,1.582063e-05,7,1
-0.0001055663,-3.951337e-06,7,1
-0.0001151281,-1.837515e-05,7,1
-0.0001104282,-2.7937e-05,7,1
-0.0001091317,-3.198864e-05,7,1
-0.0001245279,-2.89094e-05,7,1
-0.000161965,-1.740276e-05,7,1
-0.0002143121,1.720949e-06,7,1
-0.0002652006,2.878586e-05,7,1
-0.0002997205,5.909208e-05,7,1
-0.0003201407,8.826383e-05,7,1
-0.0003326198,0.0001062531,7,1
-0.0003329439,0.0001073875,7,1
-0.0003003688,9.344993e-05,7,1
-0.0002220912,6.719535e-05,7,1
-0.0001165867,3.235129e-05,7,1
-2.874733e-05,-4.599598e-06,7,1
1.720949e-06,-3.733679e-05,7,1
-3.26369e-05,-6.294311e-05,7,1
-0.0001149661,-8.044617e-05,7,1
-0.0002203085,-8.644259e-05,7,1
-0.0003327818,-8.303922e-05,7,1
-0.0004361795,-7.785312e-05,7,1
-0.0005031124,-7.671866e-05,7,1
-0.0005042469,-8.158062e-05,7,1
-0.0004267797,-9.357346e-05,7,1
-0.0002856209,-0.0001144799,7,1
-0.0001295519,-0.0001394379,7,1
-1.772689e-05,-0.0001624512,7,1
1.063454e-05,-0.0001789819,7,1
-4.43056e-05,-0.0001903264,7,1
-0.0001475412,-0.0002013469,7,1
-0.0002540181,-0.0002131776,7,1
-0.0003287302,-0.0002248464,7,1
-0.0003496366,-0.0002331117,7,1
-0.0003086341,-0.0002347323,7,1
-0.0002039399,-0.0002305186,7,1
-5.370539e-05,-0.000223874,7,1
0.0001077117,-0.0002154466,7,1
0.0002360674,-0.0002057227,7,1
0.0002984626,-0.0001927574,7,1
0.0002885766,-0.0001749302,7,1
0.0002271538,-0.0001541859,7,1
0.0001469315,-0.0001350622,7,1
8.518459e-05,-0.0001230693,7,1
6.962632e-05,-0.0001216107,7,1
0.0001057669,-0.0001255003,7,1
0.0001759412,-0.0001287416,7,1
0.0002504913,-0.0001248521,7,1
0.0003073762,-0.0001162626,7,1
0.0003321722,-0.0001092938,7,1
0.0003229345,-0.0001060525,7,1
0.0002879283,-0.0001050801,7,1
0.0002435224,-0.0001013526,7,1
0.0002033302,-8.773911e-05,7,1
0.0001751309,-6.375344e-05,7,1
0.0001602208,-3.522994e-05,7,1
0.0001595726,-4.113403e-06,7,1
0.0001615174,2.781346e-05,7,1
0.0001537382,5.504044e-05,7,1
0.0001398006,7.400208e-05,7,1
0.0001304008,8.210535e-05,7,1
0.0001351007,7.918817e-05,7,1
0.0001560072,7.189524e-05,7,1
0.000185341,6.395404e-05,7,1
0.0002156472,6.217132e-05,7,1
0.0002427121,6.914012e-05,7,1
0.0002681563,8.178122e-05,7,1
0.0002952213,9.652917e-05,7,1
0.0003261758,0.0001098185,7,1
0.0003655576,0.0001211631,7,1
0.0004187151,0.0001289422,7,1
0.0004840274,0.0001325077,7,1
0.0005443158,0.0001341283,7,1
0.0005752703,0.0001398006,7,1
0.0005676532,0.0001517934,7,1
0.0005310264,0.0001671896,7,1
0.0004762483,0.0001838824,7,1
0.0004018603,0.0001965235,7,1
0.0003064038,0.0002107852,7,1
0.0001945787,0.0002402811,7,1
7.708133e-05,0.0002863077,7,1
-3.425755e-05,0.0003381686,7,1
-0.0001267968,0.0003827366,7,1
-0.0001927574,0.0004125566,7,1
-0.0002370013,0.0004204978,7,1
-0.0002689281,0.0004021844,7,1
-0.0003052308,0.000353889,7,1
-0.000360333,0.0002829043,7,1
-0.0004332623,0.000202682,7,1
-0.0005042469,0.0001286181,7,1
-0.0005486528,6.768154e-05,7,1
-0.0005599973,1.889987e-05,7,1
-0.0005463839,-2.372331e-05,7,1
-0.0005219121,-6.342931e-05,7,1
-0.0004890127,-0.0001028112,7,1
-0.0004468758,-0.0001391138,7,1
-0.00039777,-0.00016942,7,1
-0.0003517435,-0.000191785,7,1
-0.0003160891,-0.0002062088,7,1
-0.0002946965,-0.0002112329,7,1
-0.0002869174,-0.000201671,7,1
-0.0002833519,-0.0001741199,7,1
-0.0002733039,-0.0001310105,7,1
-0.0002455907,-7.444975e-05,7,1
-0.0001911368,-8.975362e-06,7,1
-0.0001089697,5.860588e-05,7,1
-1.513384e-05,0.0001172735,7,1
6.314371e-05,0.0001574657,7,1
0.0001072255,0.0001761032,7,1
0.000113546,0.0001783722,7,1
9.004655e-05,0.000177886,7,1
5.52025e-05,0.000187934,7,1
2.748934e-05,0.0002111094,7,1
1.306552e-05,0.0002339606,7,1
1.144487e-05,0.0002373639,7,1
2.100672e-05,0.0002119197,7,1
3.721326e-05,0.0001587623,7,1
5.260946e-05,8.437427e-05,7,1
6.200925e-05,5.86492e-07,7,1
6.46023e-05,-7.866345e-05,7,1
6.476436e-05,-0.0001412206,7,1
6.589881e-05,-0.0001771992,7,1
6.379197e-05,-0.0001854645,7,1
5.066468e-05,-0.0001733096,7,1
2.81376e-05,-0.00015451,7,1
5.286387e-06,-0.0001373311,7,1
-2.492749e-06,-0.0001233935,7,1
1.565857e-05,-0.0001110765,7,1
4.807163e-05,-9.940781e-05,7,1
7.319176e-05,-8.919769e-05,7,1
7.853991e-05,-8.109443e-05,7,1
7.221937e-05,-7.850138e-05,7,1
7.270556e-05,-7.995997e-05,7,1
8.534666e-05,-8.239095e-05,7,1
9.847395e-05,-7.833932e-05,7,1
9.620504e-05,-6.553616e-05,7,1
6.557468e-05,-4.252288e-05,7,1
3.179537e-06,-1.270286e-05,7,1
-7.866345e-05,1.695509e-05,7,1
-0.0001579134,4.175109e-05,7,1
-0.0002113949,5.860588e-05,7,1
-0.0002298704,6.606088e-05,7,1
-0.0002194982,6.152305e-05,7,1
-0.0001977815,4.369587e-05,7,1
-0.0001731475,1.501031e-05,7,1
-0.0001512687,-1.99958e-05,7,1
-0.0001323071,-5.532604e-05,7,1
-0.0001144799,-8.660465e-05,7,1
-9.940781e-05,-0.0001109144,7,1
-8.773911e-05,-0.0001230693,7,1
-8.093236e-05,-0.0001204763,7,1
-7.282909e-05,-0.0001044318,7,1
-5.759496e-05,-7.963584e-05,7,1
-2.907146e-05,-4.770897e-05,7,1
1.484824e-05,-8.813297e-06,7,1
7.011252e-05,3.575467e-05,7,1
0.0001224596,8.42122e-05,7,1
0.0001511452,0.0001362352,7,1
0.0001568175,0.0001924718,7,1
0.0001676758,0.0002519498,7,1
0.00021273,0.0003088348,7,1
0.0002950592,0.0003469201,7,1
0.0003853296,0.0003521062,7,1
0.0004404318,0.0003234207,7,1
0.0004256839,0.0002662116,7,1
0.0003355756,0.0001908512,7,1
0.0001892305,0.0001104668,7,1
2.39239e-05,3.672706e-05,7,1
-0.0001154523,-1.691656e-05,7,1
-0.0001987538,-5.013995e-05,7,1
-0.0002160948,-7.169464e-05,7,1
-0.0001762268,-9.357346e-05,7,1
-0.0001050801,-0.0001199901,7,1
-3.604027e-05,-0.0001477033,7,1
1.558884e-06,-0.0001720131,7,1
2.369211e-06,-0.0001951884,7,1
-7.840905e-06,-0.0002258187,7,1
-6.176923e-08,-0.0002690902,7,1
4.985435e-05,-0.0003204649,7,1
0.0001435281,-0.0003720016,7,1
0.0002616738,-0.0004105732,7,1
0.0003668542,-0.0004241867,7,1
0.0004182289,-0.0004021458,7,1
0.0003914881,-0.0003470436,7,1
0.0002952213,-0.0002746004,7,1
0.0001587623,-0.0002028055,7,1
2.473423e-05,-0.0001431655,7,1
-7.380149e-05,-0.000104918,7,1
-0.0001255003,-9.681477e-05,7,1
-0.0001318209,-0.0001130213,7,1
-0.0001029732,-0.0001355484,7,1
-5.532604e-05,-0.0001481895,7,1
-7.840905e-06,-0.0001441378,7,1
2.894792e-05,-0.0001264727,7,1
5.374392e-05,-9.746302e-05,7,1
6.573675e-05,-5.791909e-05,7,1
6.492643e-05,-8.975362e-06,7,1
4.72613e-05,4.418206e-05,7,1
1.387585e-05,8.858796e-05,7,1
-2.615429e-05,0.000111115,7,1
-6.521203e-05,0.0001038221,7,1
-0.0001016767,6.768154e-05,7,1
-0.0001389517,1.679302e-05,7,1
-0.0001775233,-2.826114e-05,7,1
-0.0002070192,-4.997789e-05,7,1
-0.0002113949,-4.236082e-05,7,1
-0.0001801163,-3.465141e-06,7,1
-0.0001203142,5.439218e-05,7,1
-4.90055e-05,0.0001116012,7,1
1.614476e-05,0.0001526038,7,1
6.298164e-05,0.0001678379,7,1
8.79397e-05,0.0001576278,7,1
9.588091e-05,0.000130887,7,1
9.555677e-05,0.0001049566,7,1
9.490851e-05,9.296373e-05,7,1
9.620504e-05,0.000106091,7,1
8.972242e-05,0.0001469315,7,1
5.99024e-05,0.0002073819,7,1
2.04508e-06,0.0002733424,7,1
-7.23429e-05,0.0003311998,7,1
-0.0001430034,0.0003781987,7,1
-0.0001906506,0.0004198496,7,1
-0.0002083157,0.0004563143,7,1
-0.0002086398,0.0004801379,7,1
-0.0002104225,0.0004833792,7,1
-0.0002207947,0.0004653899,7,1
-0.0002334358,0.0004313562,7,1
-0.0002381357,0.0003871123,7,1
-0.0002258187,0.0003380065,7,1
-0.0001859507,0.0002885766,7,1
-0.0001084835,0.0002402811,7,1
-2.006553e-06,0.0001945787,7,1
0.0001128978,0.0001561692,7,1
0.0002093267,0.0001242423,7,1
0.0002676702,9.53947e-05,7,1
0.0002817699,6.751948e-05,7,1
0.0002561635,4.369587e-05,7,1
0.0002036544,2.878586e-05,7,1
0.0001420695,2.311357e-05,7,1
9.16672e-05,2.359977e-05,7,1
6.103686e-05,2.76514e-05,7,1
4.223728e-05,3.283749e-05,7,1
2.327564e-05,3.656499e-05,7,1
-6.220252e-06,3.332369e-05,7,1
-4.868137e-05,1.97102e-05,7,1
-0.000102325,-5.409925e-06,7,1
-0.0001627754,-3.68506e-05,7,1
-0.0002188499,-6.861539e-05,7,1
-0.0002616352,-9.535618e-05,7,1
-0.0002921034,-0.0001180453,7,1
-0.0003159271,-0.0001357104,7,1
-0.0003303509,-0.0001467309,7,1
-0.0003190063,-0.0001511067,7,1
-0.0002729798,-0.0001491618,7,1
-0.0002018331,-0.0001434896,7,1
-0.000127283,-0.0001383035,7,1
-7.428769e-05,-0.000137007,7,1
-5.937768e-05,-0.0001323071,7,1
-8.303922e-05,-0.0001109144,7,1
-0.0001242038,-7.250496e-05,7,1
-0.0001506204,-3.231277e-05,7,1
-0.0001423551,-1.837515e-05,7,1
-9.973194e-05,-4.754691e-05,7,1
-3.733679e-05,-0.0001217728,7,1
2.732727e-05,-0.0002267911,7,1
7.918817e-05,-0.0003446126,7,1
0.0001026876,-0.0004585445,7,1
9.782569e-05,-0.0005533527,7,1
8.097089e-05,-0.0006188271,7,1
6.849186e-05,-0.0006518884,7,1
6.200925e-05,-0.000658371,7,1
4.661304e-05,-0.0006473506,7,1
6.096713e-06,-0.0006223925,7,1
-6.0188e-05,-0.0005857658,7,1
-0.0001387897,-0.0005405495,7,1
-0.0002023193,-0.0004950092,7,1
-0.0002233878,-0.0004614617,7,1
-0.0001835197,-0.0004486585,7,1
-8.871149e-05,-0.0004559515,7,1
3.397195e-05,-0.0004773441,7,1
0.0001524417,-0.0005021401,7,1
0.0002438466,-0.0005230465,7,1
0.0003064038,-0.000539091,7,1
0.000349027,-0.0005408737,7,1
0.0003840331,-0.0005219121,7,1
0.0004204978,-0.0004797751,7,1
0.000458097,-0.0004096008,7,1
0.000482893,-0.000313334,7,1
0.0004858102,-0.0001971332,7,1
0.0004707381,-6.991193e-05,7,1
0.0004423766,5.795762e-05,7,1
0.0004023465,0.0001715654,7,1
0.0003409237,0.0002587566,7,1
0.0002561635,0.0003222862,7,1
0.0001563313,0.000378847,7,1
5.56887e-05,0.0004467524,7,1
-3.085418e-05,0.0005354022,7,1
-9.713889e-05,0.0006355586,7,1
-0.0001383035,0.0007287462,7,1
-0.000152079,0.0007938966,7,1
-0.0001336036,0.0008130203,7,1
-7.55842e-05,0.0007772038,7,1
2.489629e-05,0.0006888782,7,1
0.0001514693,0.0005546879,7,1
0.0002744769,0.0003916502,7,1
0.0003660439,0.0002182402,7,1
0.0004156358,4.953022e-05,7,1
0.0004298976,-9.811128e-05,7,1
0.0004227667,-0.0002050744,7,1
0.0004025085,-0.000261149,7,1
0.0003631267,-0.0002588801,7,1
0.0002948972,-0.0001943781,7,1
0.0002067336,-6.893953e-05,7,1
0.0001163011,0.0001081979,7,1
3.640293e-05,0.0003276344,7,1
-2.599222e-05,0.0005793219,7,1
-7.688073e-05,0.000859533,7,1
-0.0001269589,0.001156761,7,1
-0.0001784957,0.0014407,7,1
-0.0002219292,0.001658355,7,1
-0.0002523975,0.001750732,7,1
-0.0002630937,0.001684933,7,1
-0.0002475355,0.001471006,7,1
-0.0002079916,0.001162758,7,1
-0.0001549962,0.0008316578,7,1
-9.843541e-05,0.0005381573,7,1
-4.511593e-05,0.000314345,7,1
-1.844488e-06,0.0001603829,7,1
2.424803e-05,6.006447e-05,7,1
2.084466e-05,-7.030578e-06,7,1
-2.226472e-05,-5.613637e-05,7,1
-0.0001036215,-9.454585e-05,7,1
-0.0002079916,-0.0001267968,7,1
-0.0003097686,-0.0001554824,7,1
-0.0003846427,-0.000184168,7,1
-0.0004177041,-0.0002173914,7,1
-0.0004083043,-0.0002556388,7,1
-0.0003627639,-0.0002946965,7,1
-0.0002955068,-0.0003285682,7,1
-0.0002293842,-0.0003517435,7,1
-0.0001849783,-0.0003551469,7,1
-0.0001733096,-0.0003297026,7,1
-0.0001898403,-0.000273628,7,1
-0.0002186879,-0.0001956746,7,1
-0.000243808,-0.0001096179,7,1
-0.0002575835,-3.474375e-05,7,1
-0.0002609869,1.12828e-05,7,1
-0.0002605007,1.808955e-05,7,1
-0.0002601766,-1.335113e-05,7,1
-0.0002645523,-7.169464e-05,7,1
-0.0002694143,-0.0001428413,7,1
-0.0002721694,-0.0002146363,7,1
-0.0002775176,-0.0002801106,7,1
-0.0002857829,-0.0003361852,7,1
-0.0002919414,-0.0003799429,7,1
-0.0002836761,-0.0004113835,7,1
-0.0002546664,-0.0004334244,7,1
-0.0002037779,-0.0004509274,7,1
-0.0001358725,-0.0004681064,7,1
-5.953974e-05,-0.0004830164,7,1
1.64689e-05,-0.0004919299,7,1
8.615699e-05,-0.0004948471,7,1
0.0001438522,-0.0004912817,7,1
0.0001858272,-0.0004784786,7,1
0.0002135403,-0.0004587066,7,1
0.0002342847,-0.0004397449,7,1
0.0002590807,-0.00042759,7,1
0.0002987867,-0.0004198109,7,1
0.0003553475,-0.0004104111,7,1
0.0004219564,-0.0003979321,7,1
0.0004858102,-0.0003836704,7,1
0.0005339436,-0.0003685983,7,1
0.0005527431,-0.0003488263,7,1
0.0005332953,-0.0003228959,7,1
0.0004790034,-0.0002943724,7,1
0.0003974845,-0.0002671454,7,1
0.000299597,-0.0002415391,7,1
0.0002025199,-0.000213988,7,1
0.0001222976,-0.000184168,7,1
6.800567e-05,-0.0001536997,7,1
4.272347e-05,-0.0001199901,7,1
4.693717e-05,-8.482193e-05,7,1
6.768154e-05,-5.013995e-05,7,1
7.853991e-05,-2.177852e-05,7,1
5.698522e-05,9.106227e-07,7,1
-6.220252e-06,2.230325e-05,7,1
-0.0001055663,4.483033e-05,7,1
-0.0002263049,7.027458e-05,7,1
-0.0003397507,9.652917e-05,7,1
-0.0004112214,0.0001221355,7,1
-0.0004206212,0.0001453108,7,1
-0.0003767015,0.0001598967,7,1
-0.0003104168,0.0001650828,7,1
-0.0002569353,0.0001639484,7,1
-0.0002340841,0.0001636242,7,1
-0.0002408908,0.0001667035,7,1
-0.0002622834,0.0001749688,7,1
-0.0002793003,0.0001863134,7,1
-0.0002801106,0.0001958752,7,1
-0.0002666592,0.000200251,7,1
-0.0002408908,0.0001986303,7,1
-0.000209126,0.0001924718,7,1
-0.0001729855,0.00018291,7,1
-0.0001340898,0.0001692965,7,1
-9.956988e-05,0.0001535762,7,1
-8.174268e-05,0.00013818,7,1
-8.676672e-05,0.0001242423,7,1
-0.0001068628,0.0001119254,7,1
-0.0001258245,0.0001039842,7,1
-0.000127283,0.0001013911,7,1
-0.0001081593,0.0001005808,7,1
-7.363943e-05,9.782569e-05,7,1
-3.166451e-05,9.231547e-05,7,1
1.387585e-05,8.502253e-05,7,1
6.719535e-05,7.432621e-05,7,1
0.0001365593,5.844381e-05,7,1
0.0002303951,3.899597e-05,7,1
0.0003475684,1.889987e-05,7,1
0.0004715484,2.04508e-06,7,1
0.000574622,-1.286493e-05,7,1
0.0006396103,-2.42095e-05,7,1
0.0006682958,-3.26369e-05,7,1
0.0006794783,-4.025397e-05,7,1
0.0006906608,-4.706071e-05,7,1
0.0007104329,-5.159854e-05,7,1
0.0007417115,-5.176061e-05,7,1
0.000780121,-4.770897e-05,7,1
0.0008133444,-3.944364e-05,7,1
0.0008193408,-3.150244e-05,7,1
0.0007791486,-2.923353e-05,7,1
0.0006770474,-3.522994e-05,7,1
0.0005140096,-4.706071e-05,7,1
0.0003185587,-6.245691e-05,7,1
0.0001339663,-7.688073e-05,7,1
6.582909e-06,-8.725291e-05,7,1
-5.046408e-05,-9.179074e-05,7,1
-4.981582e-05,-9.146661e-05,7,1
-1.335113e-05,-9.276313e-05,7,1
4.483033e-05,-9.989401e-05,7,1
0.0001185701,-0.00010978,7,1
0.0002083542,-0.0001183694,7,1
0.000309483,-0.0001276072,7,1
0.00040105,-0.0001379794,7,1
0.0004480489,-0.0001475412,7,1
0.0004188772,-0.0001509446,7,1
0.0003072141,-0.0001467309,7,1
0.0001368834,-0.0001383035,7,1
-4.80331e-05,-0.0001310105,7,1
-0.000209126,-0.0001302002,7,1
-0.0003215994,-0.0001323071,7,1
-0.000377836,-0.0001327933,7,1
-0.0003904771,-0.0001259865,7,1
-0.000387884,-0.0001081593,7,1
-0.0003898288,-7.914964e-05,7,1
-0.0003899909,-4.009191e-05,7,1
-0.0003676259,7.879432e-06,7,1
-0.0003125237,5.763349e-05,7,1
-0.0002334358,9.879808e-05,7,1
-0.000159372,0.0001247285,7,1
-0.0001177212,0.0001274836,7,1
-0.000114804,0.0001078737,7,1
-0.0001360346,7.57848e-05,7,1
-0.000166989,4.142696e-05,7,1
-0.0001982676,1.419998e-05,7,1
-0.0002232257,-1.034161e-06,7,1
-0.0002323013,-1.844488e-06,7,1
-0.0002173914,9.66215e-06,7,1
-0.0001828714,3.251336e-05,7,1
-0.0001430034,7.20573e-05,7,1
-0.0001164247,0.0001304008,7,1
-0.0001144799,0.000200413,7,1
-0.0001361966,0.0002679943,7,1
-0.0001681235,0.0003161277,7,1
-0.0001964849,0.0003357376,7,1
-0.000219012,0.0003273102,7,1
-0.000238784,0.000302028,7,1
-0.0002579077,0.0002791768,7,1
-0.0002796244,0.0002795009,7,1
-0.0003076617,0.0003172622,7,1
-0.0003408851,0.0003879227,7,1
-0.0003728119,0.0004791655,7,1
-0.0003956632,0.0005765668,7,1
-0.0004060354,0.0006626236,7,1
-0.0004068457,0.0007305289,7,1
-0.000405063,0.000777528,7,1
-0.0004097628,0.0008034584,7,1
-0.0004267797,0.0008054032,7,1
-0.0004528722,0.0007833623,7,1
-0.000477182,0.0007386322,7,1
-0.0004933886,0.0006742922,7,1
-0.0005000332,0.0005999042,7,1
-0.0005035987,0.000537509,7,1
-0.000512026,0.0005130371,7,1
-0.0005288809,0.0005305402,7,1
-0.0005518941,0.0005712186,7,1
-0.0005745832,0.0006021731,7,1
-0.0005975965,0.0005965008,7,1
-0.0006120203,0.0005415607,7,1
-0.0006065101,0.0004415663,7,1
-0.000571504,0.0003135347,7,1
-0.0005081365,0.0001761032,7,1
-0.0004167317,4.515445e-05,7,1
-0.0002993964,-6.683268e-05,7,1
-0.0001611547,-0.0001507825,7,1
-1.691656e-05,-0.0002070192,7,1
0.0001080358,-0.0002449425,7,1
0.0001999268,-0.0002742763,7,1
0.0002624841,-0.0003065273,7,1
0.0003088348,-0.0003501228,7,1
0.0003474063,-0.0004086284,7,1
0.000378685,-0.0004762096,7,1
0.0003992672,-0.000539253,7,1
0.000401212,-0.000586252,7,1
0.0003803056,-0.0006172064,7,1
0.0003457857,-0.0006398956,7,1
0.000314345,-0.0006648536,7,1
0.0002960316,-0.0006938633,7,1
0.0002908455,-0.0007243316,7,1
0.0002923041,-0.0007466965,7,1
0.0002876042,-0.000752693,7,1
0.0002663737,-0.0007395657,7,1
0.0002242366,-0.0007118525,7,1
0.0001688103,-0.0006765223,7,1
0.0001124116,-0.0006398956,7,1
6.83298e-05,-0.0006058619,7,1
4.045456e-05,-0.000571342,7,1
2.522042e-05,-0.0005360117,7,1
1.857574e-05,-0.0004977643,7,1
2.327564e-05,-0.0004559515,7,1
4.256141e-05,-0.0004139766,7,1
7.57848e-05,-0.0003702189,7,1
0.0001197045,-0.0003185201,7,1
0.0001603829,-0.0002522354,7,1
0.0001811273,-0.0001707166,7,1
0.0001786963,-7.963584e-05,7,1
0.0001665414,7.23117e-06,7,1
0.0001675138,7.286763e-05,7,1
0.0001992786,0.000108522,7,1
0.0002600531,0.0001185701,7,1
0.0003323342,0.0001116012,7,1
0.0004005638,9.53947e-05,7,1
0.0004587452,7.286763e-05,7,1
0.00050542,4.483033e-05,7,1
0.0005344298,1.322759e-05,7,1
0.0005368608,-1.99958e-05,7,1
0.0005081752,-5.030202e-05,7,1
0.000458097,-7.072225e-05,7,1
0.0004029947,-7.639453e-05,7,1
0.000359075,-7.088431e-05,7,1
0.0003337929,-6.569822e-05,7,1
0.0003264999,-6.44017e-05,7,1
0.0003276344,-6.877746e-05,7,1
0.0003252034,-7.850138e-05,7,1
0.0003067279,-8.984595e-05,7,1
0.0002641047,-9.697683e-05,7,1
0.0001976579,-9.29252e-05,7,1
0.0001201907,-7.60704e-05,7,1
4.77475e-05,-4.641245e-05,7,1
-5.085794e-06,-1.844488e-06,7,1
-2.955766e-05,5.763349e-05,7,1
-2.874733e-05,0.0001281319,7,1
-1.853722e-05,0.0001999268,7,1
-1.788895e-05,0.0002619979,7,1
-3.360929e-05,0.0003033245,7,1
-5.257093e-05,0.0003145071,7,1
-5.240886e-05,0.0002963557,7,1
-2.631635e-05,0.0002550291,7,1
1.063454e-05,0.0001984683,7,1
3.624086e-05,0.0001402868,7,1
3.348575e-05,9.199134e-05,7,1
3.179537e-06,5.893001e-05,7,1
-4.009191e-05,4.158902e-05,7,1
-7.461182e-05,3.737532e-05,7,1
-8.417367e-05,3.98063e-05,7,1
-6.423963e-05,4.158902e-05,7,1
-2.809907e-05,3.899597e-05,7,1
4.244267e-07,3.218923e-05,7,1
-5.479652e-07,2.603075e-05,7,1
-3.701266e-05,2.230325e-05,7,1
-0.0001011905,2.003433e-05,7,1
-0.0001720131,1.808955e-05,7,1
-0.000231491,1.1769e-05,7,1
-0.0002652006,-7.516774e-06,7,1
-0.0002630937,-4.544006e-05,7,1
-0.0002352185,-9.535618e-05,7,1
-0.0002049123,-0.0001486757,7,1
-0.0001872472,-0.0002029675,7,1
-0.0001901644,-0.0002596904,7,1
-0.0002117191,-0.0003204649,7,1
-0.0002391081,-0.0003804291,7,1
-0.0002588801,-0.0004340726,7,1
-0.0002713591,-0.0004792889,7,1
-0.0002801106,-0.0005105674,7,1
-0.0002857829,-0.0005189948,7,1
-0.0002830278,-0.0005037607,7,1
-0.0002697385,-0.0004698891,7,1
-0.0002378116,-0.0004220798,7,1
-0.0001640719,-0.0003582261,7,1
-3.393342e-05,-0.0002793003,7,1
0.000135749,-0.0001820611,7,1
0.0002942489,-6.650855e-05,7,1
0.0003848434,6.573675e-05,7,1
0.0003804677,0.0002125679,7,1
0.0002944109,0.0003658818,7,1
0.0001712413,0.0005136854,7,1
6.444023e-05,0.0006426895,7,1
1.22552e-05,0.0007331221,7,1
1.776542e-05,0.0007661834,7,1
6.184718e-05,0.0007362012,7,1
0.000118408,0.000656303,7,1
0.0001688103,0.0005512846,7,1
0.0002070577,0.0004491834,7,1
0.0002342847,0.0003754436,7,1
0.0002551911,0.000349027,7,1
0.0002720459,0.0003720403,7,1
0.0002848491,0.0004315182,7,1
0.000299597,0.000509958,7,1
0.0003229345,0.0005885597,7,1
0.0003571303,0.0006533858,7,1
0.0003945674,0.0006961711,7,1
0.0004164462,0.000710757,7,1
0.000396188,0.0006976296,7,1
0.0003164518,0.0006595443,7,1
0.0001765894,0.0006034696,7,1
-8.720959e-07,0.0005337815,7,1
-0.0001861127,0.0004551798,7,1
-0.0003433161,0.0003675024,7,1
-0.0004392588,0.0002726942,7,1
-0.0004578962,0.0001757791,7,1
-0.0004079801,8.664318e-05,7,1
-0.0003084721,1.565857e-05,7,1
-0.0001762268,-3.117831e-05,7,1
-2.777494e-05,-5.678463e-05,7,1
0.0001143563,-6.537409e-05,7,1
0.0002268297,-6.132246e-05,7,1
0.0002965178,-4.495386e-05,7,1
0.0003253654,-2.210265e-05,7,1
0.0003302274,-2.330684e-06,7,1
0.0003350894,-3.951337e-06,7,1
0.0003582647,-3.830919e-05,7,1
0.0003824125,-9.730096e-05,7,1
0.0003691231,-0.0001647201,7,1
0.000289549,-0.0002220912,7,1
0.0001540623,-0.000251101,7,1
1.558884e-06,-0.0002408908,7,1
-0.0001261486,-0.0001950263,7,1
-0.0002096122,-0.0001263107,7,1
-0.0002574215,-4.706071e-05,7,1
-0.0002841623,3.089271e-05,7,1
-0.000295993,0.0001049566,7,1
-0.0002992343,0.0001764274,7,1
-0.0002992343,0.0002475741,7,1
-0.000300855,0.0003172622,7,1
-0.0003084721,0.0003767402,7,1
-0.0003225718,0.0004062361,7,1
-0.0003423437,0.000388733,7,1
-0.0003621157,0.0003209897,7,1
-0.0003771877,0.0002124059,7,1
-0.0003869116,7.853991e-05,7,1
-0.0003872358,-6.229485e-05,7,1
-0.0003776739,-0.0001927574,7,1
-0.0003666535,-0.0003000446,7,1
-0.0003593606,-0.0003789705,7,1
-0.0003619536,-0.0004309934,7,1
-0.0003760533,-0.00046211,7,1
-0.0003982562,-0.0004794509,7,1
-0.0004178661,-0.0004924161,7,1
-0.0004211074,-0.0005089468,7,1
-0.0004021458,-0.0005306636,7,1
-0.0003651949,-0.0005512458,7,1
-0.000320789,-0.0005650214,7,1
-0.0002793003,-0.0005676145,7,1
-0.0002507768,-0.0005585388,7,1
-0.0002366771,-0.0005444391,7,1
-0.0002276015,-0.0005288809,7,1
-0.0002088019,-0.0005099192,7,1
-0.0001797922,-0.0004890127,7,1
-0.0001524032,-0.0004690787,7,1
-0.0001327933,-0.0004507654,7,1
-0.0001156143,-0.0004345588,7,1
-8.44978e-05,-0.0004204592,7,1
-2.923353e-05,-0.0004073319,7,1
4.094075e-05,-0.0003925839,7,1
0.0001031738,-0.0003757291,7,1
0.0001349386,-0.0003574158,7,1
0.0001346145,-0.0003394265,7,1
0.0001103047,-0.0003253268,7,1
7.837785e-05,-0.0003152788,7,1
5.730935e-05,-0.0003047445,7,1
6.136099e-05,-0.0002914552,7,1
9.717743e-05,-0.0002763831,7,1
0.0001662173,-0.0002596904,7,1
0.0002566497,-0.0002415391,7,1
0.0003449753,-0.0002233878,7,1
0.0004098015,-0.0002122053,7,1
0.0004443214,-0.0002062088,7,1
0.000453235,-0.0002055606,7,1
0.0004462662,-0.0002047502,7,1
0.0004294114,-0.0002003745,7,1
0.0004004017,-0.0001872472,7,1
0.00035162,-0.0001648822,7,1
0.0002866318,-0.0001324691,7,1
0.0002193747,-9.19528e-05,7,1
0.0001647587,-4.560212e-05,7,1
0.0001310491,1.883015e-06,7,1
0.0001094944,4.904402e-05,7,1
8.939829e-05,9.766362e-05,7,1
6.136099e-05,0.0001454729,7,1
2.781346e-05,0.0001880961,7,1
-1.682422e-06,0.0002245608,7,1
-2.242678e-05,0.0002503292,7,1
-3.312309e-05,0.0002645909,7,1
-2.874733e-05,0.0002710735,7,1
-3.627206e-06,0.0002806354,7,1
4.304761e-05,0.0003057555,7,1
0.0001026876,0.0003525924,7,1
0.0001574657,0.0004174185,7,1
0.0001842065,0.0004909963,7,1
0.0001701068,0.0005699221,7,1
0.0001174356,0.0006548444,7,1
4.77475e-05,0.0007473837,7,1
-9.947754e-06,0.0008434886,7,1
-4.462973e-05,0.0009408899,7,1
-6.116039e-05,0.001034078,7,1
-6.407757e-05,0.001114462,7,1
-4.997789e-05,0.001166971,7,1
-1.075808e-05,0.001177181,7,1
5.828175e-05,0.0011378,7,1
0.0001428799,0.001051905,7,1
0.0002196988,0.0009298695,7,1
0.0002616738,0.0007827141,7,1
0.0002590807,0.0006221072,7,1
0.0002206712,0.0004637693,7,1
0.0001608691,0.0003222862,7,1
8.810177e-05,0.0002005751,7,1
6.582909e-06,9.458438e-05,7,1
-7.461182e-05,-2.654814e-06,7,1
-0.000147055,-9.438378e-05,7,1
-0.0002032917,-0.0001797922,7,1
-0.0002460769,-0.0002598524,7,1
-0.0002814071,-0.0003371576,7,1
-0.0003185201,-0.0004136524,7,1
-0.0003596847,-0.0004860956,7,1
-0.0003997148,-0.0005463839,7,1
-0.0004306693,-0.0005883588,7,1
-0.0004528722,-0.0006050515,7,1
-0.0004634065,-0.0005995413,7,1
-0.0004470379,-0.0005794452,7,1
-0.0003925839,-0.0005552975,7,1
-0.0002979378,-0.0005329325,7,1
-0.0001716889,-0.0005147812,7,1
-3.069211e-05,-0.0004972781,7,1
0.0001015532,-0.0004800992,7,1
0.0002047888,-0.0004619479,7,1
0.0002670219,-0.0004405553,7,1
0.0002889007,-0.0004121938,7,1
0.0002692908,-0.0003771877,7,1
0.0002117576,-0.0003366714,7,1
0.0001278078,-0.0002946965,7,1
4.580272e-05,-0.0002577456,7,1
2.623614e-07,-0.0002340841,7,1
8.527692e-06,-0.0002237119,7,1
7.011252e-05,-0.0002177155,7,1
0.0001684862,-0.0002013469,7,1
0.0002816078,-0.0001629374,7,1
0.0003882468,-9.341139e-05,7,1
0.0004671726,8.365628e-06,7,1
0.0004982892,0.0001312112,7,1
0.0004767345,0.0002545429,7,1
0.0004162841,0.0003636129,7,1
0.0003407616,0.0004501558,7,1
0.0002636185,0.0005170888,7,1
0.0001921477,0.0005660325,7,1
0.000130887,0.0005953664,7,1
7.821578e-05,0.0006000663,7,1
3.170304e-05,0.0005747841,7,1
-1.351319e-05,0.0005190336,7,1
-6.650855e-05,0.0004399457,7,1
-0.0001302002,0.0003501615,7,1
-0.0002024813,0.0002632944,7,1
-0.0002747625,0.0001906891,7,1
-0.0003378059,0.0001406109,7,1
-0.0003873979,0.0001151667,7,1
-0.0004159214,0.0001107909,7,1
-0.0004139766,0.0001163011,7,1
-0.0003765395,0.0001180839,7,1
-0.0003066893,0.0001090082,7,1
-0.0002211189,9.134307e-05,7,1
-0.0001361966,7.20573e-05,7,1
-6.618442e-05,5.779555e-05,7,1
-1.950961e-05,5.277153e-05,7,1
7.717366e-06,5.277153e-05,7,1
2.489629e-05,5.341979e-05,7,1
4.061663e-05,4.547859e-05,7,1
5.56887e-05,2.441009e-05,7,1
6.83298e-05,-5.734056e-06,7,1
7.221937e-05,-3.814712e-05,7,1
6.071273e-05,-6.877746e-05,7,1
3.024445e-05,-9.584238e-05,7,1
-1.529591e-05,-0.0001185315,7,1
-6.926366e-05,-0.0001331174,7,1
-0.000119828,-0.0001386276,7,1
-0.0001527273,-0.0001339277,7,1
-0.0001509446,-0.0001229073,7,1
-9.859748e-05,-0.0001083214,7,1
1.825161e-05,-9.632857e-05,7,1
0.00019782,-9.341139e-05,7,1
0.0004157979,-0.0001002181,7,1
0.0006366931,-0.0001115627,7,1
0.0008203132,-0.0001238797,7,1
0.000933597,-0.0001365208,7,1
0.0009587171,-0.0001528894,7,1
0.0008904876,-0.0001762268,7,1
0.0007344186,-0.0002036158,7,1
0.0005164405,-0.0002267911,7,1
0.0002804733,-0.0002391081,7,1
7.20573e-05,-0.0002412149,7,1
-8.303922e-05,-0.0002395943,7,1
-0.0001814128,-0.0002374874,7,1
-0.0002421874,-0.0002360289,7,1
-0.0002921034,-0.0002378116,7,1
-0.0003538503,-0.0002428356,7,1
-0.0004339106,-0.000251263,7,1
-0.0005238568,-0.0002590421,7,1
-0.0006045654,-0.0002640662,7,1
-0.0006501057,-0.0002635799,7,1
-0.0006486471,-0.0002579077,7,1
-0.0006019723,-0.0002491561,7,1
-0.0005288809,-0.0002395943,7,1
-0.0004457413,-0.0002311669,7,1
-0.0003627639,-0.0002251705,7,1
-0.0002788141,-0.0002211189,7,1
-0.0001823853,-0.0002172293,7,1
-5.727083e-05,-0.0002100984,7,1
9.717743e-05,-0.0001976194,7,1
0.0002621599,-0.0001810887,7,1
0.0004089912,-0.0001637477,7,1
0.000512713,-0.0001475412,7,1
0.000564736,-0.0001308485,7,1
0.0005618189,-0.0001149661,7,1
0.0005089855,-0.0001011905,7,1
0.0004174185,-9.017008e-05,7,1
0.0002999212,-8.206682e-05,7,1
0.0001668655,-7.363943e-05,7,1
2.359977e-05,-6.294311e-05,7,1
-0.0001191798,-4.868137e-05,7,1
-0.0002532078,-3.21507e-05,7,1
-0.0003645466,-1.027188e-05,7,1
-0.0004369898,1.630683e-05,7,1
-0.0004546549,4.564065e-05,7,1
-0.0004092767,7.286763e-05,7,1
-0.0003079858,8.972242e-05,7,1
-0.0001747682,9.377406e-05,7,1
-4.625038e-05,8.729144e-05,7,1
4.742337e-05,7.497447e-05,7,1
9.831188e-05,6.022653e-05,7,1
0.0001187321,4.888196e-05,7,1
0.0001205148,4.612685e-05,7,1
0.0001153287,5.455425e-05,7,1
0.0001161391,7.173317e-05,7,1
0.0001328318,9.847395e-05,7,1
0.0001720516,0.0001310491,7,1
0.0002255332,0.0001641104,7,1
0.000274639,0.0001869616,7,1
0.0002957075,0.0001936063,7,1
0.0002752873,0.0001846927,7,1
0.0002222919,0.0001694586,7,1
0.0001496866,0.0001602208,7,1
6.055066e-05,0.0001621656,7,1
-4.252288e-05,0.0001752929,7,1
-0.0001511067,0.0001940925,7,1
-0.0002501286,0.0002085163,7,1
-0.0003329439,0.0002109473,7,1
-0.00039777,0.0002017096,7,1
-0.0004405553,0.0001884202,7,1
-0.0004557894,0.000180479,7,1
-0.0004316416,0.0001803169,7,1
-0.000365357,0.0001848548,7,1
-0.000268604,0.0001921477,7,1
-0.000166827,0.0002000889,7,1
-8.368748e-05,0.0002036544,7,1
-3.393342e-05,0.0001997648,7,1
-2.09682e-05,0.0001861513,7,1
-3.539201e-05,0.000165569,7,1
-5.548811e-05,0.0001441764,7,1
-6.602235e-05,0.0001313732,7,1
-6.81292e-05,0.0001331559,7,1
-6.991193e-05,0.0001472556,7,1
-8.02841e-05,0.0001726999,7,1
-9.827335e-05,0.0002096508,7,1
-0.0001114006,0.0002564877,7,1
-0.0001052422,0.0003120761,7,1
-7.963584e-05,0.0003731747,7,1
-4.949169e-05,0.0004331389,7,1
-3.701266e-05,0.0004788414,7,1
-6.278104e-05,0.0004945617,7,1
-0.0001352242,0.0004725208,7,1
-0.0002335979,0.0004164462,7,1
-0.0003193304,0.0003354135,7,1
-0.0003502849,0.0002391467,7,1
-0.000303448,0.000143204,7,1
-0.00018433,5.811968e-05,7,1
-2.501983e-05,-7.840905e-06,7,1
0.0001257009,-5.176061e-05,7,1
0.000230071,-7.380149e-05,7,1
0.0002730183,-7.817725e-05,7,1
0.0002665357,-6.893953e-05,7,1
0.0002320158,-5.22468e-05,7,1
0.0001898788,-3.506788e-05,7,1
0.0001571416,-2.518189e-05,7,1
0.0001467694,-2.923353e-05,7,1
0.0001615174,-4.997789e-05,7,1
0.000192958,-8.579432e-05,7,1
0.0002221298,-0.0001337657,7,1
0.0002312055,-0.0001880575,7,1
0.0002115956,-0.0002350565,7,1
0.0001671896,-0.0002582318,7,1
0.0001104668,-0.0002428356,7,1
5.666109e-05,-0.0001950263,7,1
1.501031e-05,-0.0001334415,7,1
-8.327101e-06,-7.542214e-05,7,1
-1.529591e-05,-3.053005e-05,7,1
-1.3027e-05,2.693341e-06,7,1
-5.085794e-06,3.526847e-05,7,1
4.47606e-06,7.416415e-05,7,1
8.527692e-06,0.0001151667,7,1
3.989864e-06,0.0001495245,7,1
-8.165035e-06,0.0001726999,7,1
-2.161646e-05,0.0001835583,7,1
-3.441962e-05,0.0001782101,7,1
-5.127441e-05,0.0001517934,7,1
-7.833932e-05,0.0001044704,7,1
-0.0001092938,4.677511e-05,7,1
-0.0001261486,-1.092015e-05,7,1
-0.0001078352,-6.197072e-05,7,1
-4.576419e-05,-0.0001005423,7,1
5.260946e-05,-0.0001256624,7,1
0.000165569,-0.0001392759,7,1
0.0002615117,-0.000144624,7,1
0.0003145071,-0.0001468929,7,1
0.0003073762,-0.0001530514,7,1
0.000242388,-0.0001665028,7,1
0.0001428799,-0.0001870851,7,1
4.191315e-05,-0.0002120432,7,1
-2.583016e-05,-0.000236353,7,1
-4.576419e-05,-0.0002567732,7,1
-2.680255e-05,-0.0002718453,7,1
9.013889e-06,-0.0002809209,7,1
4.628891e-05,-0.0002867553,7,1
7.57848e-05,-0.000290969,7,1
9.766362e-05,-0.0002924276,7,1
0.0001106288,-0.0002840002,7,1
0.0001182459,-0.0002596904,7,1
0.0001252147,-0.0002198223,7,1
0.0001370455,-0.0001728234,7,1
0.00015309,-0.0001293899,7,1
0.000170593,-9.843541e-05,7,1
0.0001801549,-8.547019e-05,7,1
0.000173024,-8.968389e-05,7,1
0.0001406109,-0.0001050801,7,1
7.967438e-05,-0.0001235555,7,1
3.827799e-06,-0.0001384655,7,1
-6.229485e-05,-0.0001451102,7,1
-9.551824e-05,-0.0001394379,7,1
-9.017008e-05,-0.000119666,7,1
-6.229485e-05,-8.692878e-05,7,1
-3.863332e-05,-4.787104e-05,7,1
-4.268495e-05,-2.168618e-06,7,1
-7.850138e-05,4.904402e-05,7,1
-0.0001289037,0.0001090082,7,1
-0.0001690959,0.0001731861,7,1
-0.0001823853,0.0002326641,7,1
-0.0001699062,0.0002717218,7,1
-0.0001459206,0.0002743149,7,1
-0.0001279313,0.0002360674,7,1
-0.0001242038,0.0001717275,7,1
-0.0001282554,0.0001009049,7,1
-0.0001277692,3.18651e-05,7,1
-0.0001079973,-3.360929e-05,7,1
-6.180866e-05,-0.0001008664,7,1
3.989864e-06,-0.0001750923,7,1
6.978839e-05,-0.0002506147,7,1
0.0001151667,-0.0003172236,7,1
0.0001278078,-0.000367788,7,1
0.0001046324,-0.0004011734,7,1
5.585077e-05,-0.000419973,7,1
-4.113403e-06,-0.000427428,7,1
-6.472583e-05,-0.000434883,7,1
-0.000122259,-0.0004475241,7,1
-0.0001810887,-0.0004711856,7,1
-0.0002480217,-0.0005021401,7,1
-0.0003245165,-0.0005348772,7,1
-0.0004068457,-0.0005601594,7,1
-0.0004773441,-0.0005703696,7,1
-0.0005134846,-0.0005578905,7,1
-0.0004901472,-0.0005199672,7,1
-0.0003885323,-0.0004559515,7,1
-0.0002070192,-0.0003682741,7,1
3.591673e-05,-0.0002627696,7,1
0.0002937627,-0.0001447861,7,1
0.0005055821,-1.756482e-05,7,1
0.0006264829,0.0001116012,7,1
0.0006387999,0.0002406053,7,1
0.0005566327,0.0003642611,7,1
0.000420984,0.0004764104,7,1
0.0002735045,0.0005637637,7,1
0.0001362352,0.0006115729,7,1
1.987227e-05,0.0006109247,7,1
-6.731888e-05,0.0005618189,7,1
-0.0001201522,0.0004812723,7,1
-0.0001308485,0.0003999155,7,1
-9.2439e-05,0.0003483787,7,1
-1.043395e-05,0.0003487029,7,1
9.101894e-05,0.0004065602,7,1
0.0001793446,0.0005135234,7,1
0.0002271538,0.0006559788,7,1
0.0002247229,0.0008237166,7,1
0.0001863134,0.001007661,7,1
0.0001414213,0.001185447,7,1
0.0001138702,0.001317368,7,1
0.0001141943,0.001367771,7,1
0.0001344524,0.001319961,7,1
0.0001620036,0.001180909,7,1
0.0001851789,0.0009812443,7,1
0.0001970097,0.0007587284,7,1
0.0001976579,0.0005483674,7,1
0.000190365,0.0003731747,7,1
0.0001806411,0.0002509774,7,1
0.0001725378,0.0001817755,7,1
0.0001647587,0.0001521176,7,1
0.0001516314,0.000143204,7,1
0.0001252147,0.0001378558,7,1
8.486046e-05,0.0001265113,7,1
3.948217e-05,0.0001065772,7,1
9.106227e-07,7.708133e-05,7,1
-1.902341e-05,3.915804e-05,7,1
-2.113026e-05,-6.382317e-06,7,1
-1.772689e-05,-5.565017e-05,7,1
-2.226472e-05,-0.0001008664,7,1
-4.106429e-05,-0.0001387897,7,1
-7.266703e-05,-0.0001705545,7,1
-0.0001089697,-0.0002018331,7,1
-0.0001449482,-0.0002361909,7,1
-0.0001734716,-0.0002723315,7,1
-0.0001880575,-0.0003079858,7,1
-0.0001859507,-0.0003415334,7,1
-0.0001749302,-0.0003692465,7,1
-0.0001650443,-0.0003854531,7,1
-0.0001575893,-0.0003895047,7,1
-0.0001384655,-0.0003867496,7,1
-9.438378e-05,-0.0003825359,7,1
-2.955766e-05,-0.0003835083,7,1
3.218923e-05,-0.0003938804,7,1
5.925414e-05,-0.0004162455,7,1
3.380988e-05,-0.0004475241,7,1
-3.847125e-05,-0.0004783165,7,1
-0.0001313347,-0.0004988988,7,1
-0.0002130156,-0.0005047331,7,1
-0.0002585559,-0.0005005194,7,1
-0.000258718,-0.0004940368,7,1
-0.0002237119,-0.0004906334,7,1
-0.0001741199,-0.0004891749,7,1
-0.0001313347,-0.0004809095,7,1
-0.0001044318,-0.0004640547,7,1
-9.66527e-05,-0.0004400691,7,1
-0.0001065387,-0.0004143007,7,1
-0.0001255003,-0.0003893426,7,1
-0.0001408965,-0.0003681121,7,1
-0.0001426792,-0.0003514194,7,1
-0.000129714,-0.0003395886,7,1
-0.0001088076,-0.0003292164,7,1
-8.806324e-05,-0.0003196545,7,1
-6.877746e-05,-0.0003102548,7,1
-5.500191e-05,-0.0003039342,7,1
-5.095028e-05,-0.0002998826,7,1
-5.013995e-05,-0.0002974516,7,1
-3.798505e-05,-0.0002950206,7,1
-5.57199e-06,-0.0002911311,7,1
3.721326e-05,-0.0002815692,7,1
7.416415e-05,-0.0002629317,7,1
9.458438e-05,-0.0002365151,7,1
0.0001025256,-0.0002096122,7,1
0.0001054428,-0.0001877334,7,1
0.0001120874,-0.0001781716,7,1
0.0001231079,-0.0001786577,7,1
0.000135749,-0.0001854645,7,1
0.0001466074,-0.000194216,7,1
0.0001576278,-0.000201671,7,1
0.0001772377,-0.0002013469,7,1
0.0002172679,-0.000189192,7,1
0.0002833905,-0.0001666649,7,1
0.0003548613,-0.0001378173,7,1
0.0004025085,-0.0001065387,7,1
0.0003994293,-7.396356e-05,7,1
0.0003423823,-4.05781e-05,7,1
0.0002581083,-1.520357e-06,7,1
0.0001838824,4.580272e-05,7,1
0.0001433661,9.993253e-05,7,1
0.0001433661,0.0001564933,7,1
0.0001741585,0.000215161,7,1
0.0002205092,0.0002765838,7,1
0.0002718839,0.0003428685,7,1
0.0003161277,0.0004140152,7,1
0.0003310377,0.0004955341,7,1
0.0003015418,0.0005879114,7,1
0.000230071,0.0006843403,7,1
0.000133318,0.0007721797,7,1
3.18651e-05,0.000839437,7,1
-5.565017e-05,0.0008750914,7,1
-0.0001248521,0.0008773603,7,1
-0.0001781716,0.0008455954,7,1
-0.0002224154,0.0007888725,7,1
-0.0002583939,0.0007180499,7,1
-0.0002840002,0.0006436619,7,1
-0.0002899966,0.0005713807,7,1
-0.0002729798,0.0005023408,7,1
-0.0002384598,0.0004380009,7,1
-0.0002047502,0.0003856538,7,1
-0.0001896782,0.000349027,7,1
-0.0002023193,0.0003264999,7,1
-0.0002376495,0.0003117519,7,1
-0.0002851347,0.0002961937,7,1
-0.0003366714,0.0002764217,7,1
-0.0003846427,0.0002521119,7,1
-0.0004206212,0.0002227781,7,1
-0.0004403932,0.0001898788,7,1
-0.0004425001,0.0001526038,7,1
-0.000420135,0.0001083599,7,1
-0.0003535262,5.260946e-05,7,1
-0.0002293842,-1.594417e-05,7,1
-5.419158e-05,-8.806324e-05,7,1
0.0001325077,-0.0001468929,7,1
0.0002777182,-0.0001840059,7,1
0.0003459477,-0.0002036158,7,1
0.0003342791,-0.0002126914,7,1
0.0002654013,-0.0002209568,7,1
0.0001746447,-0.0002326255,7,1
9.069481e-05,-0.0002467252,7,1
2.862379e-05,-0.0002622834,7,1
-1.092015e-05,-0.0002794623,7,1
-2.550602e-05,-0.0002971275,7,1
-1.869928e-05,-0.0003100927,7,1
-3.14101e-06,-0.0003096065,7,1
6.420843e-06,-0.0002925897,7,1
-8.489166e-06,-0.0002585559,7,1
-5.840528e-05,-0.0002131776,7,1
-0.0001425172,-0.0001611547,7,1
-0.000243808,-0.0001057284,7,1
-0.0003391024,-4.560212e-05,7,1
-0.0004061974,1.711715e-05,7,1
-0.0004353692,7.448828e-05,7,1
-0.0004334244,0.0001148425,7,1
-0.0004164075,0.0001274836,7,1
-0.000397608,0.0001106288,7,1
-0.0003776739,7.351589e-05,7,1
-0.0003527159,3.218923e-05,7,1
-0.0003214373,4.313994e-06,7,1
-0.0002865932,1.002961e-07,7,1
-0.0002467252,1.54965e-05,7,1
-0.0002050744,4.142696e-05,7,1
-0.0001601823,6.395404e-05,7,1
-0.0001032974,7.043665e-05,7,1
-2.258885e-05,5.56887e-05,7,1
8.486046e-05,2.586868e-05,7,1
0.0002023578,-4.599598e-06,7,1
0.0003059176,-1.902341e-05,7,1
0.0003756057,-1.124428e-05,7,1
0.0003968363,1.144487e-05,7,1
0.0003696093,3.575467e-05,7,1
0.0003072141,4.855783e-05,7,1
0.0002339606,4.35338e-05,7,1
0.0001827479,2.01964e-05,7,1
0.0001733481,-1.691656e-05,7,1
0.0001961994,-6.035007e-05,7,1
0.00022764,-9.859748e-05,7,1
0.0002506533,-0.0001255003,7,1
0.0002587566,-0.0001434896,7,1
0.0002538946,-0.0001583996,7,1
0.0002417397,-0.0001770371,7,1
0.0002281262,-0.0002031296,7,1
0.0002187264,-0.0002429977,7,1
0.0002248849,-0.0002951827,7,1
0.0002564877,-0.0003507711,7,1
0.0003075383,-0.0003911253,7,1
0.000353889,-0.000405225,7,1
0.0003700955,-0.0003919357,7,1
0.0003456236,-0.0003614674,7,1
0.0002890628,-0.0003248407,7,1
0.0002156472,-0.0002916173,7,1
0.0001454729,-0.0002655248,7,1
9.782569e-05,-0.0002420253,7,1
7.513654e-05,-0.0002157707,7,1
7.52986e-05,-0.00018433,7,1
8.275361e-05,-0.0001468929,7,1
8.518459e-05,-0.0001041077,7,1
7.918817e-05,-5.64605e-05,7,1
7.043665e-05,-4.761664e-06,7,1
6.83298e-05,5.277153e-05,7,1
7.6271e-05,0.0001169494,7,1
9.652917e-05,0.0001863134,7,1
0.0001385041,0.0002613496,7,1
0.0001992786,0.0003412479,7,1
0.0002590807,0.0004310321,7,1
0.0002859836,0.0005285954,7,1
0.0002605393,0.0006279415,7,1
0.0001811273,0.0007216153,7,1
6.103686e-05,0.0007906552,7,1
-7.639453e-05,0.0008188546,7,1
-0.0002057227,0.000797624,7,1
-0.0003040963,0.0007240463,7,1
-0.0003588744,0.00060428,7,1
-0.0003723258,0.0004563143,7,1
-0.0003551469,0.0003096451,7,1
-0.0003209511,0.0001817755,7,1
-0.0002820554,7.967438e-05,7,1
-0.000246401,4.80019e-06,7,1
-0.0002081536,-4.787104e-05,7,1
-0.0001543479,-8.692878e-05,7,1
-8.190475e-05,-0.0001161005,7,1
-2.168618e-06,-0.000134576,7,1
6.152305e-05,-0.000142031,7,1
9.085688e-05,-0.0001417068,7,1
8.615699e-05,-0.0001415448,7,1
5.358185e-05,-0.0001481895,7,1
4.962256e-06,-0.0001676373,7,1
-4.689865e-05,-0.0002013469,7,1
-8.790117e-05,-0.0002434839,7,1
-0.0001144799,-0.0002843243,7,1
-0.0001267968,-0.0003201407,7,1
-0.0001285796,-0.0003468815,7,1
-0.0001211246,-0.0003609812,7,1
-0.0001050801,-0.0003598467,7,1
-7.785312e-05,-0.000348016,7,1
-4.592625e-05,-0.0003389403,7,1
-2.080613e-05,-0.0003361852,7,1
-1.643037e-05,-0.0003345645,7,1
-3.976777e-05,-0.0003267854,7,1
-8.482193e-05,-0.0003147926,7,1
-0.0001410586,-0.0003021515,7,1
-0.0001961608,-0.0002862691,7,1
-0.0002498044,-0.0002645523,7,1
-0.0003071755,-0.0002391081,7,1
-0.0003708672,-0.000216419,7,1
-0.0004269418,-0.0002026434,7,1
-0.0004496309,-0.0001972953,7,1
-0.0004134903,-0.0001969711,7,1
-0.0003065273,-0.0001950263,7,1
-0.000142031,-0.0001836818,7,1
4.564065e-05,-0.0001621271,7,1
0.0002125679,-0.0001318209,7,1
0.0003252034,-9.778715e-05,7,1
0.0003705817,-6.48879e-05,7,1
0.0003558337,-3.944364e-05,7,1
0.0002981384,-2.113026e-05,7,1
0.0002224539,-5.57199e-06,7,1
0.0001417454,1.468618e-05,7,1
6.152305e-05,4.596478e-05,7,1
-1.173047e-05,9.523264e-05,7,1
-7.444975e-05,0.0001620036,7,1
-0.0001225832,0.0002336365,7,1
-0.0001506204,0.0002965178,7,1
-0.000151917,0.0003438409,7,1
-0.0001248521,0.0003749574,7,1
-7.412562e-05,0.0003991052,7,1
-2.978945e-06,0.0004266563,7,1
8.323981e-05,0.0004639314,7,1
0.0001733481,0.0005018546,7,1
0.0002490327,0.0005221128,7,1
0.0002957075,0.000507527,7,1
0.0003060797,0.0004498317,7,1
0.0002874421,0.0003475684,7,1
0.0002587566,0.0002093267,7,1
0.000252274,5.487838e-05,7,1
0.0002927903,-9.211487e-05,7,1
0.000378685,-0.0002107467,7,1
0.0004728449,-0.0002969654,7,1
0.0005260024,-0.0003561192,7,1
0.0005078511,-0.0003946908,7,1
0.0004245494,-0.0004099249,7,1
0.0003109416,-0.0004042526,7,1
0.000200251,-0.000380267,7,1
0.0001052807,-0.0003412093,7,1
2.39239e-05,-0.0002814071,7,1
-4.738484e-05,-0.0001934057,7,1
-0.0001013526,-7.769106e-05,7,1
-0.0001227452,5.277153e-05,7,1
-0.0001092938,0.0001769136,7,1
-7.882551e-05,0.0002775562,7,1
-5.483985e-05,0.0003532407,7,1
-4.560212e-05,0.0004112601,7,1
-4.041603e-05,0.0004597176,7,1
-1.821308e-05,0.0005018546,7,1
2.441009e-05,0.0005418848,7,1
7.643307e-05,0.0005811046,7,1
0.0001132219,0.0006175694,7,1
0.0001124116,0.0006436619,7,1
6.670914e-05,0.0006494962,7,1
-1.416145e-05,0.0006298863,7,1
-0.0001159385,0.0005885597,7,1
-0.0002253326,0.0005297299,7,1
-0.0003316474,0.0004576108,7,1
-0.0004222419,0.0003705817,7,1
-0.0004789647,0.0002691288,7,1
-0.0004826922,0.0001511452,7,1
-0.0004340726,1.987227e-05,7,1
-0.0003574158,-0.0001125351,7,1
-0.0002846485,-0.0002331117,7,1
-0.000236353,-0.000338292,7,1
-0.0002170672,-0.0004288866,7,1
-0.0002128535,-0.0005058676,7,1
-0.0002138259,-0.0005682627,7,1
-0.0002243602,-0.0006133168,7,1
-0.000258718,-0.0006403818,7,1
-0.0003170615,-0.0006499436,7,1
-0.0003820497,-0.0006494574,7,1
-0.0004240246,-0.0006418404,7,1
-0.000420135,-0.0006309819,7,1
-0.0003650328,-0.0006181788,7,1
-0.0002695764,-0.0006031067,7,1
-0.0001509446,-0.0005807417,7,1
-3.296103e-05,-0.000549139,7,1
5.909208e-05,-0.0005110537,7,1
0.0001119254,-0.0004663236,7,1
0.000135749,-0.0004107352,7,1
0.0001480659,-0.0003420196,7,1
0.0001564933,-0.0002619593,7,1
0.0001589243,-0.0001677994,7,1
0.0001501728,-5.662256e-05,7,1
0.0001291043,7.059871e-05,7,1
0.0001013911,0.0002093267,7,1
7.870197e-05,0.0003485408,7,1
7.351589e-05,0.0004734932,7,1
9.020862e-05,0.0005663567,7,1
0.0001349386,0.0006115729,7,1
0.0002060853,0.0006034696,7,1
0.0002957075,0.0005507984,7,1
0.0003814401,0.0004683071,7,1
0.0004341113,0.0003715541,7,1
0.0004339493,0.0002807975,7,1
0.0003877606,0.0002093267,7,1
0.0003229345,0.0001564933,7,1
0.0002655633,0.0001125736,7,1
0.0002282883,6.930219e-05,7,1
0.0002099749,2.619281e-05,7,1
0.0002064095,-1.221667e-05,7,1
0.0002093267,-4.203669e-05,7,1
0.0002130541,-6.148453e-05,7,1
0.0002117576,-6.974985e-05,7,1
0.0001973338,-7.104638e-05,7,1
0.0001574657,-6.91016e-05,7,1
9.004655e-05,-6.877746e-05,7,1
6.582909e-06,-7.590833e-05,7,1
-7.088431e-05,-8.903562e-05,7,1
-0.0001219349,-0.0001044318,7,1
-0.0001308485,-0.000112373,7,1
-9.551824e-05,-0.0001089697,7,1
-3.668853e-05,-9.535618e-05,7,1
1.695509e-05,-7.201877e-05,7,1
4.596478e-05,-4.300908e-05,7,1
4.466826e-05,-1.25408e-05,7,1
2.003433e-05,1.452411e-05,7,1
-2.064406e-05,3.235129e-05,7,1
-7.056019e-05,4.402e-05,7,1
-0.0001250141,5.131294e-05,7,1
-0.0001784957,5.601284e-05,7,1
-0.0002277635,6.103686e-05,7,1
-0.000266011,6.930219e-05,7,1
-0.0002793003,8.032264e-05,7,1
-0.0002567732,9.523264e-05,7,1
-0.0002024813,0.0001188942,7,1
-0.0001274451,0.0001574657,7,1
-4.657452e-05,0.0002140265,7,1
2.910999e-05,0.0002859836,7,1
9.280167e-05,0.0003644232,7,1
0.0001375317,0.0004345975,7,1
0.0001608691,0.000487917,7,1
0.000168,0.0005177371,7,1
0.0001600588,0.0005153061,7,1
0.0001354248,0.0004764104,7,1
9.490851e-05,0.0004042913,7,1
4.580272e-05,0.000311914,7,1
-9.623623e-06,0.0002132162,7,1
-7.299116e-05,0.0001182459,7,1
-0.0001407345,3.13789e-05,7,1
-0.000206533,-4.219875e-05,7,1
-0.0002574215,-0.0001007043,7,1
-0.0002870794,-0.0001477033,7,1
-0.0002942103,-0.0001836818,7,1
-0.0002867553,-0.0002071812,7,1
-0.0002739521,-0.0002170672,7,1
-0.0002600145,-0.0002201465,7,1
-0.0002417012,-0.0002258187,7,1
-0.0002173914,-0.0002373254,7,1
-0.0001848162,-0.0002519113,7,1
-0.0001405724,-0.0002656868,7,1
-8.498399e-05,-0.0002713591,7,1
-1.967167e-05,-0.0002655248,7,1
4.191315e-05,-0.0002532078,7,1
7.724339e-05,-0.0002415391,7,1
7.384002e-05,-0.0002399184,7,1
3.753739e-05,-0.0002530457,7,1
-1.059602e-05,-0.0002793003,7,1
-5.030202e-05,-0.0003117133,7,1
-7.752899e-05,-0.000342992,7,1
-0.0001005423,-0.0003673017,7,1
-0.000119828,-0.0003833462,7,1
-0.0001204763,-0.0003917736,7,1
-8.676672e-05,-0.0003906392,7,1
-1.821308e-05,-0.0003825359,7,1
7.011252e-05,-0.0003737844,7,1
0.0001647587,-0.000367788,7,1
0.0002618358,-0.0003643846,7,1
0.0003619922,-0.0003590364,7,1
0.0004449697,-0.0003489884,7,1
0.0004840274,-0.0003319715,7,1
0.0004598797,-0.0003081479,7,1
0.0003775505,-0.0002804347,7,1
0.0002665357,-0.0002507768,7,1
0.0001637863,-0.0002233878,7,1
8.810177e-05,-0.000194216,7,1
4.596478e-05,-0.0001543479,7,1
3.996837e-05,-9.649064e-05,7,1
6.881599e-05,-2.177852e-05,7,1
0.0001177597,6.022653e-05,7,1
0.0001624898,0.0001393144,7,1
0.0001798307,0.0002093267,7,1
0.000160707,0.0002662116,7,1
0.0001175977,0.0003073762,7,1
6.930219e-05,0.0003311998,7,1
3.656499e-05,0.0003389789,7,1
3.121684e-05,0.0003428685,7,1
5.179914e-05,0.0003593992,7,1
8.777764e-05,0.0003948915,7,1
0.0001257009,0.000443349,7,1
0.0001535762,0.0004948858,7,1
0.0001654069,0.0005413986,7,1
0.0001600588,0.0005738117,7,1
0.0001430419,0.0005854804,7,1
0.000115977,0.0005780254,7,1
7.837785e-05,0.0005642498,7,1
2.716521e-05,0.0005584154,7,1
-3.604027e-05,0.0005634395,7,1
-0.0001081593,0.0005665187,7,1
-0.0001827094,0.0005496639,7,1
-0.0002574215,0.0005047718,7,1
-0.0003254889,0.0004313562,7,1
-0.0003700569,0.0003409237,7,1
-0.0003566054,0.0002462775,7,1
-0.000253694,0.0001594105,7,1
-6.81292e-05,9.101894e-05,7,1
0.0001435281,4.920609e-05,7,1
0.0003013798,3.769945e-05,7,1
0.0003527545,5.666109e-05,7,1
0.0002944109,0.0001000946,7,1
0.0001621656,0.0001576278,7,1
1.112074e-05,0.0002213195,7,1
-0.0001151281,0.0002869559,7,1
-0.0001888679,0.0003495132,7,1
-0.0002023193,0.0004044533,7,1
-0.0001702304,0.0004420525,7,1
-0.0001186936,0.0004478869,7,1
-6.602235e-05,0.0004132049,7,1
-2.372331e-05,0.0003431926,7,1
-2.492749e-06,0.0002509774,7,1
-5.734056e-06,0.0001487142,7,1
-2.988179e-05,4.304761e-05,7,1
-6.229485e-05,-6.326724e-05,7,1
-8.02841e-05,-0.0001687718,7,1
-6.667062e-05,-0.0002669833,7,1
-1.837515e-05,-0.0003541745,7,1
4.531652e-05,-0.0004277521,7,1
8.891209e-05,-0.0004830164,7,1
7.951231e-05,-0.0005196431,7,1
2.207145e-06,-0.0005478425,7,1
-0.0001256624,-0.0005708557,7,1
-0.0002705488,-0.0005873864,7,1
-0.0004014975,-0.0005948414,7,1
-0.0005053814,-0.0005911139,7,1
-0.0005822003,-0.000578959,7,1
-0.0006348715,-0.0005627525,7,1
-0.0006590193,-0.000549301,7,1
-0.0006369784,-0.0005400634,7,1
-0.0005552975,-0.0005330946,7,1
-0.0004112214,-0.0005207775,7,1
-0.0002198223,-0.0004940368,7,1
-1.497178e-05,-0.000452224,7,1
0.0001650828,-0.0004029561,7,1
0.0002963557,-0.0003514194,7,1
0.000371392,-0.0002998826,7,1
0.0003987811,-0.0002447804,7,1
0.0003944053,-0.0001802784,7,1
0.0003722023,-9.956988e-05,7,1
0.0003405996,-3.789272e-06,7,1
0.0003052694,0.0001025256,7,1
0.000274639,0.0002088404,7,1
0.0002550291,0.0002979764,7,1
0.0002436845,0.0003496752,7,1
0.0002336365,0.0003543751,7,1
0.0002154851,0.0003112658,7,1
0.0001856651,0.0002310434,7,1
0.0001445005,0.0001320215,7,1
0.0001007429,3.218923e-05,7,1
6.606088e-05,-5.516398e-05,7,1
5.455425e-05,-0.0001214487,7,1
7.20573e-05,-0.0001642339,7,1
0.0001120874,-0.0001851404,7,1
0.0001519555,-0.0001883817,7,1
0.0001637863,-0.0001770371,7,1
0.0001409351,-0.0001609926,7,1
9.896015e-05,-0.0001507825,7,1
6.541262e-05,-0.0001572651,7,1
6.022653e-05,-0.0001831956,7,1
8.259155e-05,-0.0002220912,7,1
0.0001120874,-0.0002593663,7,1
0.0001120874,-0.0002804347,7,1
5.131294e-05,-0.0002802727,7,1
-7.282909e-05,-0.0002605007,7,1
-0.0002282497,-0.0002224154,7,1
-0.0003501228,-0.0001613168,7,1
-0.0003737844,-7.817725e-05,7,1
-0.0002780038,2.732727e-05,7,1
-0.0001018388,0.0001537382,7,1
8.583286e-05,0.0002940868,7,1
0.000235095,0.0004399457,7,1
0.0003235827,0.0005843459,7,1
0.0003519442,0.0007152948,7,1
0.000329255,0.0008130203,7,1
0.0002689667,0.0008596951,7,1
0.0001858272,0.0008509436,7,1
9.442231e-05,0.0007960034,7,1
9.013889e-06,0.0007102708,7,1
-6.294311e-05,0.0006101143,7,1
-0.000119666,0.0005081752,7,1
-0.0001613168,0.0004146635,7,1
-0.0001888679,0.0003360618,7,1
-0.0002028055,0.0002741528,7,1
-0.0001994021,0.0002266676,7,1
-0.0001838438,0.0001837203,7,1
-0.0001679614,0.0001367214,7,1
-0.0001622891,8.777764e-05,7,1
-0.0001632615,4.645098e-05,7,1
-0.000161965,2.003433e-05,7,1
-0.0001562927,6.258778e-06,7,1
-0.0001502963,-3.951337e-06,7,1
-0.0001499722,-1.740276e-05,7,1
-0.0001556445,-3.328516e-05,7,1
-0.0001608306,-4.835724e-05,7,1
-0.0001572651,-6.586029e-05,7,1
-0.0001397621,-9.227693e-05,7,1
-0.0001144799,-0.0001319829,7,1
-8.579432e-05,-0.0001831956,7,1
-5.548811e-05,-0.0002384598,7,1
-2.177852e-05,-0.000290969,7,1
1.12828e-05,-0.0003335922,7,1
3.445814e-05,-0.0003640605,7,1
3.915804e-05,-0.0003854531,7,1
2.424803e-05,-0.0004003631,7,1
-5.57199e-06,-0.0004128421,7,1
-4.252288e-05,-0.0004262935,7,1
-8.239095e-05,-0.0004429862,7,1
-0.0001199901,-0.0004587066,7,1
-0.0001488377,-0.0004634065,7,1
-0.0001622891,-0.0004557894,7,1
-0.00015451,-0.0004382863,7,1
-0.0001310105,-0.0004152731,7,1
-0.0001016767,-0.0003924218,7,1
-7.752899e-05,-0.0003742705,7,1
-6.586029e-05,-0.0003606571,7,1
-6.359137e-05,-0.0003454229,7,1
-6.423963e-05,-0.0003214373,7,1
-5.905355e-05,-0.0002869174,7,1
-4.122636e-05,-0.0002476975,7,1
-7.678839e-06,-0.0002084778,7,1
4.110282e-05,-0.000171851,7,1
0.0001005808,-0.0001378173,7,1
0.0001620036,-0.0001002181,7,1
0.0002073819,-5.921561e-05,7,1
0.0002159713,-1.221667e-05,7,1
0.0001809652,4.158902e-05,7,1
0.0001120874,0.0001023635,7,1
4.418206e-05,0.0001678379,7,1
1.808955e-05,0.0002318537,7,1
5.844381e-05,0.000289387,7,1
0.0001509831,0.0003360618,7,1
0.0002532463,0.0003681507,7,1
0.000331686,0.0003851676,7,1
0.0003796573,0.0003856538,7,1
0.0004119083,0.0003709058,7,1
0.0004446456,0.0003467581,7,1
0.0004806241,0.0003214759,7,1
0.0005029891,0.0003067279,7,1
0.0004935893,0.0003031625,7,1
0.0004475628,0.0003055935,7,1
0.0003781987,0.0003122381,7,1
0.0003036487,0.000321638,7,1
0.0002328261,0.0003266619,7,1
0.0001587623,0.000319207,7,1
7.351589e-05,0.0002960316,7,1
-2.631635e-05,0.0002581083,7,1
-0.0001399241,0.0002149989,7,1
-0.0002558008,0.0001744826,7,1
-0.0003486642,0.0001451488,7,1
-0.000402794,0.0001336421,7,1
-0.0004243487,0.0001479039,7,1
-0.0004331002,0.0001846927,7,1
-0.0004434724,0.0002273159,7,1
-0.000452386,0.0002603772,7,1
-0.000444769,0.000282094,7,1
-0.0004006872,0.0002944109,7,1
-0.00030831,0.0003018659,7,1
-0.0001770371,0.0003054314,7,1
-3.134038e-05,0.0003012177,7,1
0.0001044704,0.000284687,7,1
0.0002141886,0.0002521119,7,1
0.000282094,0.0002068957,7,1
0.0002997591,0.0001603829,7,1
0.0002728562,0.0001260251,7,1
0.0002269918,0.0001175977,7,1
0.0001861513,0.0001378558,7,1
0.0001621656,0.0001736723,7,1
0.0001558451,0.0002041406,7,1
0.0001517934,0.0002132162,7,1
0.0001312112,0.0001944166,7,1
8.04847e-05,0.0001521176,7,1
7.555301e-06,9.798775e-05,7,1
-6.91016e-05,4.402e-05,7,1
-0.0001434896,-8.720959e-07,7,1
-0.0002284118,-3.069211e-05,7,1
-0.0003262992,-4.446767e-05,7,1
-0.0004168937,-4.398147e-05,7,1
-0.0004651892,-3.668853e-05,7,1
-0.0004543308,-3.182657e-05,7,1
-0.0003867496,-3.879538e-05,7,1
-0.0002804347,-6.39155e-05,7,1
-0.000161965,-0.0001078352,7,1
-5.775702e-05,-0.0001661787,7,1
1.290346e-05,-0.0002355427,7,1
4.272347e-05,-0.0003125237,7,1
4.466826e-05,-0.0003869116,7,1
3.494434e-05,-0.0004493068,7,1
2.81376e-05,-0.0004930644,7,1
3.332369e-05,-0.0005183466,7,1
5.163707e-05,-0.0005261258,7,1
7.789165e-05,-0.0005201293,7,1
0.000103498,-0.0005084606,7,1
0.0001177597,-0.0004943609,7,1
0.0001175977,-0.0004749131,7,1
0.0001073875,-0.0004452552,7,1
9.588091e-05,-0.000407656,7,1
8.729144e-05,-0.0003690845,7,1
7.837785e-05,-0.0003407231,7,1
6.233338e-05,-0.0003303509,7,1
3.656499e-05,-0.0003386162,7,1
1.558884e-06,-0.0003622777,7,1
-4.009191e-05,-0.0003948528,7,1
-8.158062e-05,-0.0004285624,7,1
-0.0001143178,-0.000457248,7,1
-0.0001332795,-0.0004708614,7,1
-0.0001306864,-0.0004650271,7,1
-0.0001089697,-0.0004382863,7,1
-7.590833e-05,-0.0003888564,7,1
-3.847125e-05,-0.0003144685,7,1
7.393236e-06,-0.0002209568,7,1
7.67572e-05,-0.0001154523,7,1
0.000168162,-6.382317e-06,7,1
0.0002602152,9.231547e-05,7,1
0.0003271482,0.0001689724,7,1
0.0003555096,0.0002219677,7,1
0.0003530786,0.000254867,7,1
0.0003277964,0.0002728562,7,1
0.000284687,0.0002837146,7,1
0.0002359054,0.000299435,7,1
0.0002021958,0.0003290929,7,1
0.0002025199,0.0003726885,7,1
0.0002433604,0.0004222805,7,1
0.0003077003,0.0004741415,7,1
0.0003678266,0.0005321609,7,1
0.0003931088,0.0005953664,7,1
0.000368799,0.0006561409,7,1
0.0003013798,0.0007031399,7,1
0.0002138645,0.000723236,7,1
0.0001415833,0.0007063812,7,1
9.928428e-05,0.0006592202,7,1
7.967438e-05,0.000596987,7,1
5.61749e-05,0.0005344298,7,1
4.151929e-06,0.000482893,7,1
-7.704279e-05,0.0004467524,7,1
-0.0001674752,0.0004227667,7,1
-0.0002460769,0.0004034809,7,1
-0.0002987481,0.0003828986,7,1
-0.0003266234,0.0003553475,7,1
-0.0003389403,0.0003166139,7,1
-0.0003467195,0.0002663737,7,1
-0.000358064,0.0002018716,7,1
-0.0003661673,0.0001250527,7,1
-0.0003562813,3.591673e-05,7,1
-0.000318358,-6.051213e-05,7,1
-0.0002553146,-0.0001596961,7,1
-0.000181737,-0.0002502906,7,1
-0.0001169109,-0.0003245165,7,1
-7.428769e-05,-0.0003781601,7,1
-5.840528e-05,-0.0004130042,7,1
-6.002594e-05,-0.0004316416,7,1
-6.261898e-05,-0.0004382863,7,1
-5.370539e-05,-0.0004390967,7,1
-3.166451e-05,-0.000444931,7,1
-4.761664e-06,-0.0004648651,7,1
1.517237e-05,-0.0005013297,7,1
1.419998e-05,-0.0005471942,7,1
-1.20546e-05,-0.0005959758,7,1
-5.872941e-05,-0.000640868,7,1
-0.0001136696,-0.0006752257,7,1
-0.0001661787,-0.0006891634,7,1
-0.0002078295,-0.000675712,7,1
-0.0002334358,-0.0006274165,7,1
-0.0002370013,-0.0005501114,7,1
-0.0002147983,-0.0004551412,7,1
-0.0001671511,-0.0003553089,7,1
-0.000102325,-0.0002588801,7,1
-3.571614e-05,-0.0001622891,7,1
1.306552e-05,-5.629844e-05,7,1
2.781346e-05,6.444023e-05,7,1
3.989864e-06,0.0001861513,7,1
-4.284701e-05,0.000282256,7,1
-8.563225e-05,0.0003305515,7,1
-9.875954e-05,0.000316938,7,1
-8.07703e-05,0.0002404432,7,1
-4.576419e-05,0.0001141943,7,1
-9.623623e-06,-3.198864e-05,7,1
2.797553e-05,-0.000164396,7,1
6.78436e-05,-0.0002624455,7,1
0.0001020394,-0.0003228959,7,1
0.0001229458,-0.0003470436,7,1
0.0001265113,-0.0003389403,7,1
0.0001164632,-0.0003079858,7,1
0.0001023635,-0.0002679557,7,1
9.588091e-05,-0.0002326255,7,1
0.0001033359,-0.0002068571,7,1
0.0001239182,-0.0001880575,7,1
0.0001498487,-0.0001712027,7,1
0.0001767515,-0.0001524032,7,1
0.0002081922,-0.0001253383,7,1
0.0002406053,-7.396356e-05,7,1
0.0002652392,2.943412e-05,7,1
0.0002743149,0.0002068957,7,1
0.000267184,0.0004490213,7,1
0.0002462775,0.0007169155,7,1
0.0002154851,0.0009723307,7,1
0.0001795066,0.001188526,7,1
0.0001380179,0.001362747,7,1
8.631905e-05,0.00150812,7,1
2.376183e-05,0.001639717,7,1
-3.944364e-05,0.001751704,7,1
-8.952183e-05,0.00181021,7,1
-0.0001136696,0.00177099,7,1
-0.0001128592,0.001614273,7,1
-9.892161e-05,0.00135513,7,1
-7.817725e-05,0.001040236,7,1
-4.252288e-05,0.0007289083,7,1
4.962256e-06,0.0004666864,7,1
4.888196e-05,0.0002720459,7,1
6.83298e-05,0.0001386662,7,1
5.666109e-05,5.115087e-05,7,1
2.489629e-05,-7.678839e-06,7,1
-4.923729e-06,-5.354332e-05,7,1
-1.659243e-05,-9.892161e-05,7,1
-1.335113e-05,-0.0001454344,7,1
-5.247859e-06,-0.0001938919,7,1
-4.437533e-06,-0.0002412149,7,1
-1.480971e-05,-0.0002841623,7,1
-3.036798e-05,-0.0003230579,7,1
-3.960571e-05,-0.0003585502,7,1
-3.733679e-05,-0.0003909633,7,1
-2.566809e-05,-0.000420135,7,1
-1.399939e-05,-0.0004457413,7,1
-1.578211e-05,-0.0004687546,7,1
-4.495386e-05,-0.0004891749,7,1
-0.0001034594,-0.0005084606,7,1
-0.0001788198,-0.0005214258,7,1
-0.0002549905,-0.0005236948,7,1
-0.000315765,-0.0005151053,7,1
-0.0003517435,-0.0004992229,7,1
-0.000355633,-0.0004833405,7,1
-0.0003290543,-0.0004747511,7,1
-0.0002864312,-0.0004784786,7,1
-0.0002514251,-0.0004914437,7,1
-0.0002446183,-0.0005048952,7,1
-0.0002692523,-0.0005134846,7,1
-0.0003131719,-0.000519319,7,1
-0.0003546606,-0.0005261258,7,1
-0.0003720016,-0.0005339049,7,1
-0.0003472056,-0.0005420081,7,1
-0.0002750866,-0.0005509217,7,1
-0.0001671511,-0.0005574043,7,1
-5.32192e-05,-0.0005557837,7,1
3.380988e-05,-0.0005449253,7,1
7.805372e-05,-0.0005293671,7,1
8.534666e-05,-0.0005131605,7,1
6.816773e-05,-0.0005013297,7,1
4.094075e-05,-0.0004951713,7,1
1.095867e-05,-0.0004933886,7,1
-1.934754e-05,-0.0004917679,7,1
-5.095028e-05,-0.0004883645,7,1
-8.07703e-05,-0.0004794509,7,1
-0.0001002181,-0.0004611376,7,1
-0.0001044318,-0.0004296969,7,1
-9.600444e-05,-0.000387722,7,1
-7.720486e-05,-0.0003386162,7,1
-4.932962e-05,-0.0002890242,7,1
-8.651231e-06,-0.0002451045,7,1
4.742337e-05,-0.0002078295,7,1
0.0001175977,-0.0001724993,7,1
0.0001970097,-0.0001319829,7,1
0.0002764217,-8.514606e-05,7,1
0.000349027,-3.231277e-05,7,1
0.0004112601,2.246531e-05,7,1
0.0004553419,7.189524e-05,7,1
0.0004704139,0.0001127357,7,1
0.0004512903,0.0001396385,7,1
0.0004059119,0.0001550348,7,1
0.0003527545,0.0001628139,7,1
0.0003059176,0.000170431,7,1
0.0002752873,0.0001845306,7,1
0.000269777,0.000202682,7,1
0.0002918179,0.0002187264,7,1
0.000341734,0.0002265056,7,1
0.0004086671,0.0002232643,7,1
0.0004765725,0.0002125679,7,1
0.0005316747,0.0002031682,7,1
0.0005629533,0.0001999268,7,1
0.000562305,0.0002068957,7,1
0.0005294057,0.0002218057,7,1
0.0004762483,0.0002386605,7,1
0.0004130428,0.0002487085,7,1
0.000341572,0.0002440086,7,1
0.0002563256,0.0002214815,7,1
0.000160707,0.0001863134,7,1
6.897806e-05,0.0001516314,7,1
-7.030578e-06,0.0001273216,7,1
-6.472583e-05,0.0001200286,7,1
-0.00010978,0.0001278078,7,1
-0.0001477033,0.0001529279,7,1
-0.0001818991,0.0001932822,7,1
-0.0002233878,0.0002482223,7,1
-0.0002776796,0.0003154794,7,1
-0.0003340784,0.0003924605,7,1
-0.0003663294,0.0004731691,7,1
-0.0003481781,0.0005491778,7,1
-0.0002622834,0.000609304,7,1
-0.0001115627,0.000641393,7,1
5.828175e-05,0.0006399344,7,1
0.0001793446,0.0006005525,7,1
0.000202682,0.0005264886,7,1
0.0001279698,0.0004274666,7,1
-3.465141e-06,0.0003211517,7,1
-0.00012469,0.0002256952,7,1
-0.0001859507,0.0001576278,7,1
-0.0001771992,0.0001213252,7,1
-0.0001217728,0.0001088461,7,1
-5.143648e-05,0.0001064152,7,1
8.203562e-06,0.0001023635,7,1
4.499239e-05,9.053275e-05,7,1
5.374392e-05,7.351589e-05,7,1
3.121684e-05,5.325772e-05,7,1
-1.416145e-05,3.591673e-05,7,1
-7.380149e-05,2.635488e-05,7,1
-0.0001352242,2.651694e-05,7,1
-0.0001872472,3.056858e-05,7,1
-0.0002292221,3.251336e-05,7,1
-0.0002694143,3.299956e-05,7,1
-0.0003053928,3.996837e-05,7,1
-0.000330675,5.779555e-05,7,1
-0.0003342404,9.16672e-05,7,1
-0.0003117133,0.0001398006,7,1
-0.000266011,0.0001936063,7,1
-0.0002060468,0.0002396328,7,1
-0.0001478653,0.0002688046,7,1
-0.0001078352,0.0002741528,7,1
-9.519411e-05,0.0002490327,7,1
-0.0001052422,0.0001931201,7,1
-0.0001232314,0.0001143563,7,1
-0.000137169,2.619281e-05,7,1
-0.0001439758,-5.435365e-05,7,1
-0.000144462,-0.0001165867,7,1
-0.0001464067,-0.0001588858,7,1
-0.0001577513,-0.0001838438,7,1
-0.0001822232,-0.0001935677,7,1
-0.0002146363,-0.0001911368,7,1
-0.0002426735,-0.0001851404,7,1
-0.0002517492,-0.0001783336,7,1
-0.0002352185,-0.0001695821,7,1
-0.0001955125,-0.0001571031,7,1
-0.0001439758,-0.0001399241,7,1
-8.838737e-05,-0.0001159385,7,1
-3.539201e-05,-8.271508e-05,7,1
1.484824e-05,-3.733679e-05,7,1
6.249545e-05,2.003433e-05,7,1
0.0001081979,8.583286e-05,7,1
0.0001446626,0.0001490383,7,1
0.0001665414,0.0001971717,7,1
0.000180479,0.0002234263,7,1
0.000190365,0.000225047,7,1
0.0001955511,0.0002085163,7,1
0.0001963614,0.0001812893,7,1
0.000192796,0.0001492004,7,1
0.0001843686,0.0001156529,7,1
0.0001733481,7.789165e-05,7,1
0.0001590864,3.397195e-05,7,1
0.0001410971,-1.480971e-05,7,1
0.0001226217,-6.569822e-05,7,1
0.0001056048,-0.0001162626,7,1
9.037068e-05,-0.0001613168,7,1
7.173317e-05,-0.0001958367,7,1
4.709924e-05,-0.000219012,7,1
1.679302e-05,-0.0002272773,7,1
-1.691656e-05,-0.000223874,7,1
-4.722278e-05,-0.0002149604,7,1
-6.39155e-05,-0.0002068571,7,1
-5.305713e-05,-0.0002044261,7,1
-1.043395e-05,-0.0002109087,7,1
6.152305e-05,-0.000224036,7,1
0.0001513072,-0.0002368392,7,1
0.0002440086,-0.0002433218,7,1
0.0003290929,-0.0002428356,7,1
0.0003945674,-0.0002378116,7,1
0.0004250357,-0.0002326255,7,1
0.0004067223,-0.0002324634,7,1
0.000331686,-0.0002418632,7,1
0.0002080301,-0.0002567732,7,1
6.03886e-05,-0.0002666592,7,1
-8.060823e-05,-0.0002692523,7,1
-0.0001914609,-0.0002609869,7,1
-0.0002624455,-0.0002408908,7,1
-0.0002911311,-0.000211557,7,1
-0.0002742763,-0.0001723372,7,1
-0.000213988,-0.0001151281,7,1
-0.0001161005,-2.923353e-05,7,1
-1.034161e-06,8.46984e-05,7,1
9.361199e-05,0.0002158093,7,1
0.0001370455,0.000339303,7,1
0.0001163011,0.0004253598,7,1
3.332369e-05,0.0004490213,7,1
-0.0001013526,0.0004028327,7,1
-0.0002648765,0.0003028383,7,1
-0.0004193247,0.0001767515,7,1
-0.0005272602,4.936815e-05,7,1
-0.0005625904,-6.083626e-05,7,1
-0.0005219121,-0.0001374932,7,1
-0.0004251591,-0.0001741199,7,1
-0.0003045825,-0.0001783336,7,1
-0.000189192,-0.0001639098,7,1
-8.82253e-05,-0.0001404103,7,1
-5.89612e-06,-0.0001089697,7,1
4.839576e-05,-6.342931e-05,7,1
6.638502e-05,6.258778e-06,7,1
5.552663e-05,0.0001072255,7,1
3.688912e-05,0.0002271538,7,1
2.619281e-05,0.0003373583,7,1
2.149292e-05,0.0004081808,7,1
9.986281e-06,0.0004251977,7,1
-1.643037e-05,0.0003984569,7,1
-5.402952e-05,0.0003543751,7,1
-8.968389e-05,0.0003195311,7,1
-0.0001099421,0.0003075383,7,1
-0.0001128592,0.0003136967,7,1
-0.0001041077,0.0003185587,7,1
-8.757704e-05,0.0003038107,7,1
-6.472583e-05,0.0002574601,7,1
-3.279896e-05,0.0001798307,7,1
1.112074e-05,7.918817e-05,7,1
6.217132e-05,-2.777494e-05,7,1
0.0001112771,-0.0001251762,7,1
0.0001445005,-0.0002019951,7,1
0.0001501728,-0.0002522354,7,1
0.0001289422,-0.0002765452,7,1
9.361199e-05,-0.0002825416,7,1
5.358185e-05,-0.0002801106,7,1
1.906194e-05,-0.0002752487,7,1
2.693341e-06,-0.0002663351,7,1
1.776542e-05,-0.0002533699,7,1
6.589881e-05,-0.000238946,7,1
0.000135749,-0.0002261429,7,1
0.0002088404,-0.0002122053,7,1
0.0002707494,-0.0001924333,7,1
0.0003128864,-0.0001632615,7,1
0.0003349273,-0.0001277692,7,1
0.0003444891,-9.454585e-05,7,1
0.0003582647,-7.120844e-05,7,1
0.0003890571,-6.261898e-05,7,1
0.0004302217,-7.120844e-05,7,1
0.000462959,-9.373552e-05,7,1
0.0004699278,-0.0001255003,7,1
0.0004495075,-0.0001585616,7,1
0.0004104497,-0.0001844921,7,1
0.0003568061,-0.0001981056,7,1
0.000289387,-0.0001938919,7,1
0.0002172679,-0.0001724993,7,1
0.0001542244,-0.0001379794,7,1
0.0001067393,-9.762509e-05,7,1
6.914012e-05,-5.370539e-05,7,1
3.705119e-05,-1.140634e-05,7,1
3.665733e-06,1.889987e-05,7,1
-3.63644e-05,3.089271e-05,7,1
-8.887356e-05,2.295151e-05,7,1
-0.0001549962,2.207145e-06,7,1
-0.0002303566,-2.339918e-05,7,1
-0.0003047445,-4.722278e-05,7,1
-0.0003642225,-6.764301e-05,7,1
-0.0003955011,-8.060823e-05,7,1
-0.0003880461,-8.838737e-05,7,1
-0.0003394265,-9.616651e-05,7,1
-0.0002626076,-0.0001054042,7,1
-0.0001783336,-0.0001105903,7,1
-0.000107349,-0.0001079973,7,1
-6.132246e-05,-9.843541e-05,7,1
-3.749886e-05,-8.725291e-05,7,1
-2.437157e-05,-7.769106e-05,7,1
-1.221667e-05,-6.748094e-05,7,1
-5.409925e-06,-5.565017e-05,7,1
-1.20546e-05,-4.462973e-05,7,1
-4.009191e-05,-4.025397e-05,7,1
-8.368748e-05,-4.90055e-05,7,1
-0.0001237176,-7.201877e-05,7,1
-0.0001412206,-0.0001008664,7,1
-0.0001352242,-0.0001233935,7,1
-0.0001263107,-0.000127121,7,1
-0.0001339277,-0.0001079973,7,1
-0.0001551583,-6.731888e-05,7,1
-0.0001660166,-1.513384e-05,7,1
-0.0001447861,4.337174e-05,7,1
-9.762509e-05,0.0001031738,7,1
-5.889148e-05,0.0001566554,7,1
-5.030202e-05,0.0001919856,7,1
-6.472583e-05,0.0002033302,7,1
-7.444975e-05,0.0001905271,7,1
-5.483985e-05,0.0001564933,7,1
-3.14101e-06,0.0001030118,7,1
5.99024e-05,3.786152e-05,7,1
0.0001090082,-3.134038e-05,7,1
0.0001316974,-9.486997e-05,7,1
0.0001242423,-0.0001464067,7,1
9.847395e-05,-0.0001825473,7,1
6.83298e-05,-0.0001972953,7,1
4.580272e-05,-0.0001861127,7,1
3.948217e-05,-0.0001511067,7,1
5.082674e-05,-0.0001013526,7,1
7.416415e-05,-4.47918e-05,7,1
9.912221e-05,7.879432e-06,7,1
0.0001151667,4.515445e-05,7,1
0.0001141943,6.346784e-05,7,1
9.393612e-05,6.249545e-05,7,1
6.055066e-05,5.017848e-05,7,1
2.522042e-05,3.55926e-05,7,1
2.693341e-06,2.376183e-05,7,1
1.558884e-06,1.533444e-05,7,1
1.711715e-05,1.031041e-05,7,1
2.927205e-05,7.23117e-06,7,1
2.473423e-05,4.151929e-06,7,1
4.638125e-06,2.207145e-06,7,1
-1.545797e-05,4.80019e-06,7,1
-1.173047e-05,1.54965e-05,7,1
1.857574e-05,3.672706e-05,7,1
5.52025e-05,6.962632e-05,7,1
7.367795e-05,0.0001140322,7,1
6.314371e-05,0.0001710792,7,1
2.748934e-05,0.0002337985,7,1
-1.432352e-05,0.0002913317,7,1
-3.441962e-05,0.0003289309,7,1
-5.085794e-06,0.0003370341,7,1
7.6271e-05,0.0003109416,7,1
0.0001728619,0.0002556773,7,1
0.0002312055,0.0001808031,7,1
0.0002143507,9.960841e-05,7,1
0.0001187321,3.089271e-05,7,1
-2.09682e-05,-9.137427e-06,7,1
-0.0001501342,-8.327101e-06,7,1
-0.0002222533,4.02925e-05,7,1
-0.0002211189,0.000130887,7,1
-0.0001613168,0.000247412,7,1
-6.991193e-05,0.0003681507,7,1
2.505836e-05,0.0004744656,7,1
9.798775e-05,0.0005495019,7,1
0.0001344524,0.0005846701,7,1
0.0001338042,0.0005822391,7,1
0.0001072255,0.0005537156,7,1
6.865393e-05,0.0005114165,7,1
2.084466e-05,0.0004624728,7,1
-4.203669e-05,0.0004086671,7,1
-0.0001276072,0.0003472443,7,1
-0.0002303566,0.0002769079,7,1
-0.0003240303,0.00019782,7,1
-0.0003784843,0.0001197045,7,1
-0.0003771877,5.585077e-05,7,1
-0.0003238683,2.165498e-05,7,1
-0.0002342462,2.894792e-05,7,1
-0.0001332795,7.967438e-05,7,1
-4.527799e-05,0.000170593,7,1
1.274139e-05,0.0002876042,7,1
3.154097e-05,0.0004039671,7,1
1.452411e-05,0.0004909963,7,1
-2.696461e-05,0.0005295678,7,1
-8.07703e-05,0.0005161164,7,1
-0.0001350622,0.0004595556,7,1
-0.0001822232,0.0003794953,7,1
-0.0002175534,0.0002950592,7,1
-0.0002417012,0.000220023,7,1
-0.0002559629,0.0001545486,7,1
-0.0002579077,9.182927e-05,7,1
-0.0002483458,3.170304e-05,7,1
-0.0002298704,-2.323711e-05,7,1
-0.0002126914,-7.428769e-05,7,1
-0.0002052365,-0.0001250141,7,1
-0.0002063709,-0.0001780095,7,1
-0.0002036158,-0.0002353806,7,1
-0.0001780095,-0.0002937241,7,1
-0.0001164247,-0.0003481781,7,1
-2.518189e-05,-0.0003937184,7,1
6.687121e-05,-0.0004264556,7,1
0.0001321835,-0.0004459034,7,1
0.0001488763,-0.0004512515,7,1
0.0001122495,-0.0004476861,7,1
3.429608e-05,-0.0004415277,7,1
-6.342931e-05,-0.0004386105,7,1
-0.0001600202,-0.0004382863,7,1
-0.000228898,-0.0004407173,7,1
-0.000243808,-0.0004442827,7,1
-0.0001922712,-0.0004489826,7,1
-7.33153e-05,-0.0004538446,7,1
9.458438e-05,-0.0004569239,7,1
0.0002717218,-0.0004538446,7,1
0.0004138531,-0.0004418518,7,1
0.0004909963,-0.0004215936,7,1
0.0004945617,-0.0003964735,7,1
0.0004490213,-0.0003728119,7,1
0.0003926226,-0.0003566054,7,1
0.0003576164,-0.0003525538,7,1
0.0003543751,-0.0003569296,7,1
0.0003867882,-0.000365357,7,1
0.0004585832,-0.0003707051,7,1
0.0005636016,-0.0003656811,7,1
0.0006825576,-0.0003494746,7,1
0.0007893587,-0.0003248407,7,1
0.000861964,-0.0002980999,7,1
0.000891622,-0.0002713591,7,1
0.0008789809,-0.0002408908,7,1
0.0008269579,-0.0002008607,7,1
0.0007360392,-0.000147055,7,1
0.0006125454,-7.752899e-05,7,1
0.000473007,1.079661e-05,7,1
0.0003401134,0.0001146805,7,1
0.0002303951,0.0002234263,7,1
0.0001440143,0.0003175863,7,1
6.638502e-05,0.0003780367,7,1
-2.339918e-05,0.0003974845,7,1
-0.0001293899,0.0003799815,7,1
-0.000238784,0.0003370341,7,1
-0.0003224097,0.000284687,7,1
-0.000355471,0.0002391467,7,1
-0.0003339163,0.0002086784,7,1
-0.0002797865,0.0001955511,7,1
-0.0002182017,0.0001966855,7,1
-0.0001705545,0.0002081922,7,1
-0.0001387897,0.0002273159,7,1
-0.00010978,0.000247412,7,1
-7.120844e-05,0.0002600531,7,1
-3.63644e-05,0.0002574601,7,1
-3.425755e-05,0.0002347709,7,1
-8.417367e-05,0.0001970097,7,1
-0.0001736337,0.0001508211,7,1
-0.0002705488,0.0001002567,7,1
-0.0003460712,4.645098e-05,7,1
-0.0003862634,-1.043395e-05,7,1
-0.0003901529,-7.282909e-05,7,1
-0.0003681121,-0.0001410586,7,1
-0.0003369955,-0.0002107467,7,1
-0.0003097686,-0.0002754107,7,1
-0.0002946965,-0.0003297026,7,1
-0.0002927517,-0.0003742705,7,1
-0.0003053928,-0.0004146248,7,1
-0.0003314853,-0.0004577342,7,1
-0.0003575778,-0.000501978,7,1
-0.0003635742,-0.0005397392,7,1
-0.000340561,-0.0005630766,7,1
-0.0002966413,-0.000571504,7,1
-0.0002489941,-0.0005672903,7,1
-0.0002152845,-0.0005429805,7,1
-0.0001977815,-0.0004883645,7,1
-0.0001786577,-0.000395177,7,1
-0.0001336036,-0.0002690902,7,1
-5.824322e-05,-0.0001314967,7,1
3.202716e-05,-2.168618e-06,7,1
0.0001091703,0.0001091703,7,1
0.0001498487,0.0002013854,7,1
0.0001490383,0.0002816078,7,1
0.0001137081,0.00035162,7,1
6.217132e-05,0.0004028327,7,1
7.069105e-06,0.0004232529,7,1
-4.560212e-05,0.0004051016,7,1
-9.260107e-05,0.0003527545,7,1
-0.0001250141,0.000282256,7,1
-0.0001314967,0.000217592,7,1
-0.0001041077,0.0001801549,7,1
-4.608832e-05,0.000185503,7,1
2.505836e-05,0.0002389846,7,1
8.372601e-05,0.0003333067,7,1
0.0001083599,0.0004517764,7,1
9.004655e-05,0.0005738117,7,1
3.105477e-05,0.0006879058,7,1
-6.213279e-05,0.0007951931,7,1
-0.0001736337,0.000893891,7,1
-0.0002822175,0.0009784892,7,1
-0.0003595226,0.001034402,7,1
-0.0003805911,0.00104526,7,1
-0.0003444506,0.0009951819,7,1
-0.0002752487,0.0008776844,7,1
-0.0002019951,0.0007076777,7,1
-0.0001410586,0.0005154681,7,1
-9.66527e-05,0.0003311998,7,1
-6.44017e-05,0.0001759412,7,1
-3.733679e-05,6.136099e-05,7,1
-7.678839e-06,-1.513384e-05,7,1
2.441009e-05,-5.953974e-05,7,1
5.050261e-05,-8.773911e-05,7,1
6.055066e-05,-0.0001136696,7,1
5.115087e-05,-0.0001452723,7,1
3.18651e-05,-0.0001809267,7,1
1.857574e-05,-0.0002110708,7,1
2.181705e-05,-0.0002287359,7,1
4.35338e-05,-0.0002335979,7,1
7.967438e-05,-0.0002316531,7,1
0.0001201907,-0.0002269532,7,1
0.0001534141,-0.0002248464,7,1
0.0001723757,-0.0002293842,7,1
0.0001756171,-0.0002407288,7,1
0.0001608691,-0.0002566112,7,1
0.0001427178,-0.0002733039,7,1
0.0001402868,-0.0002840002,7,1
0.0001623277,-0.0002818933,7,1
0.0001955511,-0.0002609869,7,1
0.0002085163,-0.0002251705,7,1
0.0001767515,-0.0001878955,7,1
0.0001041462,-0.0001603444,7,1
2.133085e-05,-0.0001473791,7,1
-3.863332e-05,-0.0001452723,7,1
-6.197072e-05,-0.0001512687,7,1
-5.305713e-05,-0.0001601823,7,1
-2.647842e-05,-0.0001687718,7,1
8.851824e-06,-0.0001799543,7,1
4.953022e-05,-0.0001958367,7,1
9.53947e-05,-0.0002160948,7,1
0.0001435281,-0.0002308428,7,1
0.0001900409,-0.0002318152,7,1
0.000232502,-0.0002159328,7,1
0.0002717218,-0.0001921092,7,1
0.0003065659,-0.000171851,7,1
0.0003299033,-0.0001647201,7,1
0.0003261758,-0.0001739578,7,1
0.0002756114,-0.0001987538,7,1
0.0001707551,-0.0002378116,7,1
2.651694e-05,-0.000285945,7,1
-0.0001255003,-0.0003335922,7,1
-0.0002460769,-0.0003716775,7,1
-0.000303286,-0.0003908012,7,1
-0.0002856209,-0.0003888564,7,1
-0.0002073433,-0.000370543,7,1
-0.0001010285,-0.0003478539,7,1
-3.789272e-06,-0.0003261372,7,1
5.94162e-05,-0.000303448,7,1
8.178122e-05,-0.0002763831,7,1
7.67572e-05,-0.0002446183,7,1
6.330578e-05,-0.0002075054,7,1
5.811968e-05,-0.0001634236,7,1
6.41161e-05,-0.0001065387,7,1
7.124698e-05,-3.247483e-05,7,1
6.525056e-05,5.358185e-05,7,1
3.996837e-05,0.0001398006,7,1
7.485573e-07,0.0002132162,7,1
-3.587821e-05,0.0002634565,7,1
-5.953974e-05,0.0002793389,7,1
-6.44017e-05,0.0002569738,7,1
-4.835724e-05,0.0002047888,7,1
-1.399939e-05,0.00013818,7,1
3.170304e-05,7.708133e-05,7,1
7.416415e-05,3.867184e-05,7,1
9.798775e-05,3.786152e-05,7,1
9.604298e-05,8.032264e-05,7,1
7.238143e-05,0.0001513072,7,1
3.753739e-05,0.0002214815,7,1
7.23117e-06,0.0002645909,7,1
-4.599598e-06,0.0002692908,7,1
1.095867e-05,0.0002381743,7,1
4.645098e-05,0.0001796687,7,1
8.242948e-05,0.0001046324,7,1
9.928428e-05,2.651694e-05,7,1
9.344993e-05,-4.511593e-05,7,1
8.097089e-05,-0.0001007043,7,1
7.659513e-05,-0.0001344139,7,1
8.242948e-05,-0.0001441378,7,1
8.939829e-05,-0.0001280934,7,1
8.648112e-05,-9.049421e-05,7,1
6.557468e-05,-3.571614e-05,7,1
3.105477e-05,2.894792e-05,7,1
2.369211e-06,9.588091e-05,7,1
-1.034161e-06,0.000163138,7,1
2.408596e-05,0.0002312055,7,1
6.557468e-05,0.0002999212,7,1
0.0001070634,0.0003642611,7,1
0.0001430419,0.0004177427,7,1
0.0001751309,0.0004537212,7,1
0.0001966855,0.0004657141,7,1
0.0002043026,0.0004522626,7,1
0.0002038164,0.0004119083,7,1
0.0002090025,0.0003551855,7,1
0.0002256952,0.0002976523,7,1
0.0002478982,0.0002603772,7,1
0.0002654013,0.0002547049,7,1
0.0002701012,0.0002816078,7,1
0.0002594049,0.0003303894,7,1
0.0002307193,0.0003840331,7,1
0.0001801549,0.0004253598,7,1
0.0001098185,0.0004439973,7,1
2.862379e-05,0.0004373526,7,1
-5.64605e-05,0.0004133669,7,1
-0.0001417068,0.0003882468,7,1
-0.0002201465,0.0003715541,7,1
-0.0002836761,0.0003598854,7,1
-0.0003250027,0.0003423823,7,1
-0.00033813,0.0003067279,7,1
-0.0003241924,0.0002534084,7,1
-0.0002895104,0.000185503,7,1
-0.0002475355,0.0001078737,7,1
-0.0002144742,2.34377e-05,7,1
-0.0002026434,-6.764301e-05,7,1
-0.0002144742,-0.0001658546,7,1
-0.0002472114,-0.0002664971,7,1
-0.0002890242,-0.0003596847,7,1
-0.0003201407,-0.0004343968,7,1
-0.0003269475,-0.0004859335,7,1
-0.000305879,-0.000514295,7,1
-0.000271035,-0.0005254775,7,1
-0.0002442942,-0.0005183466,7,1
-0.0002420253,-0.0004929024,7,1
-0.0002663351,-0.000454817,7,1
-0.000313334,-0.0004212695,7,1
-0.0003630881,-0.0004123559,7,1
-0.0003831841,-0.0004384484,7,1
-0.0003525538,-0.0004937127,7,1
-0.0002796244,-0.0005580526,7,1
-0.0001857886,-0.0006102377,7,1
-9.373552e-05,-0.0006420024,7,1
-2.566809e-05,-0.000658371,7,1
-8.489166e-06,-0.0006698776,7,1
-5.759496e-05,-0.0006802498,7,1
-0.0001600202,-0.0006836532,7,1
-0.0002767073,-0.0006776568,7,1
-0.0003810773,-0.0006624226,7,1
-0.0004564377,-0.0006457299,7,1
-0.000487068,-0.0006421645,7,1
-0.0004600031,-0.0006580469,7,1
-0.0003708672,-0.0006896496,7,1
-0.0002277635,-0.0007220627,7,1
-5.613637e-05,-0.0007372968,7,1
0.0001190562,-0.0007191455,7,1
0.0002702632,-0.0006544815,7,1
0.0003780367,-0.000539091,7,1
0.0004412422,-0.000370381,7,1
0.0004696036,-0.0001543479,7,1
0.0004733311,0.0001046324,7,1
0.0004577728,0.0003947294,7,1
0.0004250357,0.0007062191,7,1
