EMG1,EMG2,class,user
-0.0001452723,-0.0002758969,7,1
-0.000174282,-0.0002726556,7,1
-0.0001977815,-0.0002796244,7,1
-0.0002044261,-0.0002922655,7,1
-0.0001895161,-0.0003023136,7,1
-0.0001613168,-0.0003013411,7,1
-0.0001300382,-0.0002797865,7,1
-9.098041e-05,-0.0002368392,7,1
-3.004385e-05,-0.0001823853,7,1
5.163707e-05,-0.0001358725,7,1
0.0001312112,-0.0001258245,7,1
0.0001785342,-0.0001716889,7,1
0.0001816135,-0.000271035,7,1
0.0001504969,-0.0003979321,7,1
9.944634e-05,-0.000519319,7,1
3.591673e-05,-0.0006116962,7,1
-4.090223e-05,-0.0006705259,7,1
-0.0001285796,-0.0007050458,7,1
-0.0002147983,-0.000727897,7,1
-0.0002716832,-0.0007432932,7,1
-0.0002713591,-0.0007466965,7,1
-0.0002128535,-0.0007274108,7,1
-0.0001224211,-0.0006773326,7,1
-3.458168e-05,-0.0005997034,7,1
2.635488e-05,-0.0005123502,7,1
4.02925e-05,-0.0004356933,7,1
-6.868513e-06,-0.0003724878,7,1
-0.0001057284,-0.0003120375,7,1
-0.0002269532,-0.0002358668,7,1
-0.0003293785,-0.0001342519,7,1
-0.0003805911,-1.383732e-05,7,1
-0.0003747568,0.0001124116,7,1
-0.0003266234,0.0002261814,7,1
-0.0002572594,0.0003182346,7,1
-0.0001878955,0.0003866261,7,1
-0.000137007,0.0004435111,7,1
-0.0001146419,0.0005130371,7,1
-0.0001206384,0.000609304,7,1
-0.0001464067,0.0007199947,7,1
-0.0001799543,0.0008028102,7,1
-0.0002053985,0.0008034584,7,1
-0.0002063709,0.0006994124,7,1
-0.0001715269,0.0005088235,7,1
-0.0001044318,0.0002726942,7,1
-1.918548e-05,3.656499e-05,7,1
6.427817e-05,-0.0001627754,7,1
0.0001281319,-0.0003131719,7,1
0.0001668655,-0.0004193247,7,1
0.0001856651,-0.0004932265,7,1
0.0001924718,-0.0005421702,7,1
0.0001913374,-0.0005640491,7,1
0.0001838824,-0.0005556216,7,1
0.0001743205,-0.0005196431,7,1
0.0001573037,-0.0004651892,7,1
0.0001214872,-0.0004049009,7,1
6.298164e-05,-0.0003481781,7,1
-4.275467e-06,-0.0002976137,7,1
-5.289507e-05,-0.0002528836,7,1
-6.326724e-05,-0.0002094502,7,1
-3.360929e-05,-0.0001600202,7,1
2.473423e-05,-9.503204e-05,7,1
9.717743e-05,-9.947754e-06,7,1
0.0001688103,9.16672e-05,7,1
0.0002235884,0.0001987924,7,1
0.0002459534,0.0002971661,7,1
0.0002287745,0.0003720403,7,1
0.0001765894,0.000420984,7,1
0.0001018773,0.0004498317,7,1
2.084466e-05,0.0004666864,7,1
-5.565017e-05,0.0004733311,7,1
-0.0001284175,0.0004673347,7,1
-0.000201509,0.0004444835,7,1
-0.0002650386,0.0004078567,7,1
-0.0002921034,0.0003660439,7,1
-0.000253856,0.0003299033,7,1
-0.0001396,0.0003172622,7,1
3.964424e-05,0.0003427064,7,1
0.0002487085,0.0004026706,7,1
0.0004261701,0.0004785172,7,1
0.000514982,0.0005470709,7,1
0.0004979651,0.0005864528,7,1
0.0004007258,0.0005822391,7,1
0.0002660495,0.0005305402,7,1
0.0001302388,0.0004334631,7,1
1.371378e-05,0.0002989488,7,1
-6.650855e-05,0.0001475797,7,1
-0.0001029732,6.096713e-06,7,1
-9.503204e-05,-0.0001083214,7,1
-5.613637e-05,-0.0001844921,7,1
-2.81688e-06,-0.0002225774,7,1
4.288554e-05,-0.0002342462,7,1
6.281957e-05,-0.0002374874,7,1
5.730935e-05,-0.000246239,7,1
3.462021e-05,-0.0002689281,7,1
5.86492e-07,-0.0003066893,7,1
-5.159854e-05,-0.0003570916,7,1
-0.0001334415,-0.0004155972,7,1
-0.0002431597,-0.0004755614,7,1
-0.000355633,-0.0005379565,7,1
-0.0004368278,-0.0006000275,7,1
-0.0004570859,-0.0006520505,7,1
-0.0004194868,-0.0006776568,7,1
-0.0003497987,-0.0006590193,7,1
-0.0002603387,-0.0005823624,7,1
-0.0001387897,-0.0004400691,7,1
1.9224e-05,-0.0002371633,7,1
0.0001882582,1.403791e-05,7,1
0.0003230965,0.0002983005,7,1
0.0003910019,0.0006047662,7,1
0.0003919743,0.0009182008,7,1
0.0003480546,0.001208784,7,1
0.0002829043,0.001428707,7,1
0.0002135403,0.001519302,7,1
0.0001401247,0.001445886,7,1
5.115087e-05,0.001223208,7,1
-5.370539e-05,0.0009128526,7,1
-0.0001535376,0.0005905044,7,1
-0.0002156086,0.0003128864,7,1
-0.0002073433,9.831188e-05,7,1
-0.0001110765,-5.451572e-05,7,1
6.735741e-05,-0.000152079,7,1
0.0002838767,-0.0002058847,7,1
0.0004668485,-0.0002360289,7,1
0.0005590637,-0.0002558008,7,1
0.0005446399,-0.0002723315,7,1
0.0004469145,-0.000283514,7,1
0.0003055935,-0.0002914552,7,1
0.0001668655,-0.0003024756,7,1
7.432621e-05,-0.0003214373,7,1
5.050261e-05,-0.0003488263,7,1
8.939829e-05,-0.0003758912,7,1
0.0001689724,-0.0003869116,7,1
0.0002619979,-0.0003718396,7,1
0.0003363859,-0.000328082,7,1
0.0003610198,-0.0002609869,7,1
0.0003211517,-0.0001757406,7,1
0.0002279642,-7.850138e-05,7,1
0.0001151667,2.052053e-05,7,1
1.452411e-05,0.0001114392,7,1
-5.613637e-05,0.0001872858,7,1
-9.2439e-05,0.0002456293,7,1
-9.892161e-05,0.0002842008,7,1
-8.838737e-05,0.0003000832,7,1
-7.201877e-05,0.0002885766,7,1
-5.759496e-05,0.000252436,7,1
-4.284701e-05,0.0001932822,7,1
-2.550602e-05,0.0001197045,7,1
-4.923729e-06,4.061663e-05,7,1
1.160693e-05,-3.928157e-05,7,1
1.841368e-05,-0.0001235555,7,1
5.124321e-06,-0.0002159328,7,1
-3.652646e-05,-0.0003168994,7,1
-0.0001045939,-0.0004238625,7,1
-0.0001921092,-0.0005347152,7,1
-0.0002830278,-0.0006431369,7,1
-0.0003557951,-0.0007408622,7,1
-0.0003924218,-0.0008243258,7,1
-0.0003839945,-0.000891745,7,1
-0.0003342404,-0.0009418232,7,1
-0.0002543422,-0.0009774775,7,1
-0.0001618029,-0.0009987081,7,1
-7.671866e-05,-0.00100276,7,1
-1.351319e-05,-0.0009859049,7,1
2.505836e-05,-0.0009481438,7,1
3.397195e-05,-0.0008886658,7,1
1.889987e-05,-0.0008063366,7,1
-7.030578e-06,-0.000700508,7,1
-3.036798e-05,-0.0005702075,7,1
-4.706071e-05,-0.0004181903,7,1
-6.229485e-05,-0.0002489941,7,1
-7.931171e-05,-6.310517e-05,7,1
-8.222889e-05,0.0001461212,7,1
-4.868137e-05,0.0003908399,7,1
2.473423e-05,0.0006947125,7,1
0.000111115,0.001077511,7,1
0.0001618415,0.001529836,7,1
0.000140773,0.002001448,7,1
5.212327e-05,0.00240953,7,1
-6.359137e-05,0.002670619,7,1
-0.0001679614,0.002730745,7,1
-0.0002405667,0.002587317,7,1
-0.0002851347,0.002279715,7,1
-0.0003196545,0.001876657,7,1
-0.0003590364,0.001451396,7,1
-0.000395339,0.001062601,7,1
-0.0004058733,0.0007441425,7,1
-0.0003711913,0.0005042856,7,1
-0.0002904828,0.0003339549,7,1
-0.0001870851,0.0002158093,7,1
-9.778715e-05,0.0001360731,7,1
-5.581224e-05,8.583286e-05,7,1
-7.736692e-05,5.61749e-05,7,1
-0.0001525652,3.316162e-05,7,1
-0.0002481838,4.244267e-07,7,1
-0.0003165753,-4.997789e-05,7,1
-0.0003251648,-0.000119666,7,1
-0.0002708729,-0.0002057227,7,1
-0.0001827094,-0.0003049066,7,1
-0.0001052422,-0.0004141386,7,1
-6.650855e-05,-0.0005256396,7,1
-6.132246e-05,-0.0006277406,7,1
-4.868137e-05,-0.0007065044,7,1
1.711715e-05,-0.000752693,7,1
0.0001475797,-0.0007692237,7,1
0.0003182346,-0.0007684134,7,1
0.0004759242,-0.0007653341,7,1
0.0005673291,-0.0007740856,7,1
0.0005627912,-0.0008030953,7,1
0.000465552,-0.0008536596,7,1
0.0003030004,-0.0009181616,7,1
0.0001154908,-0.0009857429,7,1
-5.2733e-05,-0.001045383,7,1
-0.0001699062,-0.001091409,7,1
-0.0002230636,-0.001119285,7,1
-0.0002159328,-0.001130305,7,1
-0.000166827,-0.001126416,7,1
-9.713889e-05,-0.001110695,7,1
-2.566809e-05,-0.001084603,7,1
3.624086e-05,-0.001051217,7,1
9.231547e-05,-0.001009242,7,1
0.0001410971,-0.0009620814,7,1
0.0001731861,-0.000916541,7,1
0.0001803169,-0.000874242,7,1
0.0001564933,-0.000822219,7,1
0.000101067,-0.0007436173,7,1
1.54965e-05,-0.0006204477,7,1
-8.40116e-05,-0.0004502792,7,1
-0.0001627754,-0.0002515871,7,1
-0.0001900023,-5.710876e-05,7,1
-0.0001433275,9.701536e-05,7,1
-1.367526e-05,0.0001921477,7,1
0.0001996027,0.0002258573,7,1
0.0004790034,0.0002025199,7,1
0.0007631041,0.0001351007,7,1
0.0009635791,4.515445e-05,7,1
0.001007337,-4.252288e-05,7,1
0.0008734707,-0.0001068628,7,1
0.0005977973,-0.0001378173,7,1
0.0002629703,-0.0001355484,7,1
-3.409549e-05,-0.0001020008,7,1
-0.0002136638,-3.409549e-05,7,1
-0.0002366771,7.67572e-05,7,1
-0.0001191798,0.0002440086,7,1
7.286763e-05,0.0004762483,7,1
0.0002519498,0.0007749349,7,1
0.0003461098,0.001131641,7,1
0.0003349273,0.001518006,7,1
0.0002511395,0.001873902,7,1
0.0001501728,0.002122997,7,1
7.999851e-05,0.002199168,7,1
6.314371e-05,0.002086856,7,1
9.361199e-05,0.001823824,7,1
0.0001420695,0.001482513,7,1
0.000175455,0.001137962,7,1
0.0001733481,0.0008475402,7,1
0.0001312112,0.0006331276,7,1
5.649903e-05,0.000492779,7,1
-3.571614e-05,0.0004091532,7,1
-0.000127121,0.0003501615,7,1
-0.0002044261,0.0002850112,7,1
-0.000263742,0.0001958752,7,1
-0.0003066893,7.724339e-05,7,1
-0.0003344025,-7.542214e-05,7,1
-0.0003436402,-0.0002600145,7,1
-0.0003303509,-0.00046211,7,1
-0.0002917793,-0.0006586951,7,1
-0.0002329496,-0.000829674,7,1
-0.0001695821,-0.0009675916,7,1
-0.0001256624,-0.001074717,7,1
-0.0001212866,-0.001160125,7,1
-0.000169258,-0.001235161,7,1
-0.0002668213,-0.00131117,7,1
-0.0003940425,-0.001395282,7,1
-0.0005157535,-0.001486363,7,1
-0.0005980827,-0.001574202,7,1
-0.0006206098,-0.001647294,7,1
-0.0005802555,-0.001696724,7,1
-0.0004977643,-0.001712768,7,1
-0.0004040906,-0.001679383,7,1
-0.0003238683,-0.001582954,7,1
-0.0002570974,-0.001411489,7,1
-0.0001898403,-0.001159963,7,1
-0.0001026491,-0.0008277292,7,1
1.517237e-05,-0.0004096008,7,1
0.0001540623,0.0001187321,7,1
0.0002832284,0.000767804,7,1
0.0003749574,0.00151444,7,1
0.0004167703,0.002286846,7,1
0.0004081808,0.002974979,7,1
0.0003527545,0.003463124,7,1
0.0002556773,0.003659387,7,1
0.0001248906,0.003530706,7,1
-2.761287e-05,0.003115977,7,1
-0.0001780095,0.002520869,7,1
-0.0003045825,0.001875523,7,1
-0.0003974459,0.00129322,7,1
-0.0004462276,0.0008378163,7,1
-0.000434883,0.0005196818,7,1
-0.0003433161,0.0003190449,7,1
-0.0001789819,0.0001992786,7,1
9.500085e-06,0.0001253768,7,1
0.0001634622,7.027458e-05,7,1
0.0002456293,2.181705e-05,7,1
0.0002542187,-2.534396e-05,7,1
0.0002094887,-7.201877e-05,7,1
0.0001425557,-0.0001188556,7,1
7.951231e-05,-0.0001624512,7,1
4.369587e-05,-0.0001934057,7,1
4.45062e-05,-0.0002024813,7,1
7.546067e-05,-0.0001870851,7,1
0.0001281319,-0.0001596961,7,1
0.0002021958,-0.0001431655,7,1
0.0002934386,-0.0001540238,7,1
0.0003760919,-0.0001948643,7,1
0.0004047775,-0.0002595283,7,1
0.0003467581,-0.0003303509,7,1
0.0002130541,-0.0003916115,7,1
5.406805e-05,-0.0004292107,7,1
-6.796714e-05,-0.000439907,7,1
-0.0001062146,-0.0004334244,7,1
-5.030202e-05,-0.0004206212,7,1
7.513654e-05,-0.0004113835,7,1
0.0002289366,-0.0004089525,7,1
0.0003751195,-0.0004087905,7,1
0.0004955341,-0.0004074939,7,1
0.0005773771,-0.0004024699,7,1
0.0006096281,-0.000395177,7,1
0.0005858046,-0.0003854531,7,1
0.00051012,-0.0003682741,7,1
0.0003965121,-0.000338292,7,1
0.0002577842,-0.0002961551,7,1
0.0001116012,-0.0002425115,7,1
-2.46957e-05,-0.0001846542,7,1
-0.0001358725,-0.0001339277,7,1
-0.0002144742,-0.0001042698,7,1
-0.0002606628,-0.0001039456,7,1
-0.0002867553,-0.0001360346,7,1
-0.0003110651,-0.0001925954,7,1
-0.0003483401,-0.0002653627,7,1
-0.0003922598,-0.0003400748,7,1
-0.0004212695,-0.0004097628,7,1
-0.0004031182,-0.0004702132,7,1
-0.0003245165,-0.0005183466,7,1
-0.000208964,-0.0005496252,7,1
-0.0001076731,-0.000559025,7,1
-6.423963e-05,-0.000544277,7,1
-8.40116e-05,-0.0005104054,7,1
-0.0001430034,-0.000467296,7,1
-0.0002060468,-0.0004266177,7,1
-0.000253694,-0.0003979321,7,1
-0.0002814071,-0.0003817256,7,1
-0.0002912931,-0.0003760533,7,1
-0.0002840002,-0.0003763774,7,1
-0.0002590421,-0.0003786463,7,1
-0.0002243602,-0.000380267,7,1
-0.0001903264,-0.0003770257,7,1
-0.0001564548,-0.0003674638,7,1
-0.0001191798,-0.0003517435,7,1
-8.790117e-05,-0.0003322956,7,1
-8.174268e-05,-0.0003097686,7,1
-0.0001135075,-0.0002833519,7,1
-0.0001801163,-0.0002528836,7,1
-0.0002580697,-0.0002178775,7,1
-0.0003170615,-0.0001810887,7,1
-0.0003373197,-0.0001454344,7,1
-0.0003115513,-0.0001146419,7,1
-0.0002412149,-9.033215e-05,7,1
-0.0001391138,-6.974985e-05,7,1
-2.923353e-05,-4.997789e-05,7,1
6.330578e-05,-3.150244e-05,7,1
0.0001265113,-1.335113e-05,7,1
0.0001673517,5.286387e-06,7,1
0.0001963614,2.522042e-05,7,1
0.0002180782,4.499239e-05,7,1
0.000230071,6.217132e-05,7,1
0.0002289366,7.335383e-05,7,1
0.0002132162,7.805372e-05,7,1
0.000175455,8.016057e-05,7,1
0.0001047945,8.226741e-05,7,1
8.203562e-06,8.405014e-05,7,1
-8.968389e-05,8.761557e-05,7,1
-0.0001653684,8.664318e-05,7,1
-0.0002086398,7.57848e-05,7,1
-0.0002224154,5.56887e-05,7,1
-0.0002011848,3.526847e-05,7,1
-0.0001224211,2.489629e-05,7,1
1.533444e-05,2.76514e-05,7,1
0.0001759412,4.142696e-05,7,1
0.000314345,5.925414e-05,7,1
0.0004089912,6.978839e-05,7,1
0.0004624728,6.379197e-05,7,1
0.0004759242,4.288554e-05,7,1
0.0004464283,1.727922e-05,7,1
0.0003760919,3.503668e-06,7,1
0.0002861456,1.1769e-05,7,1
0.0002106232,4.661304e-05,7,1
0.0001723757,0.0001031738,7,1
0.0001678379,0.000175455,7,1
0.0001837203,0.0002592428,7,1
0.0002080301,0.0003504856,7,1
0.0002312055,0.0004462662,7,1
0.0002467637,0.0005392918,7,1
0.0002475741,0.0006175694,7,1
0.0002265056,0.0006708889,7,1
0.0001825859,0.0007036261,7,1
0.0001232699,0.0007323117,7,1
6.427817e-05,0.0007747728,7,1
2.149292e-05,0.0008381404,7,1
1.072688e-06,0.0009092872,7,1
-3.303076e-06,0.0009621205,7,1
4.244267e-07,0.0009773547,7,1
8.041497e-06,0.0009481829,7,1
1.873781e-05,0.0008776844,7,1
3.364782e-05,0.0007794728,7,1
4.855783e-05,0.0006720233,7,1
5.585077e-05,0.0005699221,7,1
4.936815e-05,0.0004840274,7,1
2.570662e-05,0.0004188772,7,1
-1.659243e-05,0.0003722023,7,1
-8.255302e-05,0.000339141,7,1
-0.0001789819,0.0003125623,7,1
-0.0003073376,0.0002853353,7,1
-0.000457248,0.0002543808,7,1
-0.0006118583,0.0002169437,7,1
-0.0007640376,0.0001767515,7,1
-0.0009055205,0.0001417454,7,1
-0.001012322,0.0001206769,7,1
-0.001042304,0.0001122495,7,1
-0.000943768,0.0001054428,7,1
-0.0006812222,9.231547e-05,7,1
-0.0002773555,6.978839e-05,7,1
0.0001694586,3.624086e-05,7,1
0.0005388056,-1.140634e-05,7,1
0.0007665075,-7.363943e-05,7,1
0.0008525642,-0.0001507825,7,1
0.0008326302,-0.0002353806,7,1
0.0007421977,-0.0003151167,7,1
0.0006073592,-0.0003856151,7,1
0.0004517764,-0.0004470379,7,1
0.0003028383,-0.0005023021,7,1
0.0001898788,-0.0005543251,7,1
0.0001310491,-0.0006058619,7,1
0.0001132219,-0.0006548056,7,1
0.0001052807,-0.0006949978,7,1
8.534666e-05,-0.0007212523,7,1
6.006447e-05,-0.0007298418,7,1
6.055066e-05,-0.0007209282,7,1
0.0001018773,-0.0006961322,7,1
0.0001650828,-0.0006599916,7,1
0.000215161,-0.0006175305,7,1
0.0002243987,-0.000568911,7,1
0.000177886,-0.0005152673,7,1
8.712937e-05,-0.0004632444,7,1
-2.064406e-05,-0.0004186764,7,1
-0.0001071869,-0.0003891806,7,1
-0.0001413827,-0.0003775118,7,1
-0.0001164247,-0.0003763774,7,1
-5.678463e-05,-0.0003673017,7,1
-2.168618e-06,-0.0003334301,7,1
2.246531e-05,-0.0002653627,7,1
1.630683e-05,-0.0001673132,7,1
1.883015e-06,-5.532604e-05,7,1
3.503668e-06,4.953022e-05,7,1
2.716521e-05,0.0001260251,7,1
6.152305e-05,0.0001598967,7,1
9.118101e-05,0.0001511452,7,1
0.0001090082,0.0001214872,7,1
0.0001195424,9.863601e-05,7,1
0.0001339663,9.68533e-05,7,1
0.0001608691,0.0001154908,7,1
0.0001996027,0.0001427178,7,1
0.000247412,0.000160707,7,1
0.0003015418,0.0001592484,7,1
0.0003581026,0.0001367214,7,1
0.0004052637,9.977047e-05,7,1
0.000423415,6.330578e-05,7,1
0.0004042913,4.434413e-05,7,1
0.0003509718,5.536457e-05,7,1
0.0002765838,0.0001065772,7,1
0.0001955511,0.0001936063,7,1
0.0001179218,0.0003013798,7,1
4.45062e-05,0.0004073705,7,1
-2.031993e-05,0.0004956961,7,1
-6.958779e-05,0.0005520949,7,1
-9.584238e-05,0.000567005,7,1
-0.0001041077,0.0005355643,7,1
-9.762509e-05,0.0004553419,7,1
-7.833932e-05,0.0003289309,7,1
-5.370539e-05,0.0001686482,7,1
-4.236082e-05,-3.951337e-06,7,1
-6.148453e-05,-0.0001622891,7,1
-0.0001139937,-0.0002916173,7,1
-0.0001969711,-0.0003859393,7,1
-0.0003073376,-0.0004535205,7,1
-0.0004331002,-0.000509433,7,1
-0.0005478425,-0.0005651835,7,1
-0.0006133168,-0.0006159099,7,1
-0.0005940311,-0.0006441093,7,1
-0.0004768579,-0.0006300096,7,1
-0.0002844864,-0.0005570802,7,1
-7.299116e-05,-0.0004198109,7,1
8.696731e-05,-0.0002316531,7,1
0.0001501728,-1.173047e-05,7,1
0.0001222976,0.0002323399,7,1
5.309566e-05,0.0005067165,7,1
3.503668e-06,0.0008237166,7,1
5.124321e-06,0.001181719,7,1
5.228533e-05,0.001541505,7,1
0.000113546,0.001836789,7,1
0.0001547106,0.002008579,7,1
0.0001501728,0.002028513,7,1
9.393612e-05,0.001902101,7,1
1.002961e-07,0.001666944,7,1
-0.0001076731,0.001370202,7,1
-0.0002084778,0.001061143,7,1
-0.0002942103,0.0007749349,7,1
-0.0003697327,0.0005287575,7,1
-0.0004407173,0.0003260137,7,1
-0.0005102433,0.0001603829,7,1
-0.0005723144,1.954813e-05,7,1
-0.0006074825,-0.0001050801,7,1
-0.0006001896,-0.0002186879,7,1
-0.0005478425,-0.0003217614,7,1
-0.0004666478,-0.0004121938,7,1
-0.0003750809,-0.0004836646,7,1
-0.0002893484,-0.0005374703,7,1
-0.0002207947,-0.0005807417,7,1
-0.000181737,-0.0006207718,7,1
-0.0001765509,-0.0006617744,7,1
-0.0001969711,-0.0007073147,7,1
-0.0002196603,-0.000757555,7,1
-0.0002182017,-0.0008068228,7,1
-0.0001723372,-0.0008450702,7,1
-7.752899e-05,-0.0008705144,7,1
5.115087e-05,-0.0008953104,7,1
0.0001842065,-0.0009286959,7,1
0.0002931144,-0.0009638641,7,1
0.0003498373,-0.0009902808,7,1
0.0003326584,-0.0009975737,7,1
0.0002402811,-0.0009799085,7,1
0.0001026876,-0.0009406887,7,1
-3.166451e-05,-0.0008894761,7,1
-0.0001162626,-0.0008355084,7,1
-0.0001256624,-0.000785106,7,1
-6.002594e-05,-0.0007335693,7,1
5.439218e-05,-0.0006638812,7,1
0.0001775618,-0.0005685869,7,1
0.0002801492,-0.0004583824,7,1
0.0003512959,-0.0003544986,7,1
0.0003952156,-0.0002789762,7,1
0.0004166082,-0.0002353806,7,1
0.0004182289,-0.0002175534,7,1
0.0004075326,-0.000206533,7,1
0.0003908399,-0.0001814128,7,1
0.0003744712,-0.0001295519,7,1
0.0003603715,-4.835724e-05,7,1
0.0003443271,6.168512e-05,7,1
0.0003297412,0.0002044647,7,1
0.0003174242,0.0003866261,7,1
0.0003080245,0.0006007145,7,1
0.0002987867,0.0008096169,7,1
0.0002885766,0.0009535311,7,1
0.000284687,0.0009862683,7,1
0.0002940868,0.0008942151,7,1
0.0003133726,0.0007055709,7,1
0.0003252034,0.0004726828,7,1
0.0003107795,0.0002495189,7,1
0.0002608634,7.384002e-05,7,1
0.0001791825,-3.798505e-05,7,1
7.027458e-05,-8.919769e-05,7,1
-6.44017e-05,-9.568031e-05,7,1
-0.0002253326,-7.769106e-05,7,1
-0.0004039285,-5.402952e-05,7,1
-0.0005843072,-3.652646e-05,7,1
-0.0007488034,-3.344723e-05,7,1
-0.000874242,-4.754691e-05,7,1
-0.0009385819,-7.769106e-05,7,1
-0.0009280476,-0.0001130213,7,1
-0.0008359946,-0.0001358725,7,1
-0.0006857601,-0.0001329553,7,1
-0.0005301774,-0.0001032974,7,1
-0.0004228902,-5.905355e-05,7,1
-0.0003854531,-2.09682e-05,7,1
-0.0004014975,-6.220252e-06,7,1
-0.000430021,-1.594417e-05,7,1
-0.0004170558,-3.733679e-05,7,1
-0.0003159271,-5.727083e-05,7,1
-0.0001212866,-6.423963e-05,7,1
0.0001177597,-5.354332e-05,7,1
0.0003183966,-3.101625e-05,7,1
0.0004200116,-7.516774e-06,7,1
0.0004200116,4.151929e-06,7,1
0.0003631267,4.244267e-07,7,1
0.0003012177,-1.562004e-05,7,1
0.0002603772,-3.798505e-05,7,1
0.0002401191,-6.051213e-05,7,1
0.000232502,-7.882551e-05,7,1
0.0002360674,-9.049421e-05,7,1
0.0002545429,-9.551824e-05,7,1
0.0002848491,-9.730096e-05,7,1
0.0003205035,-9.940781e-05,7,1
0.0003496752,-0.000104756,7,1
0.0003632887,-0.0001170729,7,1
0.0003524304,-0.0001391138,7,1
0.0003230965,-0.0001712027,7,1
0.000297004,-0.0002099363,7,1
0.000297004,-0.0002454286,7,1
0.0003297412,-0.0002653627,7,1
0.0003704196,-0.0002632558,7,1
0.0003769022,-0.0002402425,7,1
0.0003179104,-0.0002023193,7,1
0.0001955511,-0.0001575893,7,1
4.304761e-05,-0.0001138316,7,1
-8.611845e-05,-7.347736e-05,7,1
-0.0001502963,-3.847125e-05,7,1
-0.0001363587,-1.108221e-05,7,1
-5.111234e-05,7.393236e-06,7,1
7.400208e-05,2.100672e-05,7,1
0.0001850168,3.024445e-05,7,1
0.0002376881,3.60788e-05,7,1
0.0002227781,3.089271e-05,7,1
0.0001782101,1.193106e-05,7,1
0.0001545486,-2.194059e-05,7,1
0.0001717275,-6.342931e-05,7,1
0.000210299,-0.0001083214,7,1
0.0002339606,-0.0001540238,7,1
0.0002114335,-0.0002011848,7,1
0.0001352628,-0.0002460769,7,1
2.992031e-05,-0.0002802727,7,1
-7.60704e-05,-0.0002995585,7,1
-0.0001611547,-0.0002980999,7,1
-0.0002209568,-0.000268604,7,1
-0.0002634179,-0.0002112329,7,1
-0.0002953447,-0.0001327933,7,1
-0.0003167374,-4.754691e-05,7,1
-0.0003254889,3.202716e-05,7,1
-0.0003269475,9.928428e-05,7,1
-0.0003285682,0.0001539003,7,1
-0.0003295405,0.0002067336,7,1
-0.0003279199,0.0002731804,7,1
-0.0003211132,0.0003605336,7,1
-0.0003073376,0.0004723587,7,1
-0.0002793003,0.0006086557,7,1
-0.000221443,0.0007692626,7,1
-0.0001277692,0.0009512621,7,1
-1.286493e-05,0.001153196,7,1
8.891209e-05,0.001373281,7,1
0.0001514693,0.001599038,7,1
0.0001637863,0.001803565,7,1
0.0001344524,0.001946183,7,1
8.097089e-05,0.001985889,7,1
1.727922e-05,0.001905181,7,1
-6.035007e-05,0.001712484,7,1
-0.0001538618,0.00143438,7,1
-0.0002523975,0.0011049,7,1
-0.000335699,0.00076278,7,1
-0.0003723258,0.0004373526,7,1
-0.0003230579,0.0001495245,7,1
-0.0001707166,-9.033215e-05,7,1
5.94162e-05,-0.0002789762,7,1
0.000292142,-0.0004295348,7,1
0.0004525868,-0.0005578905,7,1
0.0005067165,-0.0006770085,7,1
0.000467983,-0.0008003402,7,1
0.0003733368,-0.0009329096,7,1
0.0002621599,-0.001065155,7,1
0.0001675138,-0.001172928,7,1
0.0001083599,-0.001228193,7,1
9.344993e-05,-0.001213769,7,1
0.0001153287,-0.001133871,7,1
0.0001527658,-0.0009996805,7,1
0.0001791825,-0.0008102262,7,1
0.000180479,-0.0005476804,7,1
0.0001595726,-0.0001848162,7,1
0.0001334801,0.000287118,7,1
0.0001180839,0.0008237166,7,1
0.0001269974,0.001335358,7,1
0.0001589243,0.001715239,7,1
0.0002021958,0.001884274,7,1
0.0002344468,0.001822851,7,1
0.0002427121,0.001576025,7,1
0.0002256952,0.001226287,7,1
0.0001885823,0.0008590469,7,1
0.0001376938,0.0005388056,7,1
7.6271e-05,0.000294573,7,1
4.244267e-07,0.0001269974,7,1
-9.065628e-05,1.663096e-05,7,1
-0.000196647,-6.229485e-05,7,1
-0.0003068514,-0.0001310105,7,1
-0.0004071698,-0.0001964849,7,1
-0.0004864197,-0.0002545043,7,1
-0.0005431426,-0.0002987481,7,1
-0.0005742591,-0.0003250027,7,1
-0.0005749074,-0.0003379679,7,1
-0.0005455735,-0.0003488263,7,1
-0.0004856094,-0.0003687603,7,1
-0.0003974459,-0.0004024699,7,1
-0.0002898345,-0.000444931,7,1
-0.0001789819,-0.0004839888,7,1
-8.692878e-05,-0.0005139708,7,1
-2.971972e-05,-0.0005381186,7,1
-1.335113e-05,-0.0005622663,7,1
-3.377136e-05,-0.0005894933,7,1
-7.898758e-05,-0.0006197995,7,1
-0.0001336036,-0.0006488092,7,1
-0.0001663408,-0.00067085,7,1
-0.0001447861,-0.0006810602,7,1
-5.159854e-05,-0.0006808981,7,1
0.0001083599,-0.0006753879,7,1
0.0003025142,-0.0006663122,7,1
0.0004775448,-0.0006536711,7,1
0.0005879114,-0.0006407059,7,1
0.0006107626,-0.0006257959,7,1
0.0005532294,-0.000608617,7,1
0.00044578,-0.0005893312,7,1
0.0003255275,-0.0005627525,7,1
0.0002227781,-0.0005227224,7,1
0.0001513072,-0.0004715097,7,1
0.0001051186,-0.0004120317,7,1
7.076078e-05,-0.000343154,7,1
3.397195e-05,-0.0002655248,7,1
-1.383732e-05,-0.000186761,7,1
-6.667062e-05,-0.0001167488,7,1
-0.0001092938,-6.618442e-05,7,1
-0.0001313347,-4.414354e-05,7,1
-0.0001295519,-5.143648e-05,7,1
-0.0001125351,-7.931171e-05,7,1
-9.892161e-05,-0.0001114006,7,1
-0.0001008664,-0.000137169,7,1
-0.0001177212,-0.0001527273,7,1
-0.0001318209,-0.0001605064,7,1
-0.000122259,-0.0001645581,7,1
-8.628052e-05,-0.0001673132,7,1
-4.365734e-05,-0.0001737958,7,1
-2.437157e-05,-0.0001885437,7,1
-4.916756e-05,-0.0002113949,7,1
-0.0001161005,-0.0002441321,7,1
-0.0002000504,-0.0002830278,7,1
-0.0002658489,-0.0003173856,7,1
-0.0002793003,-0.0003415334,7,1
-0.0002194982,-0.0003496366,7,1
-9.535618e-05,-0.0003428299,7,1
5.779555e-05,-0.0003303509,7,1
0.0002021958,-0.0003311612,7,1
0.000309321,-0.0003673017,7,1
0.0003694472,-0.0004491447,7,1
0.000386302,-0.0005728005,7,1
0.0003616681,-0.0007220627,7,1
0.0002983005,-0.0008722972,7,1
0.000207706,-0.0009982219,7,1
0.0001020394,-0.001081523,7,1
-8.165035e-06,-0.00111183,7,1
-0.0001139937,-0.00109384,7,1
-0.0002013469,-0.001030473,7,1
-0.000253856,-0.0009167031,7,1
-0.0002574215,-0.0007374589,7,1
-0.0002120432,-0.00048723,7,1
-0.0001274451,-0.0001736337,7,1
-2.955766e-05,0.0001863134,7,1
4.402e-05,0.0005809425,7,1
6.492643e-05,0.0009951819,7,1
2.489629e-05,0.00138657,7,1
-5.532604e-05,0.001697088,7,1
-0.0001327933,0.001877143,7,1
-0.0001750923,0.001902263,7,1
-0.0001747682,0.001793193,7,1
-0.0001459206,0.001608762,7,1
-0.0001146419,0.001419308,7,1
-0.0001011905,0.001277014,7,1
-0.0001101041,0.001206515,7,1
-0.0001340898,0.001205543,7,1
-0.0001533756,0.001260483,7,1
-0.0001441378,0.00135205,7,1
-9.017008e-05,0.0014548,7,1
-2.238346e-07,0.001539398,7,1
9.150514e-05,0.001570677,7,1
0.0001574657,0.001521895,7,1
0.0001932822,0.001387056,7,1
0.0002128921,0.001183664,7,1
0.0002337985,0.0009442933,7,1
0.0002684805,0.0007018434,7,1
0.0003172622,0.0004820827,7,1
0.0003592371,0.0003017039,7,1
0.0003653956,0.000160545,7,1
0.0003161277,4.985435e-05,7,1
0.0002216436,-4.187462e-05,7,1
0.0001193804,-0.0001227452,7,1
5.455425e-05,-0.0001912988,7,1
5.374392e-05,-0.0002475355,7,1
0.0001022015,-0.000285945,7,1
0.000155521,-0.0003027998,7,1
0.0001733481,-0.0003013411,7,1
0.0001443384,-0.0002895104,7,1
7.351589e-05,-0.0002700626,7,1
-2.388537e-05,-0.0002485079,7,1
-0.0001211246,-0.0002280877,7,1
-0.0001887058,-0.0002182017,7,1
-0.0002058847,-0.000228898,7,1
-0.0001728234,-0.000256287,7,1
-0.0001058904,-0.0002896725,7,1
-3.733679e-05,-0.0003215994,7,1
-3.789272e-06,-0.0003517435,7,1
-2.566809e-05,-0.0003760533,7,1
-9.762509e-05,-0.0003904771,7,1
-0.0001851404,-0.0003930701,7,1
-0.0002425115,-0.0003908012,7,1
-0.0002378116,-0.0003922598,7,1
-0.0001724993,-0.0004003631,7,1
-6.569822e-05,-0.0004057112,7,1
4.807163e-05,-0.000405063,7,1
0.0001292664,-0.0003992286,7,1
0.0001563313,-0.0003925839,7,1
0.0001409351,-0.0003908012,7,1
0.0001083599,-0.0003974459,7,1
8.323981e-05,-0.0004074939,7,1
8.178122e-05,-0.0004154351,7,1
0.0001056048,-0.0004186764,7,1
0.0001360731,-0.0004154351,7,1
0.0001425557,-0.000410087,7,1
0.0001028497,-0.0004037664,7,1
1.322759e-05,-0.0003961493,7,1
-0.0001110765,-0.0003870737,7,1
-0.0002345703,-0.0003734602,7,1
-0.0003177098,-0.0003527159,7,1
-0.0003292164,-0.0003214373,7,1
-0.0002627696,-0.0002802727,7,1
-0.0001498101,-0.0002316531,7,1
-3.766092e-05,-0.0001901644,7,1
3.283749e-05,-0.0001736337,7,1
4.888196e-05,-0.0001924333,7,1
2.052053e-05,-0.0002421874,7,1
-3.652646e-05,-0.0003052308,7,1
-0.0001079973,-0.0003606571,7,1
-0.0001796301,-0.0003945287,7,1
-0.0002370013,-0.0004014975,7,1
-0.0002671454,-0.000382698,7,1
-0.0002733039,-0.0003450988,7,1
-0.0002671454,-0.0002985861,7,1
-0.0002579077,-0.0002525595,7,1
-0.0002501286,-0.0002182017,7,1
-0.0002423494,-0.0001971332,7,1
-0.000238784,-0.0001883817,7,1
-0.0002366771,-0.0001815749,7,1
-0.0002246843,-0.0001637477,7,1
-0.0001922712,-0.000122259,7,1
-0.0001327933,-5.824322e-05,7,1
-5.062615e-05,1.857574e-05,7,1
3.575467e-05,9.68533e-05,7,1
0.0001043083,0.0001620036,7,1
0.000145635,0.0001994406,7,1
0.0001696206,0.0002065715,7,1
0.0001897167,0.0001940925,7,1
0.0002107852,0.0001785342,7,1
0.0002235884,0.0001808031,7,1
0.0002219677,0.0002161334,7,1
0.0002114335,0.0002840388,7,1
0.000207706,0.0003691231,7,1
0.0002135403,0.0004491834,7,1
0.0002211574,0.0005067165,7,1
0.0002219677,0.0005383193,7,1
0.0002132162,0.0005478812,7,1
0.0002008992,0.0005439916,7,1
0.0001837203,0.0005336195,7,1
0.0001534141,0.0005133613,7,1
0.0001086841,0.0004725208,7,1
6.119892e-05,0.0004052637,7,1
3.364782e-05,0.000316938,7,1
3.834771e-05,0.000220023,7,1
7.027458e-05,0.0001346145,7,1
0.0001156529,7.20573e-05,7,1
0.0001576278,4.337174e-05,7,1
0.0001717275,5.260946e-05,7,1
0.0001376938,9.507057e-05,7,1
4.936815e-05,0.0001597346,7,1
-7.65566e-05,0.0002302331,7,1
-0.0002058847,0.0002931144,7,1
-0.0002942103,0.0003396272,7,1
-0.0003023136,0.0003668542,7,1
-0.0002029675,0.0003780367,7,1
1.396819e-06,0.0003741471,7,1
0.0002542187,0.0003563199,7,1
0.0004600418,0.0003218,7,1
0.0005321609,0.0002613496,7,1
0.0004521006,0.0001650828,7,1
0.0002866318,3.121684e-05,7,1
0.0001368834,-0.0001209625,7,1
7.027458e-05,-0.0002642282,7,1
0.0001041462,-0.0003810773,7,1
0.0002146748,-0.0004715097,7,1
0.0003511338,-0.000546708,7,1
0.0004491834,-0.0006209339,7,1
0.0004632831,-0.0006966184,7,1
0.0003882468,-0.0007682513,7,1
0.0002506533,-0.0008288636,7,1
9.004655e-05,-0.0008752144,7,1
-5.678463e-05,-0.0009132997,7,1
-0.0001679614,-0.0009518713,7,1
-0.0002434839,-0.001001463,7,1
-0.0002875656,-0.001072772,7,1
-0.0003084721,-0.001167418,7,1
-0.000310741,-0.001263523,7,1
-0.0003024756,-0.001324459,7,1
-0.0002943724,-0.001318139,7,1
-0.0002995585,-0.001240347,7,1
-0.0003214373,-0.001103564,7,1
-0.0003491504,-0.0009251304,7,1
-0.0003630881,-0.0007115284,7,1
-0.0003447747,-0.0004601652,7,1
-0.000298424,-0.0001728234,7,1
-0.0002459149,0.0001211631,7,1
-0.0002104225,0.0003647473,7,1
-0.0002088019,0.0004965065,7,1
-0.0002360289,0.0004833792,7,1
-0.0002642282,0.0003508097,7,1
-0.0002579077,0.0001717275,7,1
-0.000196647,3.883391e-05,7,1
-8.563225e-05,2.781346e-05,7,1
4.839576e-05,0.0001759412,7,1
0.0001654069,0.0004825689,7,1
0.0002370398,0.000928573,7,1
0.0002607014,0.00149953,7,1
0.0002446569,0.002182313,7,1
0.0002023578,0.002934462,7,1
0.0001527658,0.003656794,7,1
0.0001103047,0.00421706,7,1
7.918817e-05,0.004488523,7,1
5.779555e-05,0.004402789,7,1
5.309566e-05,0.003982224,7,1
6.622294e-05,0.003323584,7,1
8.810177e-05,0.002555227,7,1
0.0001039842,0.001802107,7,1
0.0001072255,0.001150765,7,1
9.960841e-05,0.0006428516,7,1
8.810177e-05,0.0002778803,7,1
7.983644e-05,3.348575e-05,7,1
7.837785e-05,-0.0001242038,7,1
8.161915e-05,-0.0002303566,7,1
8.956036e-05,-0.0003115513,7,1
9.928428e-05,-0.0003820497,7,1
0.0001041462,-0.0004436345,7,1
9.004655e-05,-0.0004941989,7,1
5.034055e-05,-0.0005287188,7,1
-1.20546e-05,-0.0005475183,7,1
-8.368748e-05,-0.0005564319,7,1
-0.000144462,-0.0005656697,7,1
-0.0001778474,-0.0005849554,7,1
-0.0001780095,-0.0006207718,7,1
-0.0001480274,-0.0006739292,7,1
-9.908367e-05,-0.0007421587,7,1
-4.38194e-05,-0.0008167088,7,1
6.096713e-06,-0.0008839659,7,1
4.337174e-05,-0.0009316131,7,1
6.751948e-05,-0.0009517092,7,1
8.712937e-05,-0.0009484679,7,1
0.0001127357,-0.0009325854,7,1
0.0001433661,-0.0009173513,7,1
0.0001662173,-0.0009085998,7,1
0.0001701068,-0.000904224,7,1
0.0001487142,-0.0008974173,7,1
0.0001114392,-0.0008820211,7,1
7.238143e-05,-0.0008554424,7,1
3.543054e-05,-0.0008175191,7,1
-8.720959e-07,-0.0007711684,7,1
-3.441962e-05,-0.0007235213,7,1
-5.402952e-05,-0.0006791154,7,1
-5.192267e-05,-0.0006424887,7,1
-2.7937e-05,-0.0006181788,7,1
1.12828e-05,-0.0006078067,7,1
5.471631e-05,-0.000606186,7,1
9.296373e-05,-0.0006108859,7,1
0.0001150046,-0.0006197995,7,1
0.0001023635,-0.0006319543,7,1
3.721326e-05,-0.0006454058,7,1
-7.914964e-05,-0.0006573986,7,1
-0.0002217671,-0.0006646916,7,1
-0.0003420196,-0.0006645294,7,1
-0.0003893426,-0.0006570745,7,1
-0.0003491504,-0.0006426507,7,1
-0.000251101,-0.0006225546,7,1
-0.0001499722,-0.0005959758,7,1
-9.713889e-05,-0.0005632387,7,1
-0.00010978,-0.0005233706,7,1
-0.0001665028,-0.0004778303,7,1
-0.0002241981,-0.0004306693,7,1
-0.0002468872,-0.0003882082,7,1
-0.0002220912,-0.0003553089,7,1
-0.0001580754,-0.0003305129,7,1
-7.850138e-05,-0.0003049066,7,1
-2.330684e-06,-0.0002692523,7,1
5.682316e-05,-0.0002182017,7,1
9.004655e-05,-0.0001485136,7,1
8.810177e-05,-7.039812e-05,7,1
4.985435e-05,-4.761664e-06,7,1
-1.497178e-05,2.667901e-05,7,1
-9.405965e-05,1.112074e-05,7,1
-0.0001695821,-4.625038e-05,7,1
-0.0002212809,-0.0001258245,7,1
-0.0002253326,-0.0002086398,7,1
-0.0001635857,-0.0002818933,7,1
-4.560212e-05,-0.000333106,7,1
7.983644e-05,-0.0003564434,7,1
0.000155683,-0.0003541745,7,1
0.0001603829,-0.0003305129,7,1
0.0001098185,-0.000286107,7,1
3.332369e-05,-0.0002224154,7,1
-4.835724e-05,-0.0001507825,7,1
-0.0001255003,-8.644259e-05,7,1
-0.0001856265,-3.944364e-05,7,1
-0.0002138259,-8.165035e-06,7,1
-0.0001997262,1.54965e-05,7,1
-0.0001454344,4.45062e-05,7,1
-6.764301e-05,9.377406e-05,7,1
1.031041e-05,0.0001675138,7,1
6.362991e-05,0.0002569738,7,1
7.967438e-05,0.0003428685,7,1
6.233338e-05,0.0004088291,7,1
3.267542e-05,0.0004467524,7,1
8.689758e-06,0.0004524247,7,1
-3.789272e-06,0.0004287631,7,1
-7.192643e-06,0.0003833848,7,1
-4.437533e-06,0.0003284447,7,1
6.744974e-06,0.0002791768,7,1
3.18651e-05,0.0002472499,7,1
6.897806e-05,0.0002329882,7,1
0.0001088461,0.0002333123,7,1
0.0001448246,0.0002430362,7,1
0.0001773998,0.0002618358,7,1
0.0002106232,0.0002913317,7,1
0.0002436845,0.0003326584,7,1
0.0002710735,0.0003867882,7,1
0.0002786906,0.0004478869,7,1
0.0002560015,0.0005063924,7,1
0.0002020337,0.0005511225,7,1
0.0001315353,0.0005742979,7,1
7.238143e-05,0.0005739738,7,1
4.223728e-05,0.0005559844,7,1
4.175109e-05,0.0005251921,7,1
5.115087e-05,0.0004890515,7,1
3.996837e-05,0.0004533971,7,1
-1.448558e-05,0.0004255218,7,1
-0.0001044318,0.000410936,7,1
-0.0001885437,0.0004083429,7,1
-0.0002118811,0.0004140152,7,1
-0.0001499722,0.0004243874,7,1
-1.027188e-05,0.0004303838,7,1
0.0001809652,0.0004226047,7,1
0.0003940812,0.0004004017,7,1
0.0005906665,0.000373985,7,1
0.0007104329,0.0003546993,7,1
0.0007060571,0.0003522683,7,1
0.0005785116,0.0003665301,7,1
0.0003710679,0.0003858158,7,1
0.0001373696,0.0003900295,7,1
-7.995997e-05,0.000368961,7,1
-0.000246239,0.0003286068,7,1
-0.0003361852,0.0002851732,7,1
-0.0003418575,0.0002457913,7,1
-0.0002789762,0.000207706,7,1
-0.0001807646,0.0001637863,7,1
-8.935975e-05,0.0001137081,7,1
-4.122636e-05,5.99024e-05,7,1
-5.208474e-05,4.80019e-06,7,1
-0.0001131834,-5.743289e-05,7,1
-0.0001924333,-0.0001269589,7,1
-0.0002528836,-0.0002050744,7,1
-0.0002741142,-0.0002887001,7,1
-0.0002561249,-0.0003643846,7,1
-0.000208964,-0.0004230522,7,1
-0.000147055,-0.0004619479,7,1
-8.952183e-05,-0.000482206,7,1
-5.305713e-05,-0.000489499,7,1
-4.398147e-05,-0.0004948471,7,1
-6.0188e-05,-0.000509433,7,1
-8.595638e-05,-0.0005376324,7,1
-9.000802e-05,-0.0005736109,7,1
-4.673658e-05,-0.0006001896,7,1
4.337174e-05,-0.0006001896,7,1
0.000148228,-0.0005651835,7,1
0.0002263435,-0.0004937127,7,1
0.0002561635,-0.0003971218,7,1
0.0002363916,-0.0002872415,7,1
0.0001796687,-0.00016942,7,1
0.000110953,-4.138842e-05,7,1
6.006447e-05,0.000105929,7,1
4.77475e-05,0.000277232,7,1
8.405014e-05,0.0004717105,7,1
0.0001660552,0.0006822334,7,1
0.0002715597,0.0008974564,7,1
0.000363937,0.001107979,7,1
0.0004031568,0.001303755,7,1
0.0003642611,0.001465496,7,1
0.0002532463,0.001565653,7,1
9.717743e-05,0.001585911,7,1
-6.861539e-05,0.001525461,7,1
-0.000216581,0.001398725,7,1
-0.0003329439,0.001229367,7,1
-0.0004049009,0.001049636,7,1
-0.0004165696,0.0008854635,7,1
-0.0003694086,0.0007490044,7,1
-0.0002864312,0.000643986,7,1
-0.0001961608,0.0005658705,7,1
-0.0001178833,0.0004979651,7,1
-5.629844e-05,0.0004188772,7,1
-5.247859e-06,0.0003136967,7,1
4.45062e-05,0.0001827479,7,1
0.0001017153,3.13789e-05,7,1
0.0001639484,-0.0001285796,7,1
0.0002138645,-0.0002827037,7,1
0.00022764,-0.0004212695,7,1
0.000195227,-0.0005387668,7,1
0.0001276457,-0.000633575,7,1
5.860588e-05,-0.0007060182,7,1
3.380988e-05,-0.0007591756,7,1
7.886404e-05,-0.0008050401,7,1
0.0001856651,-0.0008543079,7,1
0.0003146691,-0.0009084377,7,1
0.000418553,-0.0009632158,7,1
0.0004550177,-0.00101216,7,1
0.0004075326,-0.001051703,7,1
0.0002974902,-0.001078768,7,1
0.0001744826,-0.001089627,7,1
8.453633e-05,-0.001080875,7,1
5.293359e-05,-0.001047652,7,1
7.043665e-05,-0.0009803947,7,1
0.0001030118,-0.0008729455,7,1
0.0001116012,-0.000725304,7,1
7.286763e-05,-0.0005387668,7,1
-1.416145e-05,-0.0003079858,7,1
-0.0001293899,-2.907146e-05,7,1
-0.0002348944,0.0002767458,7,1
-0.0002901587,0.000549826,7,1
-0.0002674695,0.0007195085,7,1
-0.0001715269,0.0007425218,7,1
-4.706071e-05,0.0006331276,7,1
5.098881e-05,0.000450642,7,1
8.307774e-05,0.0002715597,7,1
4.434413e-05,0.0001524417,7,1
-4.268495e-05,0.0001072255,7,1
-0.000144462,0.0001205148,7,1
-0.0002232257,0.0001564933,7,1
-0.0002559629,0.0001798307,7,1
-0.0002407288,0.0001647587,7,1
-0.0001961608,0.000106091,7,1
-0.0001522411,1.776542e-05,7,1
-0.0001342519,-7.65566e-05,7,1
-0.0001528894,-0.0001556445,7,1
-0.0002005366,-0.0002084778,7,1
-0.0002564491,-0.0002374874,7,1
-0.0003003688,-0.0002541802,7,1
-0.0003206269,-0.0002690902,7,1
-0.0003147926,-0.0002927517,7,1
-0.000290969,-0.0003290543,7,1
-0.0002689281,-0.0003781601,7,1
-0.0002668213,-0.0004298589,7,1
-0.0002906449,-0.0004755614,7,1
-0.0003309991,-0.0005110537,7,1
-0.0003685983,-0.0005345531,7,1
-0.0003838324,-0.0005471942,7,1
-0.0003673017,-0.0005507597,7,1
-0.0003194925,-0.0005439529,7,1
-0.0002561249,-0.0005305015,7,1
-0.0002099363,-0.0005129984,7,1
-0.000206533,-0.0004904714,7,1
-0.0002426735,-0.000454817,7,1
-0.0002887001,-0.0004078181,7,1
-0.0003079858,-0.0003630881,7,1
-0.0002681178,-0.0003369955,7,1
-0.000159534,-0.0003347266,7,1
-1.043395e-05,-0.0003536883,7,1
0.0001268354,-0.0003856151,7,1
0.0002090025,-0.0004219178,7,1
0.0002239125,-0.0004588687,7,1
0.0001846927,-0.0004935506,7,1
0.0001185701,-0.0005186707,7,1
5.19612e-05,-0.0005317981,7,1
2.623614e-07,-0.0005334187,7,1
-3.279896e-05,-0.0005300153,7,1
-4.446767e-05,-0.00052175,7,1
-3.441962e-05,-0.0005141329,7,1
-9.461558e-06,-0.0005123502,7,1
2.003433e-05,-0.0005113778,7,1
4.531652e-05,-0.0004979264,7,1
6.703327e-05,-0.0004538446,7,1
9.442231e-05,-0.000370543,7,1
0.000128456,-0.0002470493,7,1
0.0001545486,-8.239095e-05,7,1
0.0001501728,0.000120839,7,1
9.750156e-05,0.0003572923,7,1
-6.058186e-06,0.0006276174,7,1
-0.0001324691,0.0009305178,7,1
-0.0002198223,0.001244925,7,1
-0.0001833576,0.001522867,7,1
3.218923e-05,0.00170276,7,1
0.0003978086,0.001738091,7,1
0.0007982723,0.001618162,7,1
0.001097445,0.001369391,7,1
0.001206515,0.001049474,7,1
0.001117055,0.0007243705,7,1
0.0008903255,0.0004509661,7,1
0.000611735,0.0002585945,7,1
0.0003563199,0.0001485521,7,1
0.0001626518,0.0001023635,7,1
4.207521e-05,9.490851e-05,7,1
-1.772689e-05,0.000106091,7,1
-3.863332e-05,0.0001200286,7,1
-3.895745e-05,0.0001214872,7,1
-3.441962e-05,0.0001052807,7,1
-3.134038e-05,7.400208e-05,7,1
-1.578211e-05,3.510641e-05,7,1
2.619281e-05,-2.978945e-06,7,1
9.231547e-05,-2.664048e-05,7,1
0.000165569,-2.404744e-05,7,1
0.0002180782,3.665733e-06,7,1
0.0002269918,4.35338e-05,7,1
0.0001864754,8.275361e-05,7,1
0.0001064152,0.0001221355,7,1
1.22552e-05,0.0001683241,7,1
-6.44017e-05,0.0002258573,7,1
-9.956988e-05,0.0002914938,7,1
-8.757704e-05,0.0003506476,7,1
-3.733679e-05,0.0003898674,7,1
2.570662e-05,0.0004042913,7,1
6.687121e-05,0.0003955397,7,1
6.687121e-05,0.0003709058,7,1
3.316162e-05,0.0003399513,7,1
-1.513384e-05,0.0003148312,7,1
-5.937768e-05,0.0003064038,7,1
-9.2439e-05,0.0003232586,7,1
-0.0001115627,0.0003712299,7,1
-0.0001088076,0.0004345975,7,1
-7.801519e-05,0.0004817585,7,1
-3.101625e-05,0.0004822447,7,1
5.610517e-06,0.0004243874,7,1
5.610517e-06,0.0003140208,7,1
-4.187462e-05,0.0001702689,7,1
-0.0001233935,1.9224e-05,7,1
-0.000209126,-0.0001146419,7,1
-0.000271197,-0.0002178775,7,1
-0.0002932379,-0.0002825416,7,1
-0.0002750866,-0.0003078238,7,1
-0.0002340841,-0.0003019894,7,1
-0.0001948643,-0.0002797865,7,1
-0.0001763888,-0.0002554767,7,1
-0.0001848162,-0.0002342462,7,1
-0.0002126914,-0.0002225774,7,1
-0.0002426735,-0.0002292221,7,1
-0.0002577456,-0.0002564491,7,1
-0.0002397564,-0.0002953447,7,1
-0.0001893541,-0.0003329439,7,1
-0.0001293899,-0.0003566054,7,1
-9.373552e-05,-0.000355633,7,1
-0.0001076731,-0.0003322956,7,1
-0.0001789819,-0.0002927517,7,1
-0.0002843243,-0.0002431597,7,1
-0.0003752429,-0.0001880575,7,1
-0.000407656,-0.0001350622,7,1
-0.0003724878,-9.017008e-05,7,1
-0.0002971275,-5.678463e-05,7,1
-0.0002151224,-2.388537e-05,7,1
-0.0001489998,2.586868e-05,7,1
-0.000104918,9.896015e-05,7,1
-6.91016e-05,0.0001795066,7,1
-8.165035e-06,0.0002407673,7,1
0.000103498,0.0002595669,7,1
0.0002566497,0.0002245608,7,1
0.0004088291,0.0001477418,7,1
0.0005144958,5.487838e-05,7,1
0.0005529052,-2.89094e-05,7,1
0.0005336195,-9.033215e-05,7,1
0.0004825689,-0.0001256624,7,1
0.0004229288,-0.0001404103,7,1
0.0003624784,-0.0001442999,7,1
0.0003026763,-0.0001457585,7,1
0.0002448189,-0.0001480274,7,1
0.0001906891,-0.0001438137,7,1
0.0001441764,-0.0001259865,7,1
0.0001065772,-9.503204e-05,7,1
7.497447e-05,-5.2733e-05,7,1
4.061663e-05,-9.137427e-06,7,1
1.720949e-06,2.311357e-05,7,1
-3.053005e-05,4.677511e-05,7,1
-4.05781e-05,6.881599e-05,7,1
-2.372331e-05,9.442231e-05,7,1
1.160693e-05,0.0001221355,7,1
4.645098e-05,0.0001393144,7,1
6.395404e-05,0.0001263492,7,1
5.730935e-05,6.703327e-05,7,1
2.197911e-05,-3.879538e-05,7,1
-3.814712e-05,-0.0001712027,7,1
-0.0001102662,-0.0003018274,7,1
-0.0001747682,-0.0004096008,7,1
-0.0002259808,-0.0004882024,7,1
-0.000276059,-0.0005525423,7,1
-0.0003410472,-0.0006243373,7,1
-0.0004280762,-0.0007227109,7,1
-0.0005288809,-0.0008437737,7,1
-0.0006201236,-0.0009654847,7,1
-0.0006714982,-0.001061265,7,1
-0.0006512401,-0.001116854,7,1
-0.0005449253,-0.001128522,7,1
-0.0003535262,-0.00110324,7,1
-9.211487e-05,-0.001057214,7,1
0.0002038164,-0.00100827,7,1
0.0004671726,-0.0009614331,7,1
0.0006344241,-0.0009111929,7,1
0.0006734819,-0.000851877,7,1
0.0005960147,-0.0007901301,7,1
0.0004519385,-0.0007335693,7,1
0.000294573,-0.0006740913,7,1
0.0001647587,-0.0005865761,7,1
8.275361e-05,-0.0004463896,7,1
4.35338e-05,-0.0002421874,7,1
3.202716e-05,3.640293e-05,7,1
3.089271e-05,0.0004025085,7,1
2.732727e-05,0.0008734707,7,1
1.338965e-05,0.001454962,7,1
-1.610624e-05,0.00212478,7,1
-6.602235e-05,0.00281502,7,1
-0.0001334415,0.003416286,7,1
-0.000206533,0.003809299,7,1
-0.0002702246,0.003904108,7,1
-0.0003062031,0.003664087,7,1
-0.0003049066,0.003133318,7,1
-0.0002715212,0.002417147,7,1
-0.0002269532,0.001648468,7,1
-0.0001958367,0.0009475346,7,1
-0.0001904885,0.0003944053,7,1
-0.0002081536,1.063454e-05,7,1
-0.0002311669,-0.0002305186,7,1
-0.0002451045,-0.0003715154,7,1
-0.0002470493,-0.0004544929,7,1
-0.0002491561,-0.0005097571,7,1
-0.0002627696,-0.000559187,7,1
-0.0002757348,-0.000613641,7,1
-0.0002582318,-0.0006742534,7,1
-0.0001827094,-0.0007371347,7,1
-4.446767e-05,-0.0007967748,7,1
0.0001300767,-0.0008491218,7,1
0.0002984626,-0.000891745,7,1
0.0004242253,-0.0009152445,7,1
0.0004856481,-0.0009082757,7,1
0.0004743035,-0.0008641939,7,1
0.0003992672,-0.000780082,7,1
0.000284687,-0.0006465403,7,1
0.0001696206,-0.0004470379,7,1
0.0001022015,-0.0001645581,7,1
0.0001077117,0.0001872858,7,1
0.0001756171,0.0005462606,7,1
0.0002655633,0.000829713,7,1
0.0003333067,0.0009698996,7,1
0.0003496752,0.0009426727,7,1
0.0003122381,0.0007832003,7,1
0.0002427121,0.0005592257,7,1
0.000175455,0.0003375204,7,1
0.0001328318,0.0001592484,7,1
0.000110953,3.688912e-05,7,1
8.956036e-05,-3.571614e-05,7,1
5.52025e-05,-7.55842e-05,7,1
9.500085e-06,-9.486997e-05,7,1
-3.279896e-05,-0.0001018388,7,1
-5.467778e-05,-9.811128e-05,7,1
-3.814712e-05,-9.162867e-05,7,1
2.230325e-05,-8.903562e-05,7,1
0.0001104668,-9.697683e-05,7,1
0.0001944166,-0.0001237176,7,1
0.0002605393,-0.0001759026,7,1
0.000316938,-0.0002546664,7,1
0.0003679886,-0.0003494746,7,1
0.0003978086,-0.0004425001,7,1
0.0003824125,-0.0005155915,7,1
0.0003109416,-0.0005632387,7,1
0.0001908512,-0.0005927345,7,1
4.758544e-05,-0.0006107238,7,1
-8.514606e-05,-0.0006209339,7,1
-0.0001786577,-0.0006267683,7,1
-0.0002138259,-0.0006293613,7,1
-0.0001799543,-0.0006296854,7,1
-8.336335e-05,-0.0006246614,7,1
4.256141e-05,-0.0006103997,7,1
0.0001433661,-0.0005873864,7,1
0.0001736723,-0.0005572423,7,1
0.0001224596,-0.0005183466,7,1
1.387585e-05,-0.0004715097,7,1
-0.0001055663,-0.0004177041,7,1
-0.0001908126,-0.0003551469,7,1
-0.0002261429,-0.0002788141,7,1
-0.0002245222,-0.0001799543,7,1
-0.0002032917,-5.629844e-05,7,1
-0.0001598582,8.178122e-05,7,1
-8.255302e-05,0.0002156472,7,1
2.76514e-05,0.0003281205,7,1
0.0001414213,0.0004026706,7,1
0.0002149989,0.0004253598,7,1
0.0002245608,0.0003929467,7,1
0.0001748067,0.0003128864,7,1
8.016057e-05,0.0001979821,7,1
-4.349527e-05,6.346784e-05,7,1
-0.0001775233,-6.845333e-05,7,1
-0.0002940482,-0.0001809267,7,1
-0.0003619536,-0.0002663351,7,1
-0.0003671397,-0.0003269475,7,1
-0.0003185201,-0.0003695707,7,1
-0.0002410529,-0.0004029561,7,1
-0.0001618029,-0.00042759,7,1
-9.227693e-05,-0.0004459034,7,1
-3.425755e-05,-0.0004536825,7,1
8.689758e-06,-0.0004480103,7,1
3.348575e-05,-0.0004329382,7,1
3.996837e-05,-0.0004177041,7,1
2.635488e-05,-0.0004068457,7,1
-2.81688e-06,-0.0004005251,7,1
-4.203669e-05,-0.0003967976,7,1
-8.109443e-05,-0.0003937184,7,1
-0.000104756,-0.0003899909,7,1
-0.0001032974,-0.0003873979,7,1
-8.125649e-05,-0.0003854531,7,1
-5.483985e-05,-0.0003830221,7,1
-4.074016e-05,-0.0003784843,7,1
-4.576419e-05,-0.0003656811,7,1
-6.796714e-05,-0.0003386162,7,1
-9.794922e-05,-0.0003006929,7,1
-0.0001154523,-0.0002580697,7,1
-0.0001032974,-0.00021415,7,1
-5.953974e-05,-0.0001695821,7,1
-1.844488e-06,-0.0001224211,7,1
4.207521e-05,-7.266703e-05,7,1
4.483033e-05,-2.080613e-05,7,1
-5.479652e-07,3.073064e-05,7,1
-7.65566e-05,7.935024e-05,7,1
-0.0001511067,0.0001206769,7,1
-0.0002029675,0.0001527658,7,1
-0.0002429977,0.0001811273,7,1
-0.0003018274,0.0002114335,7,1
-0.0004049009,0.0002487085,7,1
-0.0005446012,0.0002913317,7,1
-0.0006794395,0.0003346032,7,1
-0.0007539895,0.0003717161,7,1
-0.0007295177,0.0004029947,7,1
-0.0006068342,0.0004352458,7,1
-0.0004293727,0.0004767345,7,1
-0.0002499665,0.0005289196,7,1
-0.0001042698,0.0005832114,7,1
-2.330684e-06,0.0006274553,7,1
6.119892e-05,0.0006524134,7,1
0.0001000946,0.000654034,7,1
0.0001368834,0.000634262,7,1
0.0001867996,0.0006060627,7,1
0.0002521119,0.0005807805,7,1
0.000321638,0.0005707325,7,1
0.0003859779,0.000582077,7,1
0.0004454559,0.0006162729,7,1
0.0005039615,0.0006652166,7,1
0.000562305,0.0007144845,7,1
0.0006028214,0.0007457631,7,1
0.000591801,0.00074317,7,1
0.0005117406,0.0006971435,7,1
0.0003759298,0.0006106006,7,1
0.0002328261,0.000507689,7,1
0.0001425557,0.0004148255,7,1
0.0001402868,0.0003454615,7,1
0.0002047888,0.0002966799,7,1
0.0002801492,0.0002569738,7,1
0.0003104554,0.0002214815,7,1
0.0002728562,0.0001908512,7,1
0.0001884202,0.0001647587,7,1
0.0001039842,0.0001399627,7,1
6.281957e-05,0.0001122495,7,1
8.210535e-05,8.42122e-05,7,1
0.0001441764,6.087479e-05,7,1
0.0002145127,4.175109e-05,7,1
0.0002608634,1.906194e-05,7,1
0.0002600531,-1.140634e-05,7,1
0.0002012234,-5.095028e-05,7,1
8.729144e-05,-9.730096e-05,7,1
-6.44017e-05,-0.0001455964,7,1
-0.0002256567,-0.0001896782,7,1
-0.0003533641,-0.0002233878,7,1
-0.0004131662,-0.0002470493,7,1
-0.0004036044,-0.0002614731,7,1
-0.0003549848,-0.000268766,7,1
-0.0003024756,-0.0002720074,7,1
-0.0002596904,-0.0002739521,7,1
-0.0002201465,-0.0002752487,7,1
-0.0001596961,-0.0002771934,7,1
-6.569822e-05,-0.0002763831,7,1
4.612685e-05,-0.0002752487,7,1
0.0001362352,-0.0002783279,7,1
0.0001739964,-0.0002817312,7,1
0.0001615174,-0.0002757348,7,1
0.000115977,-0.0002596904,7,1
4.888196e-05,-0.0002425115,7,1
-4.009191e-05,-0.0002402425,7,1
-0.0001441378,-0.0002601766,7,1
-0.0002329496,-0.0002982619,7,1
-0.0002546664,-0.0003433161,7,1
-0.0001754164,-0.0003788084,7,1
7.23117e-06,-0.0003851289,7,1
0.000264753,-0.0003491504,7,1
0.0005295678,-0.0002677937,7,1
0.0007300428,-0.0001527273,7,1
0.0008256614,-2.874733e-05,7,1
0.0008209614,8.46984e-05,7,1
0.0007365254,0.0001748067,7,1
0.0005867769,0.0002323399,7,1
0.0003960259,0.0002553532,7,1
0.0002085163,0.0002564877,7,1
7.351589e-05,0.0002457913,7,1
2.116879e-05,0.0002279642,7,1
4.920609e-05,0.0001960373,7,1
0.0001320215,0.0001451488,7,1
0.0002355812,8.323981e-05,7,1
0.0003287688,2.214118e-05,7,1
0.0003859779,-3.117831e-05,7,1
0.0003950536,-8.514606e-05,7,1
0.0003579406,-0.0001577513,7,1
0.0002835526,-0.0002570974,7,1
0.0001872858,-0.0003708672,7,1
8.372601e-05,-0.000484637,7,1
-1.659243e-05,-0.0005894933,7,1
-0.0001083214,-0.0006859221,7,1
-0.0001838438,-0.00077522,7,1
-0.0002457528,-0.0008562527,7,1
-0.0003031239,-0.0009249684,7,1
-0.0003716775,-0.0009841222,7,1
-0.0004556273,-0.001042952,7,1
-0.0005501114,-0.001112802,7,1
-0.0006366542,-0.001189297,7,1
-0.0006943495,-0.001254933,7,1
-0.0007016424,-0.001273085,7,1
-0.0006330888,-0.00120599,7,1
-0.000479613,-0.001021883,7,1
-0.0002851347,-0.0007090974,7,1
-0.0001290658,-0.0002893484,7,1
-7.380149e-05,0.0001971717,7,1
-0.0001211246,0.0007042743,7,1
-0.0002219292,0.001194523,7,1
-0.0003152788,0.001643444,7,1
-0.0003587123,0.00203143,7,1
-0.0003467195,0.00233579,7,1
-0.0003011791,0.00253189,7,1
-0.0002522354,0.002599147,7,1
-0.0002128535,0.002530755,7,1
-0.0001870851,0.002353455,7,1
-0.0001708786,0.002123483,7,1
-0.000152079,0.001909881,7,1
-0.0001217728,0.001775528,7,1
-7.736692e-05,0.001764345,7,1
-2.680255e-05,0.001894484,7,1
1.792748e-05,0.002151197,7,1
4.72613e-05,0.002477112,7,1
6.362991e-05,0.002779203,7,1
7.935024e-05,0.002950831,7,1
0.0001004187,0.00290918,7,1
0.0001227837,0.002621999,7,1
0.0001294284,0.002122997,7,1
0.0001072255,0.001497423,7,1
5.844381e-05,0.0008585607,7,1
-8.489166e-06,0.0003047831,7,1
-7.995997e-05,-0.0001067007,7,1
-0.0001496481,-0.0003791325,7,1
-0.000221443,-0.0005552975,7,1
-0.000303286,-0.0006844635,7,1
-0.0003886944,-0.0008039057,7,1
-0.0004442827,-0.0009267511,7,1
-0.0004262935,-0.001047004,7,1
-0.000310741,-0.001155749,7,1
-0.0001144799,-0.001248289,7,1
0.0001104668,-0.001326242,7,1
0.0003012177,-0.001388961,7,1
0.0004042913,-0.001434988,7,1
0.0003966742,-0.001463674,7,1
0.0002877662,-0.001480042,7,1
0.0001177597,-0.00149009,7,1
-6.229485e-05,-0.001498518,7,1
-0.000211557,-0.001506459,7,1
-0.0003062031,-0.001519424,7,1
-0.0003418575,-0.001534496,7,1
-0.0003287302,-0.001545841,7,1
-0.0002833519,-0.001547785,7,1
-0.000223874,-0.001539196,7,1
-0.0001653684,-0.001521207,7,1
-0.0001188556,-0.00149398,7,1
-8.838737e-05,-0.001462053,7,1
-6.796714e-05,-0.001431909,7,1
-4.738484e-05,-0.001408895,7,1
-1.788895e-05,-0.001390744,7,1
1.889987e-05,-0.001373079,7,1
5.212327e-05,-0.001351362,7,1
7.059871e-05,-0.001323001,7,1
7.400208e-05,-0.001286212,7,1
6.654708e-05,-0.00124602,7,1
5.779555e-05,-0.001204531,7,1
5.811968e-05,-0.001163204,7,1
7.789165e-05,-0.001119123,7,1
0.0001221355,-0.0010718,7,1
0.0001897167,-0.001019452,7,1
0.0002720459,-0.0009627296,7,1
0.0003522683,-0.0009111929,7,1
0.0004114222,-0.0008708386,7,1
0.0004422146,-0.0008356704,7,1
0.0004501558,-0.0007893197,7,1
0.0004462662,-0.0007231971,7,1
0.0004396215,-0.0006343853,7,1
0.00043087,-0.0005201293,7,1
0.0004119083,-0.0003744326,7,1
0.0003811159,-0.000191785,7,1
0.0003412479,2.570662e-05,7,1
0.0002906835,0.0002618358,7,1
0.0002289366,0.0004931031,7,1
0.0001618415,0.0006924436,7,1
9.766362e-05,0.00084203,7,1
4.158902e-05,0.0009392693,7,1
-4.599598e-06,0.0009886993,7,1
-4.236082e-05,0.0009985853,7,1
-7.18567e-05,0.0009914545,7,1
-9.114248e-05,0.0009935612,7,1
-0.0001024871,0.001018843,7,1
-0.0001117248,0.001059036,7,1
-0.0001190177,0.001084804,7,1
-0.0001138316,0.00106406,7,1
-7.866345e-05,0.0009836752,7,1
-2.330684e-06,0.0008577504,7,1
9.863601e-05,0.0007146465,7,1
0.0001905271,0.0005799701,7,1
0.0002380122,0.0004756001,7,1
0.0002232643,0.0004114222,7,1
0.0001524417,0.0003822504,7,1
5.017848e-05,0.0003699334,7,1
-5.078821e-05,0.0003637749,7,1
-0.0001319829,0.0003558337,7,1
-0.000184168,0.0003352514,7,1
-0.0002079916,0.0002947351,7,1
-0.0002010227,0.0002365536,7,1
-0.0001658546,0.0001757791,7,1
-0.000104756,0.0001252147,7,1
-1.286493e-05,8.46984e-05,7,1
0.0001096565,4.790957e-05,7,1
0.0002453052,6.096713e-06,7,1
0.0003670162,-4.106429e-05,7,1
0.0004456179,-8.790117e-05,7,1
0.0004621486,-0.0001274451,7,1
0.0004123946,-0.0001538618,7,1
0.0003114278,-0.0001613168,7,1
0.0001893926,-0.0001447861,7,1
7.886404e-05,-0.0001052422,7,1
-8.720959e-07,-4.884343e-05,7,1
-4.090223e-05,1.144487e-05,7,1
-4.155049e-05,5.293359e-05,7,1
-1.399939e-05,5.309566e-05,7,1
1.468618e-05,2.693341e-06,7,1
1.906194e-05,-8.676672e-05,7,1
-1.092015e-05,-0.0001938919,7,1
-6.245691e-05,-0.0002929138,7,1
-0.0001183694,-0.0003614674,7,1
-0.0001627754,-0.0003854531,7,1
-0.000184168,-0.0003660052,7,1
-0.0001818991,-0.0003128478,7,1
-0.0001627754,-0.000231329,7,1
-0.0001340898,-0.000119666,7,1
-9.892161e-05,2.829966e-05,7,1
-5.905355e-05,0.0002128921,7,1
-1.610624e-05,0.0004313562,7,1
2.100672e-05,0.0006835299,7,1
4.45062e-05,0.0009671446,7,1
5.017848e-05,0.001254973,7,1
4.596478e-05,0.001501799,7,1
4.35338e-05,0.001656896,7,1
4.304761e-05,0.00168785,7,1
3.056858e-05,0.001594663,7,1
-6.058186e-06,0.001402291,7,1
-6.958779e-05,0.001149144,7,1
-0.0001535376,0.0008686088,7,1
-0.0002468872,0.0005924492,7,1
-0.0003410472,0.0003431926,7,1
-0.0004173799,0.000140773,7,1
-0.0004520619,-6.382317e-06,7,1
-0.000420135,-0.0001034594,7,1
-0.0003194925,-0.0001572651,7,1
-0.0001885437,-0.0001746061,7,1
-9.843541e-05,-0.0001629374,7,1
-0.0001036215,-0.0001295519,7,1
-0.0001963229,-8.547019e-05,7,1
-0.0003284061,-4.47918e-05,7,1
-0.0004520619,-1.788895e-05,7,1
-0.0005356876,-9.461558e-06,7,1
-0.0005531906,-1.594417e-05,7,1
-0.0004773441,-2.955766e-05,7,1
-0.0003092824,-3.992984e-05,7,1
-9.308726e-05,-3.68506e-05,7,1
0.000103498,-2.291298e-05,7,1
0.0002265056,-1.075808e-05,7,1
0.0002602152,-1.480971e-05,7,1
0.0002299089,-3.830919e-05,7,1
0.0001822617,-7.347736e-05,7,1
0.0001540623,-0.0001044318,7,1
0.0001543865,-0.000117235,7,1
0.0001728619,-0.00010978,7,1
0.0002015475,-8.854943e-05,7,1
0.0002342847,-5.500191e-05,7,1
0.0002621599,-9.299493e-06,7,1
0.0002754493,3.656499e-05,7,1
0.0002658874,6.200925e-05,7,1
0.000230071,5.098881e-05,7,1
0.0001765894,-1.034161e-06,7,1
0.0001179218,-8.384954e-05,7,1
6.508849e-05,-0.0001804405,7,1
2.327564e-05,-0.0002679557,7,1
-8.975362e-06,-0.0003279199,7,1
-3.069211e-05,-0.0003544986,7,1
-4.284701e-05,-0.0003575778,7,1
-5.159854e-05,-0.0003473677,7,1
-6.213279e-05,-0.0003269475,7,1
-7.55842e-05,-0.0002969654,7,1
-9.29252e-05,-0.000261149,7,1
-0.0001178833,-0.0002254946,7,1
-0.000144624,-0.0001914609,7,1
-0.0001673132,-0.0001559686,7,1
-0.0001773612,-0.0001182074,7,1
-0.0001713648,-8.060823e-05,7,1
-0.0001538618,-4.155049e-05,7,1
-0.0001298761,-3.858999e-07,7,1
-0.0001036215,4.207521e-05,7,1
-7.671866e-05,8.210535e-05,7,1
-5.467778e-05,0.0001154908,7,1
-3.992984e-05,0.0001326697,7,1
-3.26369e-05,0.0001245665,7,1
-2.712668e-05,9.053275e-05,7,1
-1.934754e-05,3.55926e-05,7,1
-1.124428e-05,-3.604027e-05,7,1
-5.89612e-06,-0.000122259,7,1
-6.176923e-08,-0.0002147983,7,1
2.052053e-05,-0.0003026377,7,1
6.735741e-05,-0.0003767015,7,1
0.000145635,-0.0004319658,7,1
0.0002482223,-0.0004724821,7,1
0.0003636129,-0.0005087847,7,1
0.0004668485,-0.0005507597,7,1
0.0005253541,-0.0006053757,7,1
0.0005144958,-0.0006711741,7,1
0.0004279528,-0.0007408622,7,1
0.0002848491,-0.0008003402,7,1
0.0001187321,-0.0008361567,7,1
-3.198864e-05,-0.000839398,7,1
-0.0001334415,-0.000804716,7,1
-0.0001755785,-0.0007257902,7,1
-0.0001723372,-0.0006050515,7,1
-0.0001496481,-0.0004465517,7,1
-0.0001250141,-0.0002491561,7,1
-9.373552e-05,-2.978945e-06,7,1
-4.43056e-05,0.0003051073,7,1
2.684107e-05,0.0006752646,7,1
0.0001088461,0.001074432,7,1
0.0001782101,0.001432273,7,1
0.0002171058,0.00166192,7,1
0.0002243987,0.001696764,7,1
0.0002117576,0.001526433,7,1
0.0001981441,0.001207488,7,1
0.0001976579,0.0008348991,7,1
0.0002169437,0.0004990995,7,1
0.0002477361,0.0002577842,7,1
0.0002751252,0.000121001,7,1
0.0002911697,6.427817e-05,7,1
0.0002944109,5.050261e-05,7,1
0.0002811216,4.72613e-05,7,1
0.0002409294,3.494434e-05,7,1
0.0001571416,7.393236e-06,7,1
2.441009e-05,-3.069211e-05,7,1
-0.0001449482,-6.748094e-05,7,1
-0.0003227338,-9.568031e-05,7,1
-0.0004838267,-0.0001138316,7,1
-0.0006018102,-0.000127121,7,1
-0.0006515643,-0.0001412206,7,1
-0.0006079687,-0.0001632615,7,1
-0.0004655133,-0.0001955125,7,1
-0.000246239,-0.0002355427,7,1
1.468618e-05,-0.0002749245,7,1
0.0002843629,-0.0003057169,7,1
0.0005381573,-0.0003211132,7,1
0.000750463,-0.0003227338,7,1
0.0008836808,-0.0003139823,7,1
0.0008984288,-0.0002993964,7,1
0.000784983,-0.0002818933,7,1
0.0005811046,-0.0002643903,7,1
0.000351458,-0.0002446183,7,1
0.0001492004,-0.0002196603,7,1
-7.840905e-06,-0.0001848162,7,1
-0.0001269589,-0.0001358725,7,1
-0.000216419,-6.521203e-05,7,1
-0.0002828657,3.18651e-05,7,1
-0.000335699,0.00015309,7,1
-0.0003825359,0.0002911697,7,1
-0.0004277521,0.0004290873,7,1
-0.0004799371,0.0005391297,7,1
-0.0005504355,0.0005974732,7,1
-0.0006363301,0.0005898562,7,1
-0.0007181731,0.0005141716,7,1
-0.0007651721,0.000383709,7,1
-0.0007419967,0.0002243987,7,1
-0.0006189891,6.281957e-05,7,1
-0.0003890185,-7.850138e-05,7,1
-8.838737e-05,-0.0001901644,7,1
0.0002117576,-0.0002733039,7,1
0.0004376768,-0.0003371576,7,1
0.0005579292,-0.0003937184,7,1
0.000579646,-0.0004504412,7,1
0.0005350781,-0.0005053814,7,1
0.0004564763,-0.000551732,7,1
0.0003644232,-0.0005799314,7,1
0.0002670219,-0.000583821,7,1
0.0001684862,-0.000561456,7,1
7.643307e-05,-0.0005129984,7,1
1.396819e-06,-0.0004421759,7,1
-4.80331e-05,-0.0003569296,7,1
-7.526008e-05,-0.000261311,7,1
-9.892161e-05,-0.0001496481,7,1
-0.0001396,-1.432352e-05,7,1
-0.0001950263,0.0001420695,7,1
-0.0002493182,0.0002981384,7,1
-0.0002817312,0.0004256839,7,1
-0.0002840002,0.0005036374,7,1
-0.0002653627,0.0005208163,7,1
-0.0002496423,0.0004767345,7,1
-0.000258718,0.0003841952,7,1
-0.0002987481,0.0002679943,7,1
-0.0003561192,0.00015309,7,1
-0.0004071698,5.61749e-05,7,1
-0.0004232143,-1.67545e-05,7,1
-0.0003857772,-6.569822e-05,7,1
-0.0002958309,-9.179074e-05,7,1
-0.0001749302,-0.0001068628,7,1
-5.159854e-05,-0.0001331174,7,1
5.228533e-05,-0.0001972953,7,1
0.0001200286,-0.0003016653,7,1
0.0001485521,-0.0004258073,7,1
0.000148228,-0.0005463839,7,1
0.0001354248,-0.0006538332,7,1
0.0001219734,-0.0007492896,7,1
0.0001247285,-0.0008290258,7,1
0.0001519555,-0.0008820211,7,1
0.0001934442,-0.0008940139,7,1
0.0002208333,-0.00086938,7,1
0.0002041406,-0.0008334015,7,1
0.0001393144,-0.0008124951,7,1
4.77475e-05,-0.0008165467,7,1
-4.689865e-05,-0.0008440978,7,1
-0.0001289037,-0.0008779695,7,1
-0.0001890299,-0.0008875313,7,1
-0.0002104225,-0.0008455564,7,1
-0.0001770371,-0.0007397278,7,1
-7.947377e-05,-0.0005783107,7,1
6.962632e-05,-0.0003737844,7,1
0.0002253711,-0.0001245279,7,1
0.000334117,0.0001979821,7,1
0.0003644232,0.0006209727,7,1
0.0003269861,0.001134882,7,1
0.0002666978,0.001674885,7,1
0.0002367157,0.00213499,7,1
0.0002584324,0.002407261,7,1
0.0003101313,0.002434488,7,1
0.0003446512,0.002236606,7,1
0.0003282826,0.001907125,7,1
0.0002600531,0.001561439,7,1
0.0001726999,0.001300513,7,1
0.0001072255,0.001183178,7,1
9.426025e-05,0.001220939,7,1
0.0001385041,0.00138106,7,1
0.0002124059,0.001589639,7,1
0.0002783665,0.001757863,7,1
0.0003004074,0.001815234,7,1
0.0002665357,0.001724639,7,1
0.0001825859,0.001495316,7,1
6.589881e-05,0.00117232,7,1
-6.342931e-05,0.0008165857,7,1
-0.0001882196,0.0004775448,7,1
-0.0002946965,0.000190365,7,1
-0.0003752429,-2.84232e-05,7,1
-0.0004290486,-0.0001830335,7,1
-0.0004551412,-0.0002870794,7,1
-0.0004569239,-0.0003564434,7,1
-0.000449955,-0.0004063595,7,1
-0.0004457413,-0.0004394208,7,1
-0.0004400691,-0.0004601652,7,1
-0.0004164075,-0.0004702132,7,1
-0.0003627639,-0.0004658375,7,1
-0.0002809209,-0.0004437966,7,1
-0.0001862748,-0.0004143007,7,1
-0.0001010285,-0.0004003631,7,1
-3.928157e-05,-0.0004269418,7,1
-1.140634e-05,-0.0005100812,7,1
-1.983374e-05,-0.0006421645,7,1
-5.613637e-05,-0.0007946679,7,1
-0.0001042698,-0.0009447403,7,1
-0.0001480274,-0.001080875,7,1
-0.0001655305,-0.001202424,7,1
-0.000142031,-0.001310522,7,1
-8.125649e-05,-0.001408733,7,1
-1.196227e-06,-0.001496735,7,1
7.6271e-05,-0.001575985,7,1
0.0001347766,-0.001640325,7,1
0.0001634622,-0.001681489,7,1
0.0001594105,-0.001687486,7,1
0.0001273216,-0.001652966,7,1
7.837785e-05,-0.00157793,7,1
1.776542e-05,-0.001462863,7,1
-5.402952e-05,-0.001309387,7,1
-0.0001465688,-0.001115719,7,1
-0.0002609869,-0.0008807246,7,1
-0.0003770257,-0.0006014861,7,1
-0.0004528722,-0.0002694143,7,1
-0.000439907,0.000118408,7,1
-0.0003081479,0.0005464226,7,1
-6.569822e-05,0.0009671446,7,1
0.0002376881,0.001308617,7,1
0.0005172509,0.001507633,7,1
0.0006939021,0.001537777,7,1
0.0007373357,0.001424007,7,1
0.0006793162,0.001234553,7,1
0.0005861287,0.001046719,7,1
0.0005112545,0.0009180387,7,1
0.0004694416,0.0008624502,7,1
0.0004355699,0.0008546711,7,1
0.0003777126,0.0008540229,7,1
0.0002897111,0.0008230684,7,1
0.000187934,0.0007449528,7,1
9.053275e-05,0.0006227554,7,1
1.1769e-05,0.0004738173,7,1
-3.555408e-05,0.0003232586,7,1
-3.944364e-05,0.0001937684,7,1
2.04508e-06,9.750156e-05,7,1
7.270556e-05,3.996837e-05,7,1
0.0001462832,1.371378e-05,7,1
0.0002039785,7.485573e-07,7,1
0.0002344468,-1.902341e-05,7,1
0.0002372019,-5.678463e-05,7,1
0.0002185644,-0.0001105903,7,1
0.0001808031,-0.0001686097,7,1
0.0001237561,-0.0002199844,7,1
5.536457e-05,-0.0002590421,7,1
-5.247859e-06,-0.0002906449,7,1
-4.349527e-05,-0.0003228959,7,1
-5.759496e-05,-0.0003562813,7,1
-6.456377e-05,-0.0003859393,7,1
-8.611845e-05,-0.0004107352,7,1
-0.0001386276,-0.0004301831,7,1
-0.0002212809,-0.0004439586,7,1
-0.0003186821,-0.0004544929,7,1
-0.000410087,-0.000464703,7,1
-0.0004755614,-0.0004734545,7,1
-0.0004963057,-0.0004836646,7,1
-0.0004716718,-0.0004932265,7,1
-0.0004254832,-0.0004958195,7,1
-0.0003898288,-0.0004869059,7,1
-0.000387884,-0.0004679443,7,1
-0.0004193247,-0.0004416897,7,1
-0.0004655133,-0.000410087,7,1
-0.0005052193,-0.0003752429,7,1
-0.0005254775,-0.0003366714,7,1
-0.0005191569,-0.0002888622,7,1
-0.0004836646,-0.000223874,7,1
-0.0004308313,-0.0001358725,7,1
-0.0003809152,-2.339918e-05,7,1
-0.0003442885,0.000103498,7,1
-0.0003151167,0.0002235884,7,1
-0.0002822175,0.0003156415,7,1
-0.0002421874,0.0003576164,7,1
-0.0001998883,0.000339303,7,1
-0.0001697442,0.0002660495,7,1
-0.0001580754,0.0001584381,7,1
-0.0001522411,3.883391e-05,7,1
-0.0001199901,-7.444975e-05,7,1
-3.182657e-05,-0.000169258,7,1
0.0001219734,-0.0002446183,7,1
0.0003334687,-0.0003062031,7,1
0.0005678153,-0.0003596847,7,1
0.0007666696,-0.000410249,7,1
0.0008759017,-0.0004577342,7,1
0.0008731466,-0.0004987367,7,1
0.0007780141,-0.0005301774,7,1
0.0006373413,-0.0005446012,7,1
0.0005042856,-0.0005321222,7,1
0.000418553,-0.000487068,7,1
0.0003974845,-0.0004074939,7,1
0.0004324906,-0.0002937241,7,1
0.0004963444,-0.0001436516,7,1
0.0005527431,4.515445e-05,7,1
0.0005778633,0.0002688046,7,1
0.0005679773,0.0005146578,7,1
0.0005308643,0.0007635903,7,1
0.0004743035,0.0009955061,7,1
0.0004070464,0.001190309,7,1
0.0003378445,0.001327578,7,1
0.0002736666,0.001396456,7,1
0.000220023,0.001394998,7,1
0.0001850168,0.001329523,7,1
0.0001675138,0.001216887,7,1
0.0001602208,0.00107897,7,1
0.0001561692,0.0009318143,7,1
0.0001496866,0.0007882243,7,1
0.0001372076,0.0006561409,7,1
0.0001098185,0.0005425331,7,1
5.56887e-05,0.0004501558,7,1
-2.809907e-05,0.000373985,7,1
-0.0001319829,0.0003008936,7,1
-0.0002407288,0.0002214815,7,1
-0.0003373197,0.000135749,7,1
-0.0004008493,5.228533e-05,7,1
-0.0004160834,-2.145439e-05,7,1
-0.0003809152,-8.255302e-05,7,1
-0.0003091203,-0.0001342519,7,1
-0.0002254946,-0.0001760647,7,1
-0.0001562927,-0.0002060468,7,1
-0.0001138316,-0.0002220912,7,1
-9.098041e-05,-0.0002227395,7,1
-7.120844e-05,-0.0002019951,7,1
-4.268495e-05,-0.0001548341,7,1
7.069105e-06,-8.40116e-05,7,1
8.631905e-05,3.665733e-06,7,1
0.0001902029,9.377406e-05,7,1
0.0002884145,0.0001673517,7,1
0.0003320101,0.0002065715,7,1
0.0002778803,0.0001989545,7,1
0.0001279698,0.0001516314,7,1
-7.428769e-05,8.259155e-05,7,1
-0.0002703867,1.59827e-05,7,1
-0.0004177041,-3.053005e-05,7,1
-0.0004987367,-5.22468e-05,7,1
-0.0005176983,-5.354332e-05,7,1
-0.0005013297,-4.511593e-05,7,1
-0.0004786406,-3.749886e-05,7,1
-0.0004753993,-4.268495e-05,7,1
-0.0004932265,-7.007399e-05,7,1
-0.0005117019,-0.0001182074,7,1
-0.000501978,-0.0001741199,7,1
-0.0004481723,-0.0002232257,7,1
-0.0003624398,-0.0002545043,7,1
-0.0002746004,-0.0002640662,7,1
-0.000209126,-0.0002577456,7,1
-0.000176713,-0.0002439701,7,1
-0.0001708786,-0.0002300324,7,1
-0.0001708786,-0.0002194982,7,1
-0.0001603444,-0.0002149604,7,1
-0.0001379794,-0.0002209568,7,1
-0.0001102662,-0.0002334358,7,1
-8.595638e-05,-0.0002394322,7,1
-7.315322e-05,-0.0002292221,7,1
-7.963584e-05,-0.0001974573,7,1
-0.0001002181,-0.0001451102,7,1
-0.0001201522,-7.347736e-05,7,1
-0.0001255003,8.527692e-06,7,1
-0.0001170729,8.777764e-05,7,1
-9.66527e-05,0.0001504969,7,1
-6.407757e-05,0.0001843686,7,1
-2.161646e-05,0.0001798307,7,1
2.230325e-05,0.0001354248,7,1
5.682316e-05,6.152305e-05,7,1
7.870197e-05,-3.053005e-05,7,1
8.826383e-05,-0.0001259865,7,1
9.182927e-05,-0.0002100984,7,1
8.712937e-05,-0.0002720074,7,1
6.314371e-05,-0.0003079858,7,1
9.66215e-06,-0.0003272716,7,1
-6.91016e-05,-0.0003478539,7,1
-0.0001451102,-0.0003844807,7,1
-0.0001840059,-0.0004356933,7,1
-0.0001582375,-0.0004899852,7,1
-5.759496e-05,-0.0005329325,7,1
0.0001088461,-0.000556756,7,1
0.0003138588,-0.0005629146,7,1
0.0005154681,-0.0005559457,7,1
0.0006765611,-0.0005499493,7,1
0.0007762314,-0.0005596732,7,1
0.0008159374,-0.0005891691,7,1
0.0008065377,-0.0006301716,7,1
0.0007556491,-0.0006697156,7,1
0.0006684579,-0.0006932151,7,1
0.0005503122,-0.0006940254,7,1
0.0004136911,-0.0006685811,7,1
0.0002804733,-0.0006079687,7,1
0.0001663793,-0.0005008436,7,1
7.465034e-05,-0.0003423437,7,1
-2.168618e-06,-0.0001360346,7,1
-7.785312e-05,0.0001156529,7,1
-0.000159534,0.0004145014,7,1
-0.0002412149,0.0007616456,7,1
-0.0003011791,0.001137638,7,1
-0.0003160891,0.001485754,7,1
-0.0002726556,0.001736794,7,1
-0.0001775233,0.001840516,7,1
-5.59743e-05,0.00178898,7,1
5.52025e-05,0.001616866,7,1
0.0001295905,0.001380736,7,1
0.0001514693,0.001136665,7,1
0.0001226217,0.0009198214,7,1
5.487838e-05,0.0007415494,7,1
-3.134038e-05,0.0005947181,7,1
-0.0001008664,0.0004666864,7,1
-0.0001164247,0.0003431926,7,1
-6.893953e-05,0.00021273,7,1
1.193106e-05,7.400208e-05,7,1
8.777764e-05,-6.618442e-05,7,1
0.0001342904,-0.0001953505,7,1
0.0001453108,-0.0002977757,7,1
0.0001313732,-0.0003634122,7,1
0.0001127357,-0.0003982562,7,1
0.0001090082,-0.0004131662,7,1
0.0001329939,-0.0004162455,7,1
0.0001871237,-0.0004063595,7,1
0.0002555152,-0.0003716775,7,1
0.0003158036,-0.000295993,7,1
0.0003491891,-0.0001737958,7,1
0.0003384927,-1.027188e-05,7,1
0.0002858215,0.0001757791,7,1
0.0002015475,0.0003532407,7,1
0.0001033359,0.0004848378,7,1
1.112074e-05,0.0005418848,7,1
-5.824322e-05,0.0005131993,7,1
-9.973194e-05,0.0004091532,7,1
-0.0001208004,0.000257298,7,1
-0.0001363587,9.21534e-05,7,1
-0.0001575893,-6.359137e-05,7,1
-0.0001878955,-0.0001956746,7,1
-0.0002256567,-0.0002971275,7,1
-0.000268604,-0.0003621157,7,1
-0.0003167374,-0.0003998769,7,1
-0.0003660052,-0.000427428,7,1
-0.0004061974,-0.0004614617,7,1
-0.0004254832,-0.0005057055,7,1
-0.0004160834,-0.0005514079,7,1
-0.0003784843,-0.0005911139,7,1
-0.0003277578,-0.0006249856,7,1
-0.0002930758,-0.0006552918,7,1
-0.0003045825,-0.0006810602,7,1
-0.0003684362,-0.0007037492,7,1
-0.0004580583,-0.0007275729,7,1
-0.0005262878,-0.0007619307,7,1
-0.0005303394,-0.0008115227,7,1
-0.0004544929,-0.0008710006,7,1
-0.0003212752,-0.0009350164,7,1
-0.0001728234,-0.001007298,7,1
-5.419158e-05,-0.001083144,7,1
3.017472e-06,-0.001138895,7,1
-1.043395e-05,-0.001150887,7,1
-7.979791e-05,-0.001108264,7,1
-0.0001702304,-0.001016535,7,1
-0.0002451045,-0.0008902864,7,1
-0.0002770314,-0.000740376,7,1
-0.0002499665,-0.0005729626,7,1
-0.0001567789,-0.0003796187,7,1
-6.176923e-08,-0.0001488377,7,1
0.0001960373,0.0001125736,7,1
0.0003833848,0.0003613439,7,1
0.00050542,0.0005302161,7,1
0.0005269747,0.0005742979,7,1
0.0004568005,0.0005020167,7,1
0.0003461098,0.0003790091,7,1
0.000249843,0.0002874421,7,1
0.0002008992,0.0002887387,7,1
0.000205275,0.0004075326,7,1
0.0002495189,0.000636531,7,1
0.0003171001,0.0009574206,7,1
0.0003968363,0.001358695,7,1
0.0004900239,0.00181961,7,1
0.000591963,0.00228717,7,1
0.000678668,0.002682611,7,1
0.0007101087,0.002917122,7,1
0.0006624615,0.002928952,7,1
0.0005418848,0.002715187,7,1
0.0003751195,0.002330118,7,1
0.0001999268,0.001864016,7,1
4.483033e-05,0.001407315,7,1
-7.688073e-05,0.001013657,7,1
-0.0001658546,0.0006955228,7,1
-0.0002227395,0.0004389733,7,1
-0.0002515871,0.0002284504,7,1
-0.0002533699,5.601284e-05,7,1
-0.0002321393,-8.206682e-05,7,1
-0.0001984297,-0.000186761,7,1
-0.0001582375,-0.000261311,7,1
-0.0001094559,-0.0003105789,7,1
-5.613637e-05,-0.0003412093,7,1
-1.448558e-05,-0.0003595226,7,1
-1.682422e-06,-0.0003783222,7,1
-2.7937e-05,-0.0004060354,7,1
-8.935975e-05,-0.0004392588,7,1
-0.0001728234,-0.0004757234,7,1
-0.0002703867,-0.0005151053,7,1
-0.0003804291,-0.0005582146,7,1
-0.0005026262,-0.0006050515,7,1
-0.0006266062,-0.0006520505,7,1
-0.0007264384,-0.0006964564,7,1
-0.0007688995,-0.0007407002,7,1
-0.0007372968,-0.0007804062,7,1
-0.0006363301,-0.000809902,7,1
-0.0004869059,-0.0008262706,7,1
-0.0003123616,-0.0008295119,7,1
-0.0001392759,-0.0008233535,7,1
9.013889e-06,-0.000807309,7,1
0.0001140322,-0.000787375,7,1
0.000170431,-0.0007698719,7,1
0.0001764274,-0.0007554481,7,1
0.0001406109,-0.0007413484,7,1
7.837785e-05,-0.0007313004,7,1
1.484824e-05,-0.0007335693,7,1
-3.166451e-05,-0.0007484793,7,1
-5.143648e-05,-0.0007677651,7,1
-4.511593e-05,-0.0007807303,7,1
-2.113026e-05,-0.0007795958,7,1
3.503668e-06,-0.000755124,7,1
9.500085e-06,-0.0007043975,7,1
-1.464765e-05,-0.0006291993,7,1
-5.775702e-05,-0.0005347152,7,1
-8.806324e-05,-0.0004254832,7,1
-8.125649e-05,-0.0003006929,7,1
-3.393342e-05,-0.0001540238,7,1
4.531652e-05,1.776542e-05,7,1
0.0001435281,0.0001965235,7,1
0.0002446569,0.0003553475,7,1
0.0003263378,0.0004712243,7,1
0.0003692851,0.0005294057,7,1
0.0003683128,0.0005240576,7,1
0.0003326584,0.0004563143,7,1
0.0002848491,0.0003418961,7,1
0.0002451431,0.0002031682,7,1
0.0002218057,7.108491e-05,7,1
0.0002135403,-3.036798e-05,7,1
0.0002119197,-9.29252e-05,7,1
0.0002034923,-0.000119666,7,1
0.000185341,-0.000119666,7,1
0.0001621656,-0.0001032974,7,1
0.0001398006,-8.255302e-05,7,1
0.0001216493,-5.59743e-05,7,1
0.0001169494,-1.594417e-05,7,1
0.000130887,4.385793e-05,7,1
0.000162976,0.0001177597,7,1
0.0002039785,0.0001913374,7,1
0.0002513016,0.0002485465,7,1
0.0003013798,0.0002869559,7,1
0.0003475684,0.0003151553,7,1
0.0003819262,0.0003462718,7,1
0.0003948915,0.0003830607,7,1
0.0003733368,0.0004099636,7,1
0.0003158036,0.0004078567,7,1
0.0002354192,0.0003717161,7,1
0.0001529279,0.000304297,7,1
8.388807e-05,0.0002115956,7,1
3.235129e-05,0.0001041462,7,1
-2.978945e-06,-3.951337e-06,7,1
-2.615429e-05,-0.0001008664,7,1
-4.462973e-05,-0.0001827094,7,1
-6.974985e-05,-0.000251263,7,1
-0.000107349,-0.0003037722,7,1
-0.0001551583,-0.0003358611,7,1
-0.0002037779,-0.0003418575,7,1
-0.0002451045,-0.0003212752,7,1
-0.0002708729,-0.0002804347,7,1
-0.0002721694,-0.0002263049,7,1
-0.0002431597,-0.0001632615,7,1
-0.000191785,-9.600444e-05,7,1
-0.0001383035,-2.437157e-05,7,1
-9.762509e-05,4.693717e-05,7,1
-7.526008e-05,0.0001171115,7,1
-6.877746e-05,0.0001884202,7,1
-7.704279e-05,0.0002663737,7,1
-9.681477e-05,0.0003650715,7,1
-0.0001229073,0.0005049339,7,1
-0.000149486,0.0007031399,7,1
-0.0001784957,0.0009527208,7,1
-0.0002131776,0.001217212,7,1
-0.0002517492,0.001427087,7,1
-0.0002840002,0.001518654,7,1
-0.000293562,0.001460634,7,1
-0.0002655248,0.001272314,7,1
-0.0001997262,0.001010254,7,1
-0.0001120489,0.0007384702,7,1
-2.664048e-05,0.0005008822,7,1
4.385793e-05,0.0003156415,7,1
0.0001070634,0.0001825859,7,1
0.0001791825,9.069481e-05,7,1
0.0002602152,2.035846e-05,7,1
0.000331686,-4.47918e-05,7,1
0.0003704196,-0.0001131834,7,1
0.0003579406,-0.0001856265,7,1
0.000289387,-0.0002572594,7,1
0.0001772377,-0.0003175477,7,1
4.466826e-05,-0.0003585502,7,1
-8.692878e-05,-0.0003771877,7,1
-0.0001997262,-0.0003786463,7,1
-0.0002793003,-0.0003776739,7,1
-0.0003131719,-0.0003961493,7,1
-0.0002916173,-0.0004457413,7,1
-0.0002209568,-0.0005230465,7,1
-0.0001305243,-0.0006129927,7,1
-6.180866e-05,-0.0006964564,7,1
-4.560212e-05,-0.0007656582,7,1
-8.595638e-05,-0.0008194639,7,1
-0.000156941,-0.000859494,7,1
-0.0002248464,-0.0008878555,7,1
-0.0002621213,-0.0009094102,7,1
-0.0002548284,-0.0009356647,7,1
-0.0002084778,-0.0009674295,7,1
-0.0001391138,-0.0009948185,7,1
-6.553616e-05,-0.001010539,7,1
-5.085794e-06,-0.001012646,7,1
3.688912e-05,-0.000998384,7,1
6.152305e-05,-0.0009601366,7,1
7.659513e-05,-0.000891745,7,1
9.134307e-05,-0.0007935334,7,1
0.000111115,-0.0006702017,7,1
0.0001389903,-0.0005253154,7,1
0.0001726999,-0.0003572537,7,1
0.0002043026,-0.0001655305,7,1
0.0002218057,4.920609e-05,7,1
0.0002232643,0.0002782044,7,1
0.0002174299,0.0005162785,7,1
0.0002137024,0.0007509492,7,1
0.00021273,0.0009601758,7,1
0.0002055991,0.001125645,7,1
0.0001825859,0.001241684,7,1
0.0001440143,0.001315748,7,1
0.000101067,0.001358209,7,1
6.849186e-05,0.001384625,7,1
6.071273e-05,0.001414283,7,1
8.74535e-05,0.001459824,7,1
0.0001517934,0.001516223,7,1
0.0002388225,0.001563546,7,1
0.0003222862,0.001575215,7,1
0.0003644232,0.001529188,7,1
0.0003407616,0.001416876,7,1
0.000250005,0.001244439,7,1
0.0001143563,0.001029216,7,1
-3.279896e-05,0.000797624,7,1
-0.0001546721,0.0005777013,7,1
-0.0002316531,0.0003879227,7,1
-0.0002639041,0.0002299089,7,1
-0.000256287,9.393612e-05,7,1
-0.0002097743,-2.437157e-05,7,1
-0.000127121,-0.0001251762,7,1
-2.874733e-05,-0.0002036158,7,1
4.920609e-05,-0.0002579077,7,1
7.546067e-05,-0.0002875656,7,1
4.126489e-05,-0.0003015032,7,1
-3.166451e-05,-0.0003204649,7,1
-0.0001081593,-0.0003630881,7,1
-0.000159534,-0.0004352071,7,1
-0.0001828714,-0.0005340669,7,1
-0.0001849783,-0.000648323,7,1
-0.0001708786,-0.0007573929,7,1
-0.0001399241,-0.0008439358,7,1
-9.162867e-05,-0.0009035757,7,1
-2.84232e-05,-0.0009395542,7,1
3.024445e-05,-0.0009648365,7,1
6.119892e-05,-0.0009899565,7,1
4.953022e-05,-0.001023666,7,1
-3.303076e-06,-0.001064507,7,1
-7.947377e-05,-0.001109075,7,1
-0.0001509446,-0.001149591,7,1
-0.0001953505,-0.001180545,7,1
-0.0002005366,-0.001203721,7,1
-0.000171851,-0.0012162,7,1
-0.0001267968,-0.001203721,7,1
-9.065628e-05,-0.00115656,7,1
-8.563225e-05,-0.001069207,7,1
-0.0001167488,-0.0009405267,7,1
-0.0001723372,-0.0007753822,7,1
-0.0002340841,-0.0005775004,7,1
-0.000281083,-0.0003502849,7,1
-0.0002888622,-9.162867e-05,7,1
-0.0002378116,0.0002064095,7,1
-0.000137007,0.0005391297,7,1
-2.064406e-05,0.0008677984,7,1
7.189524e-05,0.001127265,7,1
0.0001286181,0.001259997,7,1
0.0001526038,0.001249301,7,1
0.0001537382,0.00112289,7,1
0.0001406109,0.000938621,7,1
0.0001271595,0.0007491665,7,1
0.0001248906,0.0005841838,7,1
0.0001360731,0.0004474007,7,1
0.0001504969,0.0003323342,7,1
0.0001513072,0.0002239125,7,1
0.0001310491,0.0001127357,7,1
9.31258e-05,-7.030578e-06,7,1
4.499239e-05,-0.0001350622,7,1
-8.327101e-06,-0.0002608248,7,1
-6.618442e-05,-0.0003673017,7,1
-0.0001316588,-0.0004433104,7,1
-0.0002005366,-0.0004860956,7,1
-0.0002601766,-0.0005018159,7,1
-0.0002961551,-0.000509595,7,1
-0.0003045825,-0.0005317981,7,1
-0.0002872415,-0.0005878726,7,1
-0.0002451045,-0.0006833291,7,1
-0.0001778474,-0.0008134675,7,1
-8.141856e-05,-0.0009703467,7,1
4.790957e-05,-0.001136464,7,1
0.0001974959,-0.001279567,7,1
0.0003386548,-0.001358169,7,1
0.0004368664,-0.001343583,7,1
0.000473007,-0.001233217,7,1
0.0004519385,-0.001046031,7,1
0.0003976466,-0.0007995299,7,1
0.0003371962,-0.0004938748,7,1
0.0002908455,-0.0001141558,7,1
0.0002649151,0.0003593992,7,1
0.0002568118,0.0009217662,7,1
0.0002587566,0.001530971,7,1
0.0002628082,0.002102739,7,1
0.0002644289,0.002535942,7,1
0.0002637806,0.002745331,7,1
0.0002631324,0.00269898,7,1
0.0002619979,0.002437405,7,1
0.0002508154,0.002062223,7,1
0.0002153231,0.001700329,7,1
0.0001466074,0.001463876,7,1
4.661304e-05,0.001417525,7,1
-6.618442e-05,0.001568732,7,1
-0.0001585616,0.001864664,7,1
-0.0002024813,0.002199654,7,1
-0.00019924,0.002460419,7,1
-0.0001757406,0.002563979,7,1
-0.000149486,0.002480839,7,1
-0.0001126972,0.002235957,7,1
-4.835724e-05,0.001892215,7,1
4.483033e-05,0.001522057,7,1
0.0001492004,0.001189174,7,1
0.0002384984,0.000938459,7,1
0.0002924662,0.00077769,7,1
0.0003010556,0.000676237,7,1
0.0002561635,0.00058937,7,1
0.0001620036,0.0004806241,7,1
4.337174e-05,0.0003331446,7,1
-7.169464e-05,0.0001526038,7,1
-0.0001734716,-4.203669e-05,7,1
-0.0002634179,-0.0002293842,7,1
-0.0003423437,-0.000395177,7,1
-0.0004061974,-0.0005426564,7,1
-0.0004502792,-0.0006911082,7,1
-0.0004687546,-0.0008549562,7,1
-0.0004527101,-0.001030797,7,1
-0.0003987424,-0.001199183,7,1
-0.0003094444,-0.0013418,7,1
-0.000196647,-0.001441957,7,1
-8.530812e-05,-0.001494304,7,1
-7.030578e-06,-0.001507269,7,1
2.084466e-05,-0.001498031,7,1
5.934648e-06,-0.001484418,7,1
-3.296103e-05,-0.001482311,7,1
-7.120844e-05,-0.001495925,7,1
-8.530812e-05,-0.0015191,7,1
-7.039812e-05,-0.001541951,7,1
-4.43056e-05,-0.001552485,7,1
-3.182657e-05,-0.001542437,7,1
-4.527799e-05,-0.001511321,7,1
-8.125649e-05,-0.001464808,7,1
-0.0001183694,-0.001408571,7,1
-0.0001245279,-0.001347797,7,1
-8.271508e-05,-0.001291398,7,1
-1.610624e-05,-0.001239699,7,1
3.526847e-05,-0.001196104,7,1
4.110282e-05,-0.001158342,7,1
-2.81688e-06,-0.001124147,7,1
-8.060823e-05,-0.001088816,7,1
-0.0001579134,-0.001049597,7,1
-0.0001995642,-0.001000815,7,1
-0.0001900023,-0.0009418232,7,1
-0.0001360346,-0.0008748902,7,1
-4.754691e-05,-0.0008063366,7,1
6.265751e-05,-0.0007363244,7,1
0.0001801549,-0.000668257,7,1
0.0002833905,-0.0006068342,7,1
0.0003527545,-0.0005572423,7,1
0.0003780367,-0.0005149432,7,1
0.0003572923,-0.0004715097,7,1
0.0003002453,-0.0004198109,7,1
0.0002315296,-0.0003587123,7,1
0.0001769136,-0.0002938862,7,1
0.0001511452,-0.0002276015,7,1
0.0001539003,-0.0001639098,7,1
0.0001770756,-0.0001034594,7,1
0.0002038164,-4.722278e-05,7,1
0.0002188885,8.851824e-06,7,1
0.0002167816,6.606088e-05,7,1
0.0001983062,0.000118408,7,1
0.0001654069,0.0001634622,7,1
0.0001226217,0.0002036544,7,1
7.546067e-05,0.0002417397,7,1
3.332369e-05,0.0002733424,7,1
3.665733e-06,0.0002958695,7,1
-1.124428e-05,0.0003072141,7,1
-1.221667e-05,0.0003174242,7,1
-3.858999e-07,0.0003277964,7,1
1.792748e-05,0.000334117,7,1
3.364782e-05,0.0003333067,7,1
3.899597e-05,0.0003235827,7,1
3.235129e-05,0.0003080245,7,1
1.744129e-05,0.0002898731,7,1
-8.165035e-06,0.0002720459,7,1
-4.738484e-05,0.0002618358,7,1
-0.0001044318,0.0002660495,7,1
-0.0001814128,0.0002853353,7,1
-0.0002684419,0.0003140208,7,1
-0.0003418575,0.0003430306,7,1
-0.0003861013,0.0003631267,7,1
-0.0003924218,0.0003650715,7,1
-0.0003590364,0.0003503235,7,1
-0.000293562,0.0003299033,7,1
-0.0002088019,0.0003171001,7,1
-0.0001177212,0.0003219621,7,1
-2.712668e-05,0.0003462718,7,1
5.390598e-05,0.000381278,7,1
0.0001031738,0.0004041292,7,1
9.182927e-05,0.0003841952,7,1
6.582909e-06,0.0003098072,7,1
-0.0001389517,0.0001961994,7,1
-0.0003074997,7.57848e-05,7,1
-0.0004614617,-2.84232e-05,7,1
-0.0005749074,-0.0001094559,7,1
-0.000643461,-0.0001739578,7,1
-0.0006744154,-0.0002340841,7,1
-0.0006684191,-0.0002972895,7,1
-0.0006146134,-0.0003682741,7,1
-0.0005110537,-0.0004428242,7,1
-0.0003872358,-0.000509433,7,1
-0.0002890242,-0.0005587008,7,1
-0.0002418632,-0.000583983,7,1
-0.0002374874,-0.0005668041,7,1
-0.000246239,-0.0004797751,7,1
-0.0002418632,-0.0002971275,7,1
-0.0002073433,-1.448558e-05,7,1
-0.0001459206,0.0003449753,7,1
-7.639453e-05,0.000748032,7,1
-1.594417e-05,0.001168916,7,1
3.073064e-05,0.001605683,7,1
7.481241e-05,0.002067571,7,1
0.0001273216,0.002541128,7,1
0.0001837203,0.002976438,7,1
0.0002320158,0.003292792,7,1
0.0002632944,0.003415152,7,1
0.0002830664,0.003310781,7,1
0.0003059176,0.003013875,7,1
0.0003482167,0.002611302,7,1
0.0004157979,0.00219301,7,1
0.0004987754,0.001817665,7,1
0.0005778633,0.00149953,7,1
0.0006358828,0.001225153,7,1
0.0006684579,0.0009792994,7,1
0.0006823955,0.0007554871,7,1
0.0006856368,0.0005495019,7,1
0.0006830437,0.0003584268,7,1
0.0006681338,0.0001817755,7,1
0.0006230795,2.068259e-05,7,1
0.0005392918,-0.0001232314,7,1
0.0004248736,-0.0002480217,7,1
0.0003064038,-0.0003572537,7,1
0.0002137024,-0.0004600031,7,1
0.0001615174,-0.0005684248,7,1
0.000135749,-0.0006901358,7,1
0.0001103047,-0.0008334015,7,1
6.816773e-05,-0.001006649,7,1
1.22552e-05,-0.001208745,7,1
-3.863332e-05,-0.001418619,7,1
-6.39155e-05,-0.001606291,7,1
-4.446767e-05,-0.001753771,7,1
2.603075e-05,-0.001854899,7,1
0.0001372076,-0.001914215,7,1
0.0002587566,-0.001940956,7,1
0.0003519442,-0.001940794,7,1
0.0003825745,-0.001918267,7,1
0.0003373583,-0.00187062,7,1
0.0002221298,-0.001790073,7,1
6.541262e-05,-0.001671765,7,1
-9.000802e-05,-0.001514886,7,1
-0.0001984297,-0.001303391,7,1
-0.0002410529,-0.00100357,7,1
-0.0002329496,-0.0005919242,7,1
-0.0001976194,-7.817725e-05,7,1
-0.0001566169,0.0004718725,7,1
-0.0001173971,0.0009656859,7,1
-8.271508e-05,0.001345406,7,1
-4.349527e-05,0.001599038,7,1
1.063454e-05,0.001763535,7,1
6.897806e-05,0.001892378,7,1
0.000106091,0.002015548,7,1
9.620504e-05,0.002110032,7,1
3.705119e-05,0.002117001,7,1
-4.592625e-05,0.001989779,7,1
-0.0001191798,0.001724315,7,1
-0.0001635857,0.001361612,7,1
-0.0001810887,0.0009642274,7,1
-0.0001904885,0.0005896941,7,1
-0.000216419,0.000277232,7,1
-0.0002737901,3.883391e-05,7,1
-0.000360333,-0.0001357104,7,1
-0.0004577342,-0.0002669833,7,1
-0.0005408737,-0.000375405,7,1
-0.0005935449,-0.0004791268,7,1
-0.000606348,-0.0005901415,7,1
-0.0005750695,-0.0007163903,7,1
-0.0005035987,-0.0008546321,7,1
-0.0004049009,-0.0009923875,7,1
-0.0002883759,-0.001109885,7,1
-0.0001673132,-0.001188811,7,1
-6.537409e-05,-0.001224141,7,1
-1.140634e-05,-0.001223007,7,1
-1.724069e-05,-0.001198859,7,1
-5.69467e-05,-0.001164015,7,1
-8.935975e-05,-0.001126416,7,1
-8.871149e-05,-0.001088816,7,1
-5.710876e-05,-0.001049272,7,1
-7.840905e-06,-0.001005515,7,1
5.179914e-05,-0.0009583539,7,1
0.0001145184,-0.0009120032,7,1
0.0001691344,-0.0008682456,7,1
0.0002070577,-0.0008254603,7,1
0.0002286124,-0.000782513,7,1
0.0002354192,-0.0007424829,7,1
0.0002234263,-0.0007150938,7,1
0.0001889064,-0.0007092595,7,1
0.0001344524,-0.0007238454,7,1
7.513654e-05,-0.0007488034,7,1
3.413401e-05,-0.0007697099,7,1
2.797553e-05,-0.0007758683,7,1
6.071273e-05,-0.0007630652,7,1
0.0001219734,-0.000740214,7,1
0.0001950649,-0.0007162283,7,1
0.0002649151,-0.0006964564,7,1
0.0003237448,-0.000683005,7,1
0.0003665301,-0.0006703638,7,1
0.0003914881,-0.000653185,7,1
0.0004042913,-0.0006253097,7,1
0.0004072085,-0.000583821,7,1
0.0003952156,-0.0005258016,7,1
0.0003585888,-0.0004544929,7,1
0.0002884145,-0.0003682741,7,1
0.0001851789,-0.0002728177,7,1
6.346784e-05,-0.0001713648,7,1
-4.754691e-05,-6.375344e-05,7,1
-0.0001170729,5.098881e-05,7,1
-0.0001287416,0.0001772377,7,1
-9.098041e-05,0.0003171001,7,1
-2.826114e-05,0.0004644175,7,1
3.526847e-05,0.000609304,7,1
9.393612e-05,0.0007470596,7,1
0.0001526038,0.0008760638,7,1
0.0002060853,0.0009825408,7,1
0.0002459534,0.001049798,7,1
0.0002757735,0.001066653,7,1
0.0003091589,0.001025488,7,1
0.0003602095,0.0009293833,7,1
0.0004235771,0.0007958413,7,1
0.0004657141,0.000648848,7,1
0.0004486972,0.000509958,7,1
0.0003576164,0.0003973225,7,1
0.0002086784,0.0003222862,7,1
4.45062e-05,0.0002892249,7,1
-8.919769e-05,0.0002955454,7,1
-0.0001705545,0.0003383307,7,1
-0.0002151224,0.00041596,7,1
-0.0002543422,0.0005362125,7,1
-0.0003118754,0.0007045984,7,1
-0.0003997148,0.0009157698,7,1
-0.000512026,0.001140879,7,1
-0.0006223925,0.001329523,7,1
-0.0006914323,0.001432921,7,1
-0.0006962943,0.001425628,7,1
-0.0006467023,0.001319637,7,1
-0.000576366,0.001160327,7,1
-0.000519481,0.0009998818,7,1
-0.0004909576,0.0008797912,7,1
-0.0004778303,0.0008224201,7,1
-0.0004468758,0.0008258235,7,1
-0.0003630881,0.0008600192,7,1
-0.0002279256,0.0008815739,7,1
-7.963584e-05,0.0008553194,7,1
3.121684e-05,0.0007663454,7,1
7.286763e-05,0.0006253485,7,1
4.953022e-05,0.000458097,7,1
-8.165035e-06,0.0002942489,7,1
-5.451572e-05,0.0001569795,7,1
-5.402952e-05,5.828175e-05,7,1
-1.196227e-06,-9.947754e-06,7,1
7.90261e-05,-7.623246e-05,7,1
0.000145797,-0.0001771992,7,1
0.0001665414,-0.0003290543,7,1
0.0001346145,-0.000524343,7,1
7.30297e-05,-0.0007486413,7,1
1.841368e-05,-0.0009800706,7,1
-9.623623e-06,-0.001198697,7,1
-2.015787e-05,-0.001384748,7,1
-3.863332e-05,-0.001530444,7,1
-8.206682e-05,-0.001638704,7,1
-0.0001358725,-0.001721033,7,1
-0.0001665028,-0.001791208,7,1
-0.0001491618,-0.001859599,7,1
-9.098041e-05,-0.001926046,7,1
-2.307504e-05,-0.001972235,7,1
1.792748e-05,-0.001974017,7,1
1.54965e-05,-0.001909839,7,1
-2.210265e-05,-0.001767546,7,1
-6.650855e-05,-0.001543896,7,1
-8.336335e-05,-0.001236296,7,1
-4.641245e-05,-0.0008314567,7,1
4.77475e-05,-0.0002961551,7,1
0.0001707551,0.0004018603,7,1
0.0002738286,0.001241197,7,1
0.0003159656,0.002136287,7,1
0.0002948972,0.002947914,7,1
0.0002430362,0.003527788,7,1
0.0002033302,0.003769268,7,1
0.0002044647,0.003638966,7,1
0.0002519498,0.003188583,7,1
0.0003276344,0.002533511,7,1
0.0003953777,0.001811507,7,1
0.0004235771,0.001139582,7,1
0.0003999155,0.0005930975,7,1
0.0003342791,0.000200251,7,1
0.0002482223,-5.727083e-05,7,1
0.0001597346,-0.0002180396,7,1
7.546067e-05,-0.000325651,7,1
2.623614e-07,-0.0004147869,7,1
-5.970181e-05,-0.0004998712,7,1
-9.324933e-05,-0.000578959,7,1
-8.935975e-05,-0.0006313061,7,1
-5.289507e-05,-0.0006327647,7,1
-2.0482e-05,-0.00056648,7,1
-4.138842e-05,-0.0004311555,7,1
-0.000137007,-0.0002420253,7,1
-0.0002877277,-2.404744e-05,7,1
-0.0004475241,0.0002043026,7,1
-0.0005723144,0.0004399457,7,1
-0.0006324406,0.0006947125,7,1
-0.0006152617,0.000973141,7,1
-0.0005215878,0.001238929,7,1
-0.0003671397,0.001419145,7,1
-0.0001840059,0.001438431,7,1
-9.299493e-06,0.001270531,7,1
0.0001315353,0.0009574206,7,1
0.0002213195,0.0005836976,7,1
0.000257298,0.0002248849,7,1
0.0002430362,-6.861539e-05,7,1
0.0001919856,-0.0002783279,7,1
0.000123432,-0.0004181903,7,1
6.055066e-05,-0.0005172121,7,1
2.165498e-05,-0.0005984068,7,1
1.160693e-05,-0.0006693914,7,1
2.781346e-05,-0.0007298418,7,1
5.893001e-05,-0.0007808923,7,1
8.486046e-05,-0.0008259465,7,1
8.080883e-05,-0.0008651663,7,1
3.380988e-05,-0.0008975794,7,1
-4.041603e-05,-0.0009262649,7,1
-0.0001021629,-0.0009497644,7,1
-0.0001229073,-0.000966133,7,1
-9.584238e-05,-0.0009792603,7,1
-4.138842e-05,-0.0009954668,7,1
1.22552e-05,-0.001019615,7,1
4.709924e-05,-0.001051866,7,1
5.94162e-05,-0.001080065,7,1
5.001642e-05,-0.001088978,7,1
1.306552e-05,-0.001066613,7,1
-5.159854e-05,-0.00101216,7,1
-0.0001342519,-0.000939068,7,1
-0.0002199844,-0.000866949,7,1
-0.0002940482,-0.0008045539,7,1
-0.0003452609,-0.0007515585,7,1
-0.0003663294,-0.0007039114,7,1
-0.0003595226,-0.0006595054,7,1
-0.0003368335,-0.000616072,7,1
-0.0003105789,-0.0005732867,7,1
-0.000288538,-0.0005339049,7,1
-0.000271035,-0.0004998712,7,1
-0.0002506147,-0.0004661616,7,1
-0.0002188499,-0.0004262935,7,1
-0.0001728234,-0.0003731361,7,1
-0.0001177212,-0.0003060411,7,1
-7.039812e-05,-0.0002327876,7,1
-4.43056e-05,-0.0001635857,7,1
-4.398147e-05,-0.0001130213,7,1
-6.099833e-05,-9.422172e-05,7,1
-7.995997e-05,-0.0001081593,7,1
-8.579432e-05,-0.0001394379,7,1
-6.44017e-05,-0.0001736337,7,1
-1.464765e-05,-0.0001989159,7,1
5.163707e-05,-0.0002062088,7,1
0.0001197045,-0.0001940539,7,1
0.0001808031,-0.0001681235,7,1
0.0002354192,-0.0001336036,7,1
0.0002816078,-9.697683e-05,7,1
0.0003171001,-6.359137e-05,7,1
0.0003467581,-3.425755e-05,7,1
0.0003811159,-6.058186e-06,7,1
0.0004264942,2.781346e-05,7,1
0.0004845136,7.335383e-05,7,1
0.0005486915,0.0001342904,7,1
0.000606873,0.0002104611,7,1
0.0006412309,0.0002947351,7,1
0.0006353966,0.000378685,7,1
0.0005926113,0.0004597176,7,1
0.0005323229,0.000537509,7,1
0.0004793275,0.000611735,7,1
0.0004527488,0.0006726716,7,1
0.0004538833,0.000710757,7,1
0.0004743035,0.0007240463,7,1
0.0005034753,0.0007152948,7,1
0.0005350781,0.000688554,7,1
0.0005553362,0.000651441,7,1
0.0005493398,0.0006106006,7,1
0.0005093097,0.0005747841,7,1
0.0004394595,0.0005491778,7,1
0.0003485408,0.000532485,7,1
0.0002443328,0.000514982,7,1
0.0001422316,0.0004874308,7,1
5.844381e-05,0.000443187,7,1
8.365628e-06,0.0003828986,7,1
-7.192643e-06,0.0003153174,7,1
-4.113403e-06,0.0002529222,7,1
5.86492e-07,0.0002033302,7,1
3.665733e-06,0.0001673517,7,1
1.97102e-05,0.0001367214,7,1
6.735741e-05,0.0001057669,7,1
0.0001470936,7.659513e-05,7,1
0.0002337985,4.628891e-05,7,1
0.0002807975,1.338965e-05,7,1
0.0002485465,-1.99958e-05,7,1
0.0001338042,-4.884343e-05,7,1
-3.425755e-05,-6.48879e-05,7,1
-0.0002117191,-5.953974e-05,7,1
-0.0003650328,-2.7937e-05,7,1
-0.0004901472,2.538249e-05,7,1
-0.0005987309,9.21534e-05,7,1
-0.0006961322,0.0001620036,7,1
-0.0007791097,0.0002247229,7,1
-0.0008364808,0.0002726942,7,1
-0.0008539838,0.0003039728,7,1
-0.0008238396,0.0003196932,7,1
-0.0007533412,0.0003201794,7,1
-0.0006669604,0.0003049452,7,1
-0.0005875485,0.0002733424,7,1
-0.0005293671,0.0002263435,7,1
-0.0004953333,0.0001639484,7,1
-0.0004708614,8.907416e-05,7,1
-0.0004378002,1.047248e-05,7,1
-0.0003908012,-5.775702e-05,7,1
-0.0003319715,-0.000104756,7,1
-0.0002656868,-0.0001255003,7,1
-0.0001947022,-0.0001188556,7,1
-0.000119666,-8.935975e-05,7,1
-3.539201e-05,-5.2733e-05,7,1
5.909208e-05,-2.712668e-05,7,1
0.0001469315,-2.129233e-05,7,1
0.0002036544,-3.377136e-05,7,1
0.0002167816,-5.451572e-05,7,1
0.0001911753,-6.586029e-05,7,1
0.0001415833,-5.386745e-05,7,1
9.26396e-05,-1.351319e-05,7,1
5.747142e-05,4.45062e-05,7,1
3.332369e-05,9.993253e-05,7,1
1.274139e-05,0.0001278078,7,1
-8.165035e-06,0.0001201907,7,1
-2.826114e-05,8.04847e-05,7,1
-3.847125e-05,2.052053e-05,7,1
-3.036798e-05,-4.187462e-05,7,1
-7.354709e-06,-8.644259e-05,7,1
1.825161e-05,-0.000104756,7,1
4.013043e-05,-0.0001021629,7,1
5.844381e-05,-9.211487e-05,7,1
7.076078e-05,-8.709085e-05,7,1
7.30297e-05,-8.838737e-05,7,1
6.346784e-05,-8.984595e-05,7,1
5.1475e-05,-7.785312e-05,7,1
5.098881e-05,-4.349527e-05,7,1
7.027458e-05,1.063454e-05,7,1
0.0001119254,8.064677e-05,7,1
0.0001626518,0.0001608691,7,1
0.0001986303,0.0002483844,7,1
0.0002091646,0.0003402755,7,1
0.0002125679,0.0004276287,7,1
0.0002406053,0.0005010443,7,1
0.0003122381,0.0005514466,7,1
0.0004188772,0.0005640878,7,1
0.0005289196,0.0005289196,7,1
0.0006059006,0.000450642,7,1
0.0006295622,0.0003546993,7,1
0.0006039558,0.0002692908,7,1
0.0005456123,0.0002070577,7,1
0.0004683071,0.0001529279,7,1
0.0003759298,9.118101e-05,7,1
0.0002751252,1.501031e-05,7,1
0.0001733481,-7.639453e-05,7,1
8.04847e-05,-0.0001818991,7,1
3.341602e-06,-0.0002992343,7,1
-5.629844e-05,-0.000415111,7,1
-0.0001007043,-0.0005112157,7,1
-0.0001376552,-0.0005781487,7,1
-0.000171851,-0.0006188271,7,1
-0.0001989159,-0.0006455678,7,1
-0.0002105846,-0.0006689052,7,1
-0.0002081536,-0.000693053,7,1
-0.0002060468,-0.0007125008,7,1
-0.0002227395,-0.0007052079,7,1
-0.0002663351,-0.0006348715,7,1
-0.000328082,-0.0004773441,7,1
-0.0003901529,-0.0002394322,7,1
-0.0004378002,3.397195e-05,7,1
-0.0004698891,0.0002749631,7,1
-0.0004958195,0.0004251977,7,1
-0.0005209396,0.0004700898,7,1
-0.0005473563,0.0004461041,7,1
-0.0005750695,0.0004211461,7,1
-0.0005954896,0.0004678209,7,1
-0.0005873864,0.0006415551,7,1
-0.0005353634,0.000958231,7,1
-0.000435045,0.001367284,7,1
-0.0002995585,0.001766128,7,1
-0.0001585616,0.002023165,7,1
-4.009191e-05,0.00203532,7,1
3.218923e-05,0.001781687,7,1
4.758544e-05,0.001327092,7,1
1.727922e-05,0.0007938966,7,1
-2.955766e-05,0.0003023522,7,1
-6.569822e-05,-7.282909e-05,7,1
-7.736692e-05,-0.0003168994,7,1
-6.699475e-05,-0.0004593548,7,1
-5.046408e-05,-0.000541846,7,1
-4.592625e-05,-0.0005967862,7,1
-6.407757e-05,-0.0006475127,7,1
-0.0001045939,-0.0007047217,7,1
-0.0001533756,-0.0007765166,7,1
-0.0001861127,-0.0008609526,7,1
-0.0001807646,-0.0009403646,7,1
-0.0001208004,-0.000981205,7,1
-9.947754e-06,-0.0009478196,7,1
0.0001279698,-0.000814602,7,1
0.0002582704,-0.0005927345,7,1
0.0003525924,-0.0003284061,7,1
0.000391164,-7.218083e-05,7,1
0.0003726885,0.0001485521,7,1
0.0003154794,0.0003347652,7,1
0.000250005,0.0004974789,7,1
0.0002067336,0.0006300483,7,1
0.0002094887,0.0006990883,7,1
0.0002584324,0.0006616511,7,1
0.0003321722,0.0004995857,7,1
0.0004025085,0.0002303951,7,1
0.0004543695,-9.162867e-05,7,1
0.0004937514,-0.0004005251,7,1
0.0005354022,-0.000645892,7,1
0.0005806184,-0.0008026091,7,1
0.000616597,-0.0008726213,7,1
0.0006200004,-0.0008838038,7,1
0.0005731634,-0.0008679214,7,1
0.000462959,-0.0008479874,7,1
0.0002931144,-0.000834536,7,1
9.26396e-05,-0.0008301602,7,1
-9.081835e-05,-0.0008314567,7,1
-0.00021415,-0.0008372911,7,1
-0.0002616352,-0.0008513908,7,1
-0.0002522354,-0.0008765109,7,1
-0.0002261429,-0.0009095722,7,1
-0.0002227395,-0.0009468472,7,1
-0.0002621213,-0.0009732639,7,1
-0.0003400748,-0.0009695364,7,1
-0.0004303451,-0.0009199444,7,1
-0.0004916058,-0.0008191398,7,1
-0.0004967919,-0.0006808981,7,1
-0.000437314,-0.0005290429,7,1
-0.0003311612,-0.0003830221,7,1
-0.0002123673,-0.0002556388,7,1
-0.0001133454,-0.0001496481,7,1
-4.155049e-05,-5.937768e-05,7,1
1.54965e-05,3.494434e-05,7,1
7.286763e-05,0.0001415833,7,1
0.0001286181,0.0002519498,7,1
0.0001733481,0.0003506476,7,1
0.0001966855,0.0004240633,7,1
0.000192958,0.0004678209,7,1
0.0001645966,0.0004815964,7,1
0.0001239182,0.0004660382,7,1
8.939829e-05,0.0004318424,7,1
7.286763e-05,0.000398619,7,1
7.027458e-05,0.0003924605,7,1
6.865393e-05,0.0004339493,7,1
5.341979e-05,0.0005287575,7,1
2.214118e-05,0.0006582477,7,1
-2.113026e-05,0.0007857933,7,1
-6.602235e-05,0.0008650433,7,1
-0.0001036215,0.0008621261,7,1
-0.0001318209,0.0007770417,7,1
-0.0001418689,0.0006383138,7,1
-0.0001227452,0.0004913204,7,1
-7.769106e-05,0.0003700955,7,1
-3.069211e-05,0.0002848491,7,1
-8.651231e-06,0.0002313675,7,1
-2.7937e-05,0.0001996027,7,1
-7.931171e-05,0.0001833962,7,1
-0.0001350622,0.0001739964,7,1
-0.0001720131,0.0001620036,7,1
-0.0001809267,0.0001341283,7,1
-0.0001716889,8.518459e-05,7,1
-0.0001639098,1.987227e-05,7,1
-0.0001648822,-4.641245e-05,7,1
-0.0001703924,-9.908367e-05,7,1
-0.0001757406,-0.0001235555,7,1
-0.0001807646,-0.0001219349,7,1
-0.0001877334,-0.0001062146,7,1
-0.0001948643,-8.887356e-05,7,1
-0.0001878955,-8.158062e-05,7,1
-0.0001473791,-8.919769e-05,7,1
-6.132246e-05,-0.0001089697,7,1
5.61749e-05,-0.0001318209,7,1
0.000170431,-0.0001483515,7,1
0.0002457913,-0.0001548341,7,1
0.0002587566,-0.0001572651,7,1
0.0002068957,-0.0001648822,7,1
0.0001078737,-0.0001788198,7,1
-4.761664e-06,-0.0001959987,7,1
-9.146661e-05,-0.0002138259,7,1
-0.0001161005,-0.0002305186,7,1
-6.699475e-05,-0.0002408908,7,1
4.418206e-05,-0.0002371633,7,1
0.0001926339,-0.0002199844,7,1
0.00035162,-0.0001947022,7,1
0.0004971547,-0.000166827,7,1
0.0006073592,-0.0001402483,7,1
0.000668782,-0.0001173971,7,1
0.0006741302,-9.616651e-05,7,1
0.0006295622,-7.914964e-05,7,1
0.0005507984,-6.829127e-05,7,1
0.0004579349,-6.035007e-05,7,1
0.0003662059,-5.176061e-05,7,1
0.0002843629,-3.944364e-05,7,1
0.0002161334,-2.113026e-05,7,1
0.000168162,1.720949e-06,7,1
0.0001410971,2.473423e-05,7,1
0.0001281319,4.72613e-05,7,1
0.0001130598,7.124698e-05,7,1
8.242948e-05,0.0001009049,7,1
3.478228e-05,0.0001328318,7,1
-1.432352e-05,0.0001628139,7,1
-5.435365e-05,0.0001848548,7,1
-8.206682e-05,0.0001966855,7,1
-9.551824e-05,0.0002010613,7,1
-9.486997e-05,0.0002020337,7,1
-8.07703e-05,0.000200413,7,1
-5.338126e-05,0.0001971717,7,1
-1.918548e-05,0.0001934442,7,1
1.063454e-05,0.0001905271,7,1
2.327564e-05,0.0001936063,7,1
1.371378e-05,0.0002010613,7,1
-5.89612e-06,0.0002039785,7,1
-1.99958e-05,0.0001968476,7,1
-1.432352e-05,0.0001795066,7,1
1.906194e-05,0.0001579519,7,1
7.238143e-05,0.0001391524,7,1
0.0001174356,0.0001300767,7,1
0.0001201907,0.0001295905,7,1
6.330578e-05,0.0001313732,7,1
-3.490581e-05,0.0001310491,7,1
-0.0001280934,0.0001276457,7,1
-0.000166989,0.0001245665,7,1
-0.0001355484,0.0001268354,7,1
-6.164659e-05,0.000135749,7,1
9.106227e-07,0.0001513072,7,1
8.689758e-06,0.0001717275,7,1
-5.32192e-05,0.0001973338,7,1
-0.0001663408,0.0002243987,7,1
-0.0002951827,0.0002478982,7,1
-0.0003979321,0.0002632944,7,1
-0.0004480103,0.0002675081,7,1
-0.0004395829,0.0002605393,7,1
-0.0003801049,0.0002490327,7,1
-0.0002750866,0.0002443328,7,1
-0.0001349001,0.0002525981,7,1
1.306552e-05,0.000272208,7,1
0.000125863,0.0002858215,7,1
0.0001623277,0.000274639,7,1
0.0001083599,0.0002289366,7,1
-6.868513e-06,0.000150659,7,1
-0.0001293899,5.098881e-05,7,1
-0.0002122053,-5.2733e-05,7,1
-0.000238946,-0.0001475412,7,1
-0.0002253326,-0.0002285739,7,1
-0.0002023193,-0.0002966413,7,1
-0.0002034537,-0.0003546606,7,1
-0.0002493182,-0.0004097628,7,1
-0.0003473677,-0.0004603272,7,1
-0.0004859335,-0.0004997091,7,1
-0.0006332509,-0.0005245051,7,1
-0.000747669,-0.0005394151,7,1
-0.0007914266,-0.0005510838,7,1
-0.0007421587,-0.0005587008,7,1
-0.0006044033,-0.0005593491,7,1
-0.0004168937,-0.0005509217,7,1
-0.0002284118,-0.0005258016,7,1
-8.628052e-05,-0.0004779923,7,1
-1.318906e-05,-0.0004074939,7,1
-5.409925e-06,-0.0003214373,7,1
-3.198864e-05,-0.0002295462,7,1
-5.759496e-05,-0.0001442999,7,1
-6.035007e-05,-7.65566e-05,7,1
-4.122636e-05,-2.501983e-05,7,1
-9.785688e-06,2.278944e-05,7,1
2.81376e-05,8.777764e-05,7,1
7.465034e-05,0.0002000889,7,1
0.0001273216,0.0003856538,7,1
0.0001861513,0.0006494962,7,1
0.0002525981,0.0009598516,7,1
0.0003247172,0.001244115,7,1
0.0003910019,0.001424656,7,1
0.0004344354,0.0014501,7,1
0.0004480489,0.001326606,7,1
0.0004405939,0.001115597,7,1
0.0004365423,0.0008904876,7,1
0.0004522626,0.0007054088,7,1
0.0004884033,0.0005817529,7,1
0.0005339436,0.0005089855,7,1
0.0005799701,0.0004589073,7,1
0.0006229175,0.0004034809,7,1
0.0006567892,0.0003256896,7,1
0.0006666752,0.0002242366,7,1
0.0006355586,0.0001163011,7,1
0.0005587396,1.403791e-05,7,1
0.0004498317,-9.19528e-05,7,1
0.000334117,-0.0002245222,7,1
0.0002357433,-0.0003950149,7,1
0.0001678379,-0.0005975965,7,1
0.0001349386,-0.0008155743,7,1
0.000130887,-0.001023342,7,1
0.0001334801,-0.001200642,7,1
0.0001154908,-0.001338883,7,1
6.087479e-05,-0.001434988,7,1
-2.647842e-05,-0.001492521,7,1
-0.0001289037,-0.001526879,7,1
-0.0002196603,-0.001557185,7,1
-0.0002789762,-0.001596081,7,1
-0.0003047445,-0.001643404,7,1
-0.0002993964,-0.001679869,7,1
-0.0002681178,-0.001673386,7,1
-0.0002182017,-0.001590571,7,1
-0.0001611547,-0.001412137,7,1
-0.0001130213,-0.001128684,7,1
-9.017008e-05,-0.0007337314,7,1
-9.940781e-05,-0.0002157707,7,1
-0.0001332795,0.0004318424,7,1
-0.0001741199,0.001188688,7,1
-0.0002031296,0.001998368,7,1
-0.0002073433,0.002780013,7,1
-0.0001838438,0.003443838,7,1
-0.0001418689,0.00391286,7,1
-0.0001045939,0.004131488,7,1
-9.503204e-05,0.004059854,7,1
-0.0001180453,0.003702496,7,1
-0.0001650443,0.003127808,7,1
-0.0002182017,0.002448102,7,1
-0.0002640662,0.0017812,7,1
-0.0002943724,0.001213322,7,1
-0.0003029619,0.0007904932,7,1
-0.0002838381,0.0005157923,7,1
-0.0002391081,0.0003655576,7,1
-0.0001851404,0.0002976523,7,1
-0.0001394379,0.0002602152,7,1
-0.0001136696,0.0002107852,7,1
-0.000107349,0.0001235941,7,1
-0.0001092938,-7.354709e-06,7,1
-0.0001126972,-0.0001765509,7,1
-0.0001173971,-0.0003626019,7,1
-0.000127283,-0.0005403875,7,1
-0.0001442999,-0.0006912703,7,1
-0.0001630995,-0.0008139537,7,1
-0.0001749302,-0.0009170272,7,1
-0.0001754164,-0.001009566,7,1
-0.0001600202,-0.001098216,7,1
-0.0001217728,-0.001180707,7,1
-6.06742e-05,-0.001249909,7,1
8.689758e-06,-0.001297719,7,1
7.189524e-05,-0.001323325,7,1
0.0001218114,-0.001328187,7,1
0.0001540623,-0.00131587,7,1
0.000165569,-0.001290426,7,1
0.0001551968,-0.001251854,7,1
0.0001313732,-0.001198048,7,1
0.0001047945,-0.001131278,7,1
8.323981e-05,-0.001058348,7,1
7.335383e-05,-0.0009855808,7,1
7.853991e-05,-0.0009205926,7,1
9.280167e-05,-0.0008740799,7,1
0.0001043083,-0.0008533355,7,1
9.814982e-05,-0.0008585216,7,1
7.319176e-05,-0.0008810487,7,1
3.867184e-05,-0.0009045482,7,1
-2.238346e-07,-0.0009184858,7,1
-3.895745e-05,-0.0009154066,7,1
-7.55842e-05,-0.0008930415,7,1
-0.0001055663,-0.0008528493,7,1
-0.0001256624,-0.0007990437,7,1
-0.0001259865,-0.0007368106,7,1
-0.0001010285,-0.0006765223,7,1
-5.305713e-05,-0.0006334129,7,1
7.555301e-06,-0.0006139652,7,1
6.233338e-05,-0.0006113721,7,1
9.912221e-05,-0.000613641,7,1
0.0001148425,-0.0006073205,7,1
0.0001185701,-0.000583821,7,1
0.0001198666,-0.0005426564,7,1
0.0001237561,-0.0004898231,7,1
0.0001365593,-0.0004269418,7,1
0.0001752929,-0.0003442885,7,1
0.0002538946,-0.0002342462,7,1
0.0003671783,-9.730096e-05,7,1
0.0004898618,4.72613e-05,7,1
0.00058937,0.0001757791,7,1
0.0006303725,0.0002699391,7,1
0.0005979594,0.0003276344,7,1
0.0005083373,0.0003568061,7,1
0.0003997535,0.0003749574,7,1
0.0003106175,0.0003932708,7,1
0.0002595669,0.0004065602,7,1
0.000237526,0.0004051016,7,1
0.0002187264,0.0003846814,7,1
0.0001799928,0.0003488649,7,1
0.0001104668,0.0003021901,7,1
2.035846e-05,0.0002540567,7,1
-6.148453e-05,0.0002167816,7,1
-9.940781e-05,0.0001963614,7,1
-7.542214e-05,0.0001932822,7,1
5.86492e-07,0.0001968476,7,1
9.16672e-05,0.0001871237,7,1
0.0001550348,0.0001469315,7,1
0.0001633001,7.6271e-05,7,1
0.0001163011,-4.275467e-06,7,1
3.850978e-05,-6.991193e-05,7,1
-3.798505e-05,-0.000102325,7,1
-9.049421e-05,-9.859748e-05,7,1
-0.0001170729,-5.921561e-05,7,1
-0.0001306864,1.031041e-05,7,1
-0.0001439758,9.458438e-05,7,1
-0.0001601823,0.0001731861,7,1
-0.0001797922,0.0002360674,7,1
-0.0002144742,0.0002976523,7,1
-0.0002809209,0.0003801436,7,1
-0.0003770257,0.0004837033,7,1
-0.0004788027,0.0005934216,7,1
-0.0005580526,0.0006882299,7,1
-0.0005954896,0.0007512733,7,1
-0.0005899795,0.0007817416,7,1
-0.000554001,0.000775421,7,1
-0.0004992229,0.000710919,7,1
-0.0004356933,0.000564574,7,1
-0.000367788,0.0003376824,7,1
-0.0002997205,6.589881e-05,7,1
-0.0002368392,-0.0001869231,7,1
-0.0001903264,-0.000365357,7,1
-0.0001713648,-0.0004476861,7,1
-0.0001789819,-0.0004478482,7,1
-0.0002013469,-0.000405225,7,1
-0.0002256567,-0.0003483401,7,1
-0.0002412149,-0.0002758969,7,1
-0.0002350565,-0.0001598582,7,1
-0.0002000504,2.035846e-05,7,1
-0.0001418689,0.0002545429,7,1
-7.250496e-05,0.000485486,7,1
-2.238346e-07,0.000631669,7,1
6.849186e-05,0.0006319932,7,1
0.0001245665,0.000478031,7,1
0.000160707,0.0002138645,7,1
0.0001744826,-8.255302e-05,7,1
0.0001856651,-0.0003298647,7,1
0.0002232643,-0.0004716718,7,1
0.0003026763,-0.0004763717,7,1
0.0004136911,-0.0003384541,7,1
0.0005272989,-6.229485e-05,7,1
0.0006101143,0.0003529166,7,1
0.0006375034,0.000916256,7,1
0.000611735,0.001626265,7,1
0.0005574431,0.002423143,7,1
0.000502827,0.003206896,7,1
0.0004632831,0.003868777,7,1
0.0004298976,0.004312355,7,1
0.0003832228,0.004468589,7,1
0.0003114278,0.004301821,7,1
0.0002205092,0.003828747,7,1
0.0001305629,0.003135587,7,1
6.071273e-05,0.002351348,7,1
1.403791e-05,0.001599687,7,1
-1.497178e-05,0.0009630929,7,1
-4.236082e-05,0.000475438,7,1
-8.125649e-05,0.0001323456,7,1
-0.0001332795,-0.0001000561,7,1
-0.0001924333,-0.0002621213,7,1
-0.0002494803,-0.0003937184,7,1
-0.0002932379,-0.0005183466,7,1
-0.000313334,-0.0006384369,7,1
-0.0003063652,-0.0007475069,7,1
-0.0002780038,-0.0008364808,7,1
-0.0002374874,-0.0009022792,7,1
-0.0001998883,-0.0009471713,7,1
-0.0001885437,-0.0009766672,7,1
-0.0002136638,-0.0009995184,7,1
-0.0002608248,-0.001028042,7,1
-0.000301017,-0.001066613,7,1
-0.0003113892,-0.00111264,7,1
-0.0002867553,-0.001158991,7,1
-0.0002371633,-0.001198211,7,1
-0.0001778474,-0.001224465,7,1
-0.0001185315,-0.001235972,7,1
-6.245691e-05,-0.00123273,7,1
-1.3027e-05,-0.001223007,7,1
2.522042e-05,-0.001220251,7,1
5.341979e-05,-0.00122641,7,1
8.161915e-05,-0.001233541,7,1
0.0001174356,-0.001235972,7,1
0.0001645966,-0.001235161,7,1
0.0002281262,-0.001234351,7,1
0.0002963557,-0.001231596,7,1
0.0003435168,-0.001221224,7,1
0.0003548613,-0.001199669,7,1
0.0003307136,-0.001170659,7,1
0.0002790148,-0.001145377,7,1
0.0002145127,-0.001128522,7,1
0.0001563313,-0.001120095,7,1
0.0001107909,-0.001111181,7,1
7.30297e-05,-0.00109303,7,1
3.478228e-05,-0.001063372,7,1
-4.599598e-06,-0.001023666,7,1
-4.268495e-05,-0.0009722915,7,1
-8.206682e-05,-0.0009100584,7,1
-0.000129714,-0.0008436117,7,1
-0.00018433,-0.0007787855,7,1
-0.0002412149,-0.0007173628,7,1
-0.0002932379,-0.0006603158,7,1
-0.0003311612,-0.0006050515,7,1
-0.0003444506,-0.0005475183,7,1
-0.0003314853,-0.0004903093,7,1
-0.0002946965,-0.0004329382,7,1
-0.0002360289,-0.0003789705,7,1
-0.0001629374,-0.0003301888,7,1
-8.660465e-05,-0.0002865932,7,1
-9.461558e-06,-0.0002460769,7,1
7.546067e-05,-0.0002045882,7,1
0.0001762653,-0.000159372,7,1
0.0002879283,-0.0001096179,7,1
0.000388733,-5.678463e-05,7,1
0.0004425387,-6.868513e-06,7,1
0.0004188772,3.364782e-05,7,1
0.0003107795,6.525056e-05,7,1
0.000138342,8.988449e-05,7,1
-5.078821e-05,0.000110953,7,1
-0.0002036158,0.0001312112,7,1
-0.0002840002,0.0001573037,7,1
-0.0002750866,0.0001940925,7,1
-0.0001786577,0.0002394708,7,1
-1.3027e-05,0.0002877662,7,1
0.0001858272,0.0003300653,7,1
0.0003598854,0.0003587509,7,1
0.0004548557,0.0003692851,7,1
0.0004522626,0.0003650715,7,1
0.0003767402,0.000353889,7,1
0.0002850112,0.0003428685,7,1
0.000225209,0.0003350894,7,1
0.0002094887,0.000331848,7,1
0.0002164575,0.0003352514,7,1
0.0002159713,0.0003459477,7,1
0.0001824238,0.0003636129,7,1
0.0001054428,0.0003898674,7,1
-4.761664e-06,0.0004251977,7,1
-0.0001316588,0.0004674968,7,1
-0.0002558008,0.0005060683,7,1
-0.0003643846,0.0005305402,7,1
-0.0004462276,0.000537509,7,1
-0.0004924161,0.0005310264,7,1
-0.0004916058,0.0005206542,7,1
-0.0004387725,0.0005120648,7,1
-0.0003452609,0.0005039615,7,1
-0.0002345703,0.0004924549,7,1
-0.0001323071,0.0004775448,7,1
-5.856735e-05,0.0004611762,7,1
-2.372331e-05,0.0004420525,7,1
-2.437157e-05,0.0004211461,7,1
-4.203669e-05,0.0004063981,7,1
-6.245691e-05,0.0004008879,7,1
-7.995997e-05,0.0004049396,7,1
-9.811128e-05,0.0004156358,7,1
-0.0001149661,0.0004255218,7,1
-0.000122097,0.0004286011,7,1
-0.0001115627,0.0004240633,7,1
-8.628052e-05,0.0004119083,7,1
-6.261898e-05,0.0003957018,7,1
-5.889148e-05,0.0003811159,7,1
-8.125649e-05,0.0003670162,7,1
-0.0001152902,0.0003525924,7,1
-0.0001396,0.0003363859,7,1
-0.0001408965,0.0003156415,7,1
-0.0001242038,0.0002853353,7,1
-0.0001101041,0.0002419018,7,1
-0.0001233935,0.0001887444,7,1
-0.000176713,0.0001291043,7,1
-0.0002627696,6.508849e-05,7,1
-0.0003510952,-5.479652e-07,7,1
-0.0004078181,-6.051213e-05,7,1
-0.0004078181,-0.0001094559,7,1
-0.0003459091,-0.000142031,7,1
-0.0002378116,-0.000156941,7,1
-0.0001107524,-0.0001567789,7,1
6.258778e-06,-0.000152079,7,1
8.858796e-05,-0.00015451,7,1
0.0001265113,-0.0001665028,7,1
0.0001244044,-0.0001844921,7,1
9.328786e-05,-0.0002021572,7,1
5.115087e-05,-0.0002178775,7,1
1.679302e-05,-0.0002276015,7,1
1.322759e-05,-0.0002248464,7,1
5.455425e-05,-0.000209126,7,1
0.0001422316,-0.0001870851,7,1
0.0002587566,-0.0001632615,7,1
0.0003598854,-0.0001407345,7,1
0.0003997535,-0.0001206384,7,1
0.0003621543,-0.000104756,7,1
0.0002701012,-8.935975e-05,7,1
0.0001733481,-7.007399e-05,7,1
0.000121001,-4.446767e-05,7,1
0.000140773,-1.075808e-05,7,1
0.0002383363,2.781346e-05,7,1
0.0003987811,6.622294e-05,7,1
0.0005859666,9.944634e-05,7,1
0.0007567836,0.0001325077,7,1
0.0008747673,0.0001701068,7,1
0.0009172284,0.0002080301,7,1
0.000876712,0.000234933,7,1
0.0007575939,0.0002368777,7,1
0.0005812666,0.0002117576,7,1
0.0003850055,0.0001757791,7,1
0.0002078681,0.0001490383,7,1
8.631905e-05,0.0001410971,7,1
3.624086e-05,0.0001548727,7,1
4.434413e-05,0.0001869616,7,1
8.259155e-05,0.0002297469,7,1
0.0001195424,0.0002782044,7,1
0.000128294,0.0003310377,7,1
0.000106091,0.0003913261,7,1
6.687121e-05,0.0004574487,7,1
2.700314e-05,0.0005251921,7,1
-3.303076e-06,0.0005848321,7,1
-2.031993e-05,0.0006212969,7,1
-1.805102e-05,0.0006224313,7,1
6.420843e-06,0.0005859666,7,1
4.35338e-05,0.0005167646,7,1
7.497447e-05,0.0004266563,7,1
7.853991e-05,0.0003279585,7,1
4.094075e-05,0.0002284504,7,1
-3.587821e-05,0.0001346145,7,1
-0.0001394379,5.439218e-05,7,1
-0.0002554767,-8.975362e-06,7,1
-0.0003721637,-5.69467e-05,7,1
-0.0004791268,-9.341139e-05,7,1
-0.0005692351,-0.0001212866,7,1
-0.0006390853,-0.0001384655,7,1
-0.0006828429,-0.0001397621,7,1
-0.0006979149,-0.0001209625,7,1
-0.0006860842,-8.465986e-05,7,1
-0.0006543194,-4.738484e-05,7,1
-0.0006079687,-2.550602e-05,7,1
-0.0005450874,-2.518189e-05,7,1
-0.000467296,-3.830919e-05,7,1
-0.0003864254,-5.030202e-05,7,1
-0.0003173856,-4.90055e-05,7,1
-0.0002789762,-3.101625e-05,7,1
-0.0002807589,-1.520357e-06,7,1
-0.0003201407,2.878586e-05,7,1
-0.0003817256,4.807163e-05,7,1
-0.0004421759,4.272347e-05,7,1
-0.0004781544,-8.720959e-07,7,1
-0.0004779923,-8.579432e-05,7,1
-0.0004329382,-0.0001987538,7,1
-0.0003410472,-0.0003220855,7,1
-0.0002211189,-0.000437476,7,1
-0.0001091317,-0.0005327704,7,1
-3.587821e-05,-0.0005997034,7,1
-1.034161e-06,-0.0006374646,7,1
2.116879e-05,-0.0006586951,7,1
6.346784e-05,-0.0006690673,7,1
0.000135749,-0.0006763602,7,1
0.0002219677,-0.0006823567,7,1
0.0002968419,-0.0006885151,7,1
0.000349027,-0.0006932151,7,1
0.0003778746,-0.0006924047,7,1
0.0003882468,-0.0006841394,7,1
0.0003783608,-0.0006655019,7,1
0.000341572,-0.0006389232,7,1
0.0002701012,-0.000601162,7,1
0.0001694586,-0.0005504355,7,1
6.152305e-05,-0.0004992229,7,1
-2.275091e-05,-0.0004694029,7,1
-5.840528e-05,-0.0004847991,7,1
-2.971972e-05,-0.0005625904,7,1
5.666109e-05,-0.0006967805,7,1
0.0001733481,-0.0008650042,7,1
0.0002829043,-0.001044735,7,1
0.000353889,-0.001220576,7,1
0.0003722023,-0.001375024,7,1
0.0003459477,-0.001494142,7,1
0.0002923041,-0.001573392,7,1
0.0002188885,-0.001619418,7,1
0.0001252147,-0.001640325,7,1
1.484824e-05,-0.001645673,7,1
-9.438378e-05,-0.001644052,7,1
-0.0001715269,-0.001633518,7,1
-0.0001854645,-0.001592678,7,1
-0.0001199901,-0.001476315,7,1
1.679302e-05,-0.00124051,7,1
0.0001949028,-0.0008750523,7,1
0.0003722023,-0.0004016596,7,1
0.0005109303,0.000148228,7,1
0.0005828873,0.0007501388,7,1
0.0005827253,0.001390946,7,1
0.0005307022,0.002060602,7,1
0.0004733311,0.002739335,7,1
0.0004564763,0.003403321,7,1
0.0005081752,0.004012369,7,1
0.0006178935,0.004504081,7,1
0.00074787,0.004806662,7,1
0.0008532125,0.004864358,7,1
0.0009041011,0.004662745,7,1
0.0008948633,0.004236508,7,1
0.0008311716,0.003660359,7,1
0.0007238843,0.003020196,7,1
0.000596987,0.002392513,7,1
0.0004744656,0.001830468,7,1
0.0003710679,0.001356102,7,1
0.00029198,0.0009668204,7,1
0.0002352571,0.0006469032,7,1
0.0001885823,0.0003853296,7,1
0.0001323456,0.0001783722,7,1
6.071273e-05,2.116879e-05,7,1
-2.113026e-05,-8.952183e-05,7,1
-0.0001114006,-0.0001608306,7,1
-0.0002167431,-0.0002062088,7,1
-0.0003400748,-0.000251263,7,1
-0.0004778303,-0.0003134961,7,1
-0.0006126686,-0.0004018217,7,1
-0.0007189835,-0.0005159156,7,1
-0.0007770028,-0.0006455678,7,1
-0.000787537,-0.0007771649,7,1
-0.0007679272,-0.0008979035,7,1
-0.0007447518,-0.0009974116,7,1
-0.0007368106,-0.001071313,7,1
-0.0007390795,-0.001123174,7,1
-0.0007316245,-0.00116288,7,1
-0.0007021286,-0.001196428,7,1
-0.0006588572,-0.001224951,7,1
-0.0006194753,-0.001249099,7,1
-0.0005817142,-0.001265306,7,1
-0.0005298533,-0.001274381,7,1
-0.000449793,-0.001276002,7,1
-0.0003433161,-0.00127033,7,1
-0.0002250084,-0.001256716,7,1
-0.0001115627,-0.001238727,7,1
-1.545797e-05,-0.001224951,7,1
5.19612e-05,-0.001222034,7,1
8.518459e-05,-0.001229003,7,1
7.951231e-05,-0.001235486,7,1
3.60788e-05,-0.001232082,7,1
-3.879538e-05,-0.001212472,7,1
-0.0001366828,-0.001176818,7,1
-0.0002408908,-0.001127712,7,1
-0.0003318095,-0.001072448,7,1
-0.0003916115,-0.001018642,7,1
-0.0004146248,-0.0009684019,7,1
-0.0003993907,-0.0009181616,7,1
-0.0003473677,-0.0008598181,7,1
-0.000261311,-0.0007878611,7,1
-0.0001577513,-0.0006995356,7,1
-7.315322e-05,-0.0005932208,7,1
-4.300908e-05,-0.00047232,7,1
-8.255302e-05,-0.0003501228,7,1
-0.0001695821,-0.0002436459,7,1
-0.0002634179,-0.0001609926,7,1
-0.0003264613,-0.0001016767,7,1
-0.0003394265,-5.354332e-05,7,1
-0.0003052308,-2.238346e-07,7,1
-0.0002444563,7.497447e-05,7,1
-0.0001788198,0.0001731861,7,1
-0.0001224211,0.0002911697,7,1
-7.688073e-05,0.0004243874,7,1
-4.009191e-05,0.0005613327,7,1
-1.383732e-05,0.0006833679,7,1
-2.006553e-06,0.0007716935,7,1
-4.923729e-06,0.0008151271,7,1
-1.869928e-05,0.000812372,7,1
-3.668853e-05,0.0007663454,7,1
-5.208474e-05,0.0006804507,7,1
-5.305713e-05,0.0005636016,7,1
-3.458168e-05,0.0004404318,7,1
-2.006553e-06,0.000336548,7,1
3.624086e-05,0.0002663737,7,1
7.643307e-05,0.0002341226,7,1
0.0001138702,0.0002313675,7,1
0.0001496866,0.0002420638,7,1
0.0001840444,0.0002504913,7,1
0.0002214815,0.0002483844,7,1
0.0002581083,0.0002342847,7,1
0.0002854973,0.0002115956,7,1
0.0002948972,0.0001892305,7,1
0.0002851732,0.0001770756,7,1
0.0002619979,0.0001808031,7,1
0.0002323399,0.000202682,7,1
0.0001906891,0.0002347709,7,1
0.0001265113,0.0002657254,7,1
3.915804e-05,0.0002889007,7,1
-5.872941e-05,0.0003026763,7,1
-0.0001365208,0.0003096451,7,1
-0.0001527273,0.0003122381,7,1
-7.704279e-05,0.0003125623,7,1
8.323981e-05,0.0003128864,7,1
0.0002710735,0.000321638,7,1
0.0004133669,0.0003440029,7,1
0.0004663623,0.0003803056,7,1
0.0004310321,0.0004237391,7,1
0.0003394651,0.0004670106,7,1
0.0002334744,0.000495372,7,1
0.0001425557,0.000480462,7,1
7.254349e-05,0.0004021844,7,1
1.355172e-05,0.0002639427,7,1
-4.398147e-05,9.717743e-05,7,1
-9.568031e-05,-6.229485e-05,7,1
-0.0001178833,-0.0001945401,7,1
-8.547019e-05,-0.0003070135,7,1
2.623614e-07,-0.0004198109,7,1
0.0001128978,-0.000546708,7,1
0.0002232643,-0.0006935392,7,1
0.0003146691,-0.0008543079,7,1
0.0003856538,-0.001016697,7,1
0.0004405939,-0.001168228,7,1
0.0004751139,-0.001295936,7,1
0.0004775448,-0.00137551,7,1
0.0004384871,-0.001381992,7,1
0.0003598854,-0.001302256,7,1
0.0002555152,-0.001135977,7,1
0.000145797,-0.0008925553,7,1
5.017848e-05,-0.0005810658,7,1
-6.706447e-06,-0.0001995642,7,1
-1.108221e-05,0.0002611876,7,1
3.526847e-05,0.0007908173,7,1
0.0001004187,0.001332278,7,1
0.000138342,0.001792869,7,1
0.0001120874,0.002075836,7,1
1.760335e-05,0.00212867,7,1
-0.0001159385,0.001971952,7,1
-0.0002465631,0.001682988,7,1
-0.0003439643,0.00136064,7,1
-0.0003942046,0.001083508,7,1
-0.0003950149,0.0008929186,7,1
-0.0003582261,0.0007964896,7,1
-0.0003003688,0.0007773659,7,1
-0.0002379736,0.0008126961,7,1
-0.0001752544,0.000876712,7,1
-0.0001105903,0.0009429968,7,1
-3.377136e-05,0.0009865924,7,1
5.828175e-05,0.0009864303,7,1
0.0001626518,0.000928573,7,1
0.0002741528,0.0008133444,7,1
0.0003759298,0.0006528996,7,1
0.0004470765,0.000467983,7,1
0.0004827309,0.000284525,7,1
0.0004898618,0.0001211631,7,1
0.0004718725,-1.270286e-05,7,1
0.0004274666,-0.0001135075,7,1
0.0003532407,-0.0001882196,7,1
0.0002483844,-0.0002434839,7,1
0.0001197045,-0.0002807589,7,1
-1.464765e-05,-0.000303448,7,1
-0.0001373311,-0.0003160891,7,1
-0.0002405667,-0.0003201407,7,1
-0.0003215994,-0.0003173856,7,1
-0.0003745947,-0.0003096065,7,1
-0.000390315,-0.0003003688,7,1
-0.000360333,-0.0002921034,7,1
-0.0002852967,-0.0002856209,7,1
-0.0001788198,-0.0002775176,7,1
-6.683268e-05,-0.0002669833,7,1
3.786152e-05,-0.0002574215,7,1
0.0001419075,-0.0002498044,7,1
0.0002530843,-0.0002436459,7,1
0.0003670162,-0.0002378116,7,1
0.0004734932,-0.0002342462,7,1
0.0005684635,-0.0002374874,7,1
0.000651441,-0.0002494803,7,1
0.000723074,-0.0002673075,7,1
0.0007718556,-0.0002856209,7,1
0.0007744487,-0.0003021515,7,1
0.0007029778,-0.0003131719,7,1
0.0005550121,-0.0003113892,7,1
0.0003618301,-0.0002946965,7,1
0.0001746447,-0.000266173,7,1
3.656499e-05,-0.0002404046,7,1
-3.717473e-05,-0.0002280877,7,1
-5.986387e-05,-0.0002370013,7,1
-5.516398e-05,-0.0002621213,7,1
-5.435365e-05,-0.0002958309,7,1
-8.206682e-05,-0.0003288923,7,1
-0.0001449482,-0.0003541745,7,1
-0.0002311669,-0.0003671397,7,1
-0.0003199787,-0.0003715154,7,1
-0.000405063,-0.0003731361,7,1
-0.0004826922,-0.0003767015,7,1
-0.0005444391,-0.0003797808,7,1
-0.0005757177,-0.0003775118,7,1
-0.0005656697,-0.00036795,7,1
-0.0005131605,-0.0003525538,7,1
-0.0004365036,-0.0003392644,7,1
-0.0003638984,-0.0003353749,7,1
-0.0003131719,-0.0003428299,7,1
-0.0002867553,-0.0003617915,7,1
-0.0002789762,-0.0003935563,7,1
-0.0002804347,-0.0004415277,7,1
-0.0002851347,-0.0005052193,7,1
-0.0002896725,-0.0005778245,7,1
-0.0002899966,-0.0006514022,7,1
-0.0002854588,-0.0007186593,7,1
-0.0002801106,-0.0007757063,7,1
-0.0002799486,-0.0008214086,7,1
-0.0002849726,-0.0008565768,7,1
-0.0002893484,-0.0008829935,7,1
-0.0002908069,-0.0009017931,7,1
-0.0002852967,-0.0009175134,7,1
-0.0002744383,-0.0009342061,7,1
-0.0002590421,-0.0009573814,7,1
-0.0002478596,-0.0009816912,7,1
-0.0002546664,-0.0009980599,7,1
-0.0002901587,-0.0009951427,7,1
-0.0003468815,-0.0009622434,7,1
-0.000405225,-0.0008907726,7,1
-0.0004463896,-0.0007810544,7,1
-0.0004627582,-0.0006377887,7,1
-0.0004471999,-0.000449955,7,1
-0.0003933943,-0.0001971332,7,1
-0.0003000446,0.0001310491,7,1
-0.0001801163,0.0005185474,7,1
-5.095028e-05,0.000911394,7,1
6.136099e-05,0.001237794,7,1
0.0001294284,0.001437135,7,1
0.0001360731,0.001483324,7,1
8.891209e-05,0.00139597,7,1
2.34377e-05,0.001229042,7,1
-2.599222e-05,0.001044288,7,1
-5.435365e-05,0.0009021563,7,1
-7.461182e-05,0.000839437,7,1
-0.0001063766,0.0008671501,7,1
-0.0001629374,0.0009718445,7,1
-0.0002431597,0.001124024,7,1
-0.0003292164,0.001286414,7,1
-0.0003888564,0.001419632,7,1
-0.0003822118,0.001505689,7,1
-0.0002820554,0.001559494,7,1
-7.720486e-05,0.001617352,7,1
0.0002171058,0.001703247,7,1
0.0005457744,0.001791086,7,1
0.0008316578,0.001818475,7,1
0.00100523,0.001728043,7,1
0.001032943,0.001509416,7,1
0.0009245213,0.001200357,7,1
0.0007318255,0.0008639088,7,1
0.0005305402,0.0005627912,7,1
0.0003856538,0.0003422202,7,1
0.0003289309,0.00021273,7,1
0.0003629646,0.0001550348,7,1
0.0004697657,0.0001436902,7,1
0.000621783,0.000153252,7,1
0.0007846588,0.000160545,7,1
0.0009159319,0.0001461212,7,1
0.0009802718,9.507057e-05,7,1
0.0009669825,4.151929e-06,7,1
0.0008849773,-0.0001136696,7,1
0.0007609973,-0.0002431597,7,1
0.0006256726,-0.0003713534,7,1
0.0004999099,-0.0004963057,7,1
0.0003835469,-0.0006244993,7,1
0.0002607014,-0.0007591756,7,1
0.0001140322,-0.0008925553,7,1
-5.483985e-05,-0.001010053,7,1
-0.0002258187,-0.001104861,7,1
-0.0003742705,-0.001174549,7,1
-0.0004847991,-0.0012162,7,1
-0.0005562698,-0.001230137,7,1
-0.0005979206,-0.001220413,7,1
-0.0006222305,-0.001194969,7,1
-0.0006348715,-0.00116288,7,1
-0.0006343853,-0.001126902,7,1
-0.0006149375,-0.001084927,7,1
-0.0005779866,-0.001028366,7,1
-0.0005347152,-0.0009507368,7,1
-0.0005031124,-0.0008534976,7,1
-0.0004828543,-0.0007398899,7,1
-0.000464703,-0.0006222305,7,1
-0.0004361795,-0.0005191569,7,1
-0.0003865875,-0.000437314,7,1
-0.0003045825,-0.0003643846,7,1
-0.0001846542,-0.0002815692,7,1
-3.587821e-05,-0.0001859507,7,1
0.0001047945,-0.0001020008,7,1
0.0001976579,-6.407757e-05,7,1
0.0002253711,-9.519411e-05,7,1
0.000202682,-0.0001976194,7,1
0.0001582761,-0.0003587123,7,1
0.000113546,-0.000559187,7,1
8.080883e-05,-0.0007758683,7,1
6.78436e-05,-0.0009828256,7,1
7.691926e-05,-0.001154777,7,1
0.0001012291,-0.001257851,7,1
0.0001289422,-0.001264819,7,1
0.0001430419,-0.001159639,7,1
0.000130725,-0.0009447403,7,1
8.226741e-05,-0.0006394094,7,1
-2.330684e-06,-0.0002603387,7,1
-0.000104756,0.0001858272,7,1
-0.0002075054,0.0007089743,7,1
-0.0002964792,0.00131753,7,1
-0.0003557951,0.001977624,7,1
-0.0003744326,0.002593799,7,1
-0.0003591985,0.003031865,7,1
-0.0003277578,0.003175293,7,1
-0.0003026377,0.002983407,7,1
-0.0002877277,0.002516169,7,1
-0.0002724935,0.001904694,7,1
-0.0002507768,0.001289169,7,1
-0.0002331117,0.0007768797,7,1
-0.0002391081,0.0004114222,7,1
-0.000281083,0.0001817755,7,1
-0.0003486642,4.677511e-05,7,1
-0.0004078181,-3.474375e-05,7,1
-0.0004147869,-9.211487e-05,7,1
-0.0003412093,-0.0001407345,7,1
-0.0001904885,-0.0001830335,7,1
7.393236e-06,-0.0002126914,7,1
0.0002231022,-0.0002269532,7,1
0.0004452938,-0.000223874,7,1
0.000676237,-0.0002037779,7,1
0.0009165801,-0.0001677994,7,1
0.001138448,-0.0001195039,7,1
0.001287062,-6.796714e-05,7,1
0.001313641,-1.562004e-05,7,1
0.001204733,4.466826e-05,7,1
0.0009895095,0.0001221355,7,1
0.0007253428,0.0002068957,7,1
0.0004741415,0.0002754493,7,1
0.0002773941,0.000304297,7,1
0.0001479039,0.0002825802,7,1
7.513654e-05,0.0002078681,7,1
3.299956e-05,8.567078e-05,7,1
3.989864e-06,-7.039812e-05,7,1
-1.772689e-05,-0.0002345703,7,1
-4.009191e-05,-0.0003796187,7,1
-6.586029e-05,-0.0004862577,7,1
-9.568031e-05,-0.0005462218,7,1
-0.00012469,-0.0005642111,7,1
-0.0001452723,-0.0005514079,7,1
-0.0001535376,-0.0005206155,7,1
-0.0001536997,-0.0004838267,7,1
-0.0001561307,-0.0004509274,7,1
-0.0001674752,-0.0004296969,7,1
-0.0001877334,-0.0004248349,7,1
-0.0002123673,-0.0004368278,7,1
-0.0002342462,-0.0004611376,7,1
-0.0002476975,-0.0004859335,7,1
-0.0002475355,-0.0004954954,7,1
-0.0002358668,-0.0004781544,7,1
-0.0002099363,-0.000430021,7,1
-0.0001765509,-0.0003543365,7,1
-0.0001451102,-0.0002634179,7,1
-0.0001264727,-0.0001684476,7,1
-0.0001243659,-7.752899e-05,7,1
-0.0001412206,4.80019e-06,7,1
-0.0001739578,8.194328e-05,7,1
-0.0002136638,0.0001576278,7,1
-0.0002528836,0.0002307193,7,1
-0.0002856209,0.0002908455,7,1
-0.0003089583,0.0003276344,7,1
-0.0003264613,0.0003328204,7,1
-0.0003426678,0.0002978143,7,1
-0.0003647087,0.0002198609,7,1
-0.000395177,0.0001104668,7,1
-0.0004343968,-6.382317e-06,7,1
-0.0004813957,-0.0001020008,7,1
-0.0005316359,-0.0001605064,7,1
-0.0005726385,-0.0001825473,7,1
-0.000601162,-0.0001814128,7,1
-0.0006128307,-0.0001724993,7,1
-0.0006032689,-0.0001684476,7,1
-0.0005655076,-0.0001702304,7,1
-0.0004961436,-0.0001801163,7,1
-0.0004061974,-0.00019924,7,1
-0.0003128478,-0.0002305186,7,1
-0.0002287359,-0.0002705488,7,1
-0.0001574272,-0.0003178718,7,1
-9.454585e-05,-0.0003708672,7,1
-3.766092e-05,-0.0004240246,7,1
1.112074e-05,-0.0004685925,7,1
4.77475e-05,-0.0004966299,7,1
6.816773e-05,-0.000504409,7,1
6.622294e-05,-0.0004924161,7,1
4.742337e-05,-0.0004632444,7,1
2.992031e-05,-0.0004232143,7,1
3.850978e-05,-0.0003762153,7,1
9.182927e-05,-0.0003264613,7,1
0.0001889064,-0.0002799486,7,1
0.0003114278,-0.0002491561,7,1
0.0004384871,-0.0002417012,7,1
0.0005537156,-0.0002588801,7,1
0.0006443101,-0.0002914552,7,1
0.0007088122,-0.0003241924,7,1
