EMG1,EMG2,class,user
0.0004632831,0.0001989545,2,1
0.0002125679,0.0001931201,2,1
9.106227e-07,0.000187934,2,1
-0.0001524032,0.0001846927,2,1
-0.0002506147,0.0001837203,2,1
-0.0003018274,0.0001817755,2,1
-0.0003149546,0.0001765894,2,1
-0.0003045825,0.0001654069,2,1
-0.0002919414,0.0001483901,2,1
-0.0002966413,0.0001329939,2,1
-0.0003262992,0.0001244044,2,1
-0.0003783222,0.0001198666,2,1
-0.0004418518,0.000110953,2,1
-0.0005099192,9.118101e-05,2,1
-0.000576528,6.071273e-05,2,1
-0.0006366542,2.878586e-05,2,1
-0.0006862463,4.47606e-06,2,1
-0.00072028,-9.299493e-06,2,1
-0.0007355141,-1.788895e-05,2,1
-0.0007329211,-2.858527e-05,2,1
-0.0007090974,-4.284701e-05,2,1
-0.0006595054,-6.002594e-05,2,1
-0.0005883588,-7.898758e-05,2,1
-0.000509433,-9.811128e-05,2,1
-0.0004431483,-0.0001131834,2,1
-0.0004003631,-0.0001201522,2,1
-0.0003765395,-0.0001229073,2,1
-0.0003520676,-0.0001277692,2,1
-0.0002987481,-0.0001394379,2,1
-0.0001921092,-0.0001564548,2,1
-1.886135e-05,-0.0001712027,2,1
0.0002235884,-0.0001815749,2,1
0.0005255162,-0.0001921092,2,1
0.0008559676,-0.0002058847,2,1
0.001158544,-0.0002170672,2,1
0.001364367,-0.0002222533,2,1
0.00142028,-0.0002180396,2,1
0.001313965,-0.0002052365,2,1
0.001071677,-0.000189192,2,1
0.0007609973,-0.0001750923,2,1
0.0004603659,-0.0001621271,2,1
0.0002331503,-0.0001452723,2,1
0.0001099806,-0.0001225832,2,1
8.972242e-05,-9.422172e-05,2,1
0.000145635,-6.035007e-05,2,1
0.000230071,-2.46957e-05,2,1
0.0002952213,8.041497e-06,2,1
0.000311914,3.478228e-05,2,1
0.000274639,5.666109e-05,2,1
0.0001958752,7.270556e-05,2,1
9.750156e-05,7.805372e-05,2,1
2.855407e-06,7.432621e-05,2,1
-7.007399e-05,6.427817e-05,2,1
-0.0001138316,5.487838e-05,2,1
-0.000134576,4.888196e-05,2,1
-0.0001402483,4.564065e-05,2,1
-0.0001303623,4.418206e-05,2,1
-0.0001042698,4.466826e-05,2,1
-6.748094e-05,5.212327e-05,2,1
-2.745081e-05,6.508849e-05,2,1
8.851824e-06,7.708133e-05,2,1
4.223728e-05,8.372601e-05,2,1
7.708133e-05,8.518459e-05,2,1
0.0001151667,8.583286e-05,2,1
0.0001529279,8.988449e-05,2,1
0.0001722137,9.523264e-05,2,1
0.0001534141,9.68533e-05,2,1
9.377406e-05,9.16672e-05,2,1
1.160693e-05,8.145709e-05,2,1
-7.509801e-05,7.335383e-05,2,1
-0.0001536997,6.816773e-05,2,1
-0.0002149604,6.41161e-05,2,1
-0.0002598524,6.136099e-05,2,1
-0.0002893484,6.136099e-05,2,1
-0.0003027998,6.427817e-05,2,1
-0.0002993964,6.849186e-05,2,1
-0.0002805968,7.319176e-05,2,1
-0.000253856,8.097089e-05,2,1
-0.0002344082,9.231547e-05,2,1
-0.0002374874,0.0001078737,2,1
-0.0002632558,0.000128294,2,1
-0.0002971275,0.0001493625,2,1
-0.0003214373,0.0001658931,2,1
-0.0003290543,0.0001710792,2,1
-0.0003224097,0.0001645966,2,1
-0.0003081479,0.0001477418,2,1
-0.0002989102,0.0001237561,2,1
-0.0003143064,0.0001005808,2,1
-0.0003669776,8.242948e-05,2,1
-0.0004426621,7.221937e-05,2,1
-0.0005047331,6.492643e-05,2,1
-0.0005099192,5.439218e-05,2,1
-0.0004379622,3.834771e-05,2,1
-0.0003104168,1.825161e-05,2,1
-0.0001710407,-2.168618e-06,2,1
-6.06742e-05,-1.869928e-05,2,1
1.234753e-06,-3.26369e-05,2,1
1.630683e-05,-4.722278e-05,2,1
-1.520357e-06,-6.359137e-05,2,1
-3.733679e-05,-7.963584e-05,2,1
-8.109443e-05,-9.162867e-05,2,1
-0.0001276072,-9.697683e-05,2,1
-0.0001734716,-9.422172e-05,2,1
-0.0002182017,-8.579432e-05,2,1
-0.000261149,-7.801519e-05,2,1
-0.0002990722,-7.785312e-05,2,1
-0.0003259751,-8.871149e-05,2,1
-0.0003400748,-0.0001086455,2,1
-0.0003426678,-0.0001327933,2,1
-0.0003316474,-0.0001592099,2,1
-0.0003068514,-0.0001825473,2,1
-0.0002668213,-0.0001994021,2,1
-0.0002070192,-0.0002044261,2,1
-0.0001167488,-0.0001977815,2,1
5.772582e-06,-0.0001864369,2,1
0.0001501728,-0.0001752544,2,1
0.0002889007,-0.0001699062,2,1
0.0003841952,-0.0001713648,2,1
0.0004145014,-0.0001763888,2,1
0.0003790091,-0.000174282,2,1
0.0002926282,-0.0001653684,2,1
0.0001869616,-0.0001551583,2,1
0.0001044704,-0.0001467309,2,1
6.654708e-05,-0.0001387897,2,1
6.930219e-05,-0.0001323071,2,1
9.426025e-05,-0.0001287416,2,1
0.0001312112,-0.0001233935,2,1
0.0001809652,-0.0001151281,2,1
0.0002441707,-0.0001021629,2,1
0.000316776,-8.498399e-05,2,1
0.0003832228,-6.715681e-05,2,1
0.0004269804,-4.868137e-05,2,1
0.0004388112,-2.84232e-05,2,1
0.0004217943,-2.330684e-06,2,1
0.0003835469,2.829966e-05,2,1
0.0003300653,5.795762e-05,2,1
0.0002663737,7.967438e-05,2,1
0.0001994406,9.118101e-05,2,1
0.0001433661,9.26396e-05,2,1
0.0001112771,8.907416e-05,2,1
0.0001096565,8.550872e-05,2,1
0.000135749,8.46984e-05,2,1
0.0001762653,8.664318e-05,2,1
0.00021273,9.199134e-05,2,1
0.000232502,0.0001052807,2,1
0.0002294227,0.0001263492,2,1
0.0002086784,0.0001493625,2,1
0.0001767515,0.0001718896,2,1
0.0001380179,0.0001961994,2,1
9.782569e-05,0.0002214815,2,1
6.703327e-05,0.0002478982,2,1
5.487838e-05,0.0002713977,2,1
7.124698e-05,0.0002905214,2,1
0.0001158149,0.0003012177,2,1
0.0001712413,0.000304297,2,1
0.0002185644,0.0003012177,2,1
0.000252274,0.0002947351,2,1
0.0002723701,0.0002843629,2,1
0.0002780424,0.0002704253,2,1
0.0002658874,0.0002535705,2,1
0.0002365536,0.0002342847,2,1
0.0001979821,0.0002114335,2,1
0.0001584381,0.0001835583,2,1
0.0001214872,0.0001563313,2,1
9.344993e-05,0.0001360731,2,1
7.270556e-05,0.0001218114,2,1
5.552663e-05,0.0001106288,2,1
3.332369e-05,9.863601e-05,2,1
4.80019e-06,8.486046e-05,2,1
-1.805102e-05,7.157111e-05,2,1
-2.291298e-05,6.249545e-05,2,1
-1.844488e-06,5.893001e-05,2,1
4.677511e-05,6.103686e-05,2,1
0.0001130598,6.865393e-05,2,1
0.0001738343,7.999851e-05,2,1
0.0002013854,9.377406e-05,2,1
0.0001827479,0.0001046324,2,1
0.0001172735,0.0001031738,2,1
1.938607e-05,8.648112e-05,2,1
-9.276313e-05,5.844381e-05,2,1
-0.0002010227,2.586868e-05,2,1
-0.0002921034,-3.303076e-06,2,1
-0.0003630881,-2.696461e-05,2,1
-0.0004215936,-4.965376e-05,2,1
-0.0004778303,-7.363943e-05,2,1
-0.0005329325,-0.0001000561,2,1
-0.0005828486,-0.0001300382,2,1
-0.0006188271,-0.0001608306,2,1
-0.0006319543,-0.000189192,2,1
-0.0006154237,-0.0002120432,2,1
-0.0005621043,-0.0002259808,2,1
-0.0004744269,-0.0002344082,2,1
-0.0003668155,-0.0002397564,2,1
-0.0002621213,-0.0002460769,2,1
-0.0001802784,-0.0002556388,2,1
-0.0001344139,-0.0002663351,2,1
-0.0001208004,-0.0002799486,2,1
-0.0001266348,-0.0002964792,2,1
-0.0001363587,-0.0003076617,2,1
-0.0001374932,-0.0003045825,2,1
-0.0001229073,-0.0002831898,2,1
-8.676672e-05,-0.0002506147,2,1
-3.717473e-05,-0.0002198223,2,1
1.014835e-05,-0.0002026434,2,1
4.35338e-05,-0.0002026434,2,1
6.314371e-05,-0.000219012,2,1
7.513654e-05,-0.0002489941,2,1
8.129502e-05,-0.000283514,2,1
8.016057e-05,-0.0003156029,2,1
7.076078e-05,-0.0003374817,2,1
6.022653e-05,-0.0003472056,2,1
5.779555e-05,-0.0003465574,2,1
6.83298e-05,-0.0003407231,2,1
9.507057e-05,-0.0003324577,2,1
0.0001479039,-0.0003173856,2,1
0.0002368777,-0.0002921034,2,1
0.0003634508,-0.0002546664,2,1
0.0005081752,-0.0002073433,2,1
0.0006477135,-0.0001530514,2,1
0.0007609973,-9.843541e-05,2,1
0.0008306854,-4.625038e-05,2,1
0.0008462437,8.689758e-06,2,1
0.000799893,7.886404e-05,2,1
0.0006977918,0.000163138,2,1
0.0005593878,0.0002480603,2,1
0.0004078567,0.0003175863,2,1
0.0002613496,0.0003619922,2,1
0.0001346145,0.0003798194,2,1
3.55926e-05,0.0003798194,2,1
-3.328516e-05,0.0003744712,2,1
-6.893953e-05,0.0003683128,2,1
-7.785312e-05,0.000361506,2,1
-7.023606e-05,0.0003555096,2,1
-4.641245e-05,0.0003508097,2,1
-5.479652e-07,0.0003462718,2,1
6.962632e-05,0.0003435168,2,1
0.0001576278,0.0003418961,2,1
0.0002386605,0.0003402755,2,1
0.0002713977,0.0003381686,2,1
0.0002196988,0.0003313618,2,1
8.502253e-05,0.0003174242,2,1
-9.130454e-05,0.0002952213,2,1
-0.0002467252,0.000267184,2,1
-0.000333106,0.0002346088,2,1
-0.000333268,0.0002007372,2,1
-0.0002632558,0.0001671896,2,1
-0.0001527273,0.0001398006,2,1
-3.020592e-05,0.0001197045,2,1
7.481241e-05,0.0001065772,2,1
0.0001349386,9.620504e-05,2,1
0.0001300767,8.518459e-05,2,1
5.714729e-05,7.400208e-05,2,1
-7.072225e-05,6.525056e-05,2,1
-0.0002251705,6.330578e-05,2,1
-0.0003668155,6.687121e-05,2,1
-0.0004645409,6.881599e-05,2,1
-0.0005014918,6.476436e-05,2,1
-0.000482044,5.52025e-05,2,1
-0.0004293727,4.515445e-05,2,1
-0.0003791325,3.93201e-05,2,1
-0.0003638984,3.721326e-05,2,1
-0.0003899909,3.348575e-05,2,1
-0.0004455793,2.376183e-05,2,1
-0.0005087847,7.23117e-06,2,1
-0.0005612939,-1.286493e-05,2,1
-0.0005917621,-3.166451e-05,2,1
-0.0005980827,-4.398147e-05,2,1
-0.0005834968,-5.208474e-05,2,1
-0.0005543251,-5.953974e-05,2,1
-0.0005211017,-7.072225e-05,2,1
-0.0004873921,-8.368748e-05,2,1
-0.0004525481,-9.908367e-05,2,1
-0.00041268,-0.0001157764,2,1
-0.0003638984,-0.0001340898,2,1
-0.0003029619,-0.0001486757,2,1
-0.0002293842,-0.0001551583,2,1
-0.0001468929,-0.0001535376,2,1
-5.629844e-05,-0.0001467309,2,1
4.45062e-05,-0.0001383035,2,1
0.0001504969,-0.0001280934,2,1
0.0002414156,-0.0001177212,2,1
0.0002944109,-0.0001079973,2,1
0.0003026763,-9.746302e-05,2,1
0.0002730183,-8.433573e-05,2,1
0.0002179161,-6.942573e-05,2,1
0.000158114,-5.370539e-05,2,1
0.0001182459,-3.944364e-05,2,1
0.0001185701,-2.826114e-05,2,1
0.000170431,-1.902341e-05,2,1
0.0002696149,-6.220252e-06,2,1
0.0003945674,1.22552e-05,2,1
0.0005156302,3.721326e-05,2,1
0.0006054144,6.41161e-05,2,1
0.0006436619,8.599492e-05,2,1
0.0006170832,9.733949e-05,2,1
0.0005271368,9.993253e-05,2,1
0.0003997535,9.944634e-05,2,1
0.0002739907,9.798775e-05,2,1
0.0001777239,9.798775e-05,2,1
0.0001195424,9.847395e-05,2,1
8.84259e-05,9.912221e-05,2,1
6.103686e-05,9.798775e-05,2,1
2.052053e-05,9.652917e-05,2,1
-3.377136e-05,9.571884e-05,2,1
-8.222889e-05,9.426025e-05,2,1
-0.000104918,8.988449e-05,2,1
-8.838737e-05,8.210535e-05,2,1
-3.749886e-05,7.6271e-05,2,1
2.76514e-05,7.67572e-05,2,1
8.437427e-05,8.242948e-05,2,1
0.0001177597,8.729144e-05,2,1
0.0001206769,8.696731e-05,2,1
9.426025e-05,8.242948e-05,2,1
4.223728e-05,7.90261e-05,2,1
-2.550602e-05,8.275361e-05,2,1
-9.730096e-05,9.604298e-05,2,1
-0.0001621271,0.0001103047,2,1
-0.000211557,0.0001224596,2,1
-0.0002384598,0.0001300767,2,1
-0.0002327876,0.0001349386,2,1
-0.0001812508,0.0001362352,2,1
-7.315322e-05,0.0001373696,2,1
9.134307e-05,0.0001394765,2,1
0.0002851732,0.0001422316,2,1
0.0004540453,0.0001420695,2,1
0.0005460985,0.0001402868,2,1
0.0005384815,0.0001341283,2,1
0.0004423766,0.0001269974,2,1
0.0002958695,0.0001190562,2,1
0.0001564933,0.0001104668,2,1
7.659513e-05,9.879808e-05,2,1
8.064677e-05,8.583286e-05,2,1
0.0001633001,7.465034e-05,2,1
0.0002916559,7.059871e-05,2,1
0.0004188772,7.319176e-05,2,1
0.000500396,7.918817e-05,2,1
0.0005068787,8.113296e-05,2,1
0.0004360561,7.335383e-05,2,1
0.0003099692,5.1475e-05,2,1
0.000160707,1.565857e-05,2,1
1.322759e-05,-2.534396e-05,2,1
-0.000117235,-6.504996e-05,2,1
-0.0002175534,-9.551824e-05,2,1
-0.0002705488,-0.0001141558,2,1
-0.000261311,-0.0001237176,2,1
-0.000196647,-0.0001289037,2,1
-0.0001075111,-0.0001349001,2,1
-3.474375e-05,-0.000144624,2,1
-1.358292e-06,-0.0001585616,2,1
-1.124428e-05,-0.0001721751,2,1
-5.2733e-05,-0.0001833576,2,1
-0.0001114006,-0.0001934057,2,1
-0.0001752544,-0.0002010227,2,1
-0.0002297083,-0.0002097743,2,1
-0.0002643903,-0.0002203085,2,1
-0.0002673075,-0.0002319772,2,1
-0.0002368392,-0.000243808,2,1
-0.0001862748,-0.0002553146,2,1
-0.0001428413,-0.0002634179,2,1
-0.000134738,-0.0002664971,2,1
-0.0001736337,-0.0002663351,2,1
-0.0002523975,-0.0002617972,2,1
-0.000350447,-0.0002540181,2,1
-0.0004413656,-0.0002483458,2,1
-0.0004980884,-0.0002454286,2,1
-0.0005055434,-0.0002433218,2,1
-0.0004587066,-0.0002394322,2,1
-0.0003689224,-0.0002323013,2,1
-0.0002590421,-0.0002207947,2,1
-0.0001507825,-0.0002049123,2,1
-4.916756e-05,-0.0001854645,2,1
5.536457e-05,-0.0001621271,2,1
0.0001650828,-0.0001361966,2,1
0.0002634565,-0.00010978,2,1
0.0003245551,-8.368748e-05,2,1
0.0003286068,-5.565017e-05,2,1
0.0002717218,-2.518189e-05,2,1
0.000173024,2.623614e-07,2,1
6.687121e-05,1.59827e-05,2,1
-9.299493e-06,2.084466e-05,2,1
-3.020592e-05,1.938607e-05,2,1
1.403791e-05,1.64689e-05,2,1
0.0001167873,1.825161e-05,2,1
0.0002480603,3.073064e-05,2,1
0.0003666921,5.536457e-05,2,1
0.0004362182,8.84259e-05,2,1
0.0004376768,0.0001231079,2,1
0.0003675024,0.000150659,2,1
0.0002368777,0.0001658931,2,1
7.221937e-05,0.0001670276,2,1
-8.790117e-05,0.0001574657,2,1
-0.0002084778,0.0001435281,2,1
-0.0002741142,0.0001341283,2,1
-0.0002945344,0.0001370455,2,1
-0.0002932379,0.000155683,2,1
-0.000295993,0.00018291,2,1
-0.0003162512,0.0002091646,2,1
-0.000348016,0.0002260194,2,1
-0.000372974,0.0002331503,2,1
-0.0003779981,0.0002328261,2,1
-0.0003564434,0.0002266676,2,1
-0.0003060411,0.0002172679,2,1
-0.0002303566,0.0002043026,2,1
-0.000144624,0.0001884202,2,1
-7.639453e-05,0.0001746447,2,1
-5.095028e-05,0.0001620036,2,1
-8.07703e-05,0.000148228,2,1
-0.000159534,0.0001316974,2,1
-0.0002632558,0.0001122495,2,1
-0.000362926,8.939829e-05,2,1
-0.0004353692,6.735741e-05,2,1
-0.0004648651,5.1475e-05,2,1
-0.0004415277,4.564065e-05,2,1
-0.0003609812,5.163707e-05,2,1
-0.0002391081,6.735741e-05,2,1
-9.956988e-05,8.145709e-05,2,1
3.948217e-05,8.226741e-05,2,1
0.000180479,6.995045e-05,2,1
0.0003277964,5.1475e-05,2,1
0.0004838654,3.413401e-05,2,1
0.000643986,2.100672e-05,2,1
0.0008003792,6.420843e-06,2,1
0.0009342453,-1.286493e-05,2,1
0.00101544,-3.490581e-05,2,1
0.001019816,-5.483985e-05,2,1
0.0009455899,-7.218083e-05,2,1
0.0008199891,-8.530812e-05,2,1
0.0006867713,-9.470791e-05,2,1
0.0005734875,-0.0001039456,2,1
0.0004770586,-0.0001130213,2,1
0.0003691231,-0.0001182074,2,1
0.0002286124,-0.0001161005,2,1
5.763349e-05,-0.0001105903,2,1
-0.0001180453,-0.0001055663,2,1
-0.0002715212,-0.0001041077,2,1
-0.000387884,-0.0001060525,2,1
-0.0004655133,-0.0001110765,2,1
-0.0005199672,-0.0001204763,2,1
-0.000571342,-0.0001323071,2,1
-0.0006293613,-0.0001441378,2,1
-0.0006834911,-0.0001485136,2,1
-0.000710718,-0.0001438137,2,1
-0.0006899738,-0.0001318209,2,1
-0.0006206098,-0.0001177212,2,1
-0.0005212637,-0.0001045939,2,1
-0.0004136524,-9.308726e-05,2,1
-0.0003081479,-8.303922e-05,2,1
-0.000194216,-7.720486e-05,2,1
-6.132246e-05,-7.412562e-05,2,1
9.588091e-05,-7.266703e-05,2,1
0.0002780424,-6.780507e-05,2,1
0.0004786793,-5.840528e-05,2,1
0.0006754267,-4.592625e-05,2,1
0.0008374922,-3.134038e-05,2,1
0.0009438071,-1.545797e-05,2,1
0.0009852959,3.341602e-06,2,1
0.0009619584,2.408596e-05,2,1
0.0008904876,4.142696e-05,2,1
0.0008028102,4.871989e-05,2,1
0.0007331221,4.77475e-05,2,1
0.0006997365,4.969229e-05,2,1
0.0006822334,5.893001e-05,2,1
0.0006404206,7.67572e-05,2,1
0.0005470709,0.0001018773,2,1
0.0004034809,0.0001297526,2,1
0.0002334744,0.0001543865,2,1
6.492643e-05,0.0001722137,2,1
-7.65566e-05,0.0001814514,2,1
-0.0001783336,0.0001843686,2,1
-0.0002331117,0.0001845306,2,1
-0.0002441321,0.0001880961,2,1
-0.0002207947,0.0001979821,2,1
-0.00018433,0.0002081922,2,1
-0.0001632615,0.0002120818,2,1
-0.0001705545,0.0002135403,2,1
-0.0002010227,0.0002195368,2,1
-0.0002332737,0.0002312055,2,1
-0.0002501286,0.0002431983,2,1
-0.0002436459,0.0002513016,2,1
-0.0002170672,0.0002545429,2,1
-0.000184168,0.000252274,2,1
-0.0001577513,0.0002453052,2,1
-0.0001413827,0.000234933,2,1
-0.0001387897,0.0002205092,2,1
-0.0001554824,0.0002012234,2,1
-0.000194216,0.0001769136,2,1
-0.0002575835,0.0001551968,2,1
-0.0003446126,0.0001360731,2,1
-0.000452224,0.0001185701,2,1
-0.0005716661,9.993253e-05,2,1
-0.0006966184,8.161915e-05,2,1
-0.0008209225,6.703327e-05,2,1
-0.0009359888,5.828175e-05,2,1
-0.00102869,5.552663e-05,2,1
-0.001090113,5.633696e-05,2,1
-0.001124147,6.136099e-05,2,1
-0.001141326,6.703327e-05,2,1
-0.001153318,6.606088e-05,2,1
-0.001160287,5.325772e-05,2,1
-0.00115105,2.700314e-05,2,1
-0.001115557,-8.975362e-06,2,1
-0.001047814,-4.80331e-05,2,1
-0.0009444162,-8.093236e-05,2,1
-0.0008024471,-0.0001065387,2,1
-0.0006125065,-0.0001287416,2,1
-0.0003711913,-0.0001506204,2,1
-8.82253e-05,-0.0001780095,2,1
0.0002218057,-0.0002131776,2,1
0.000539778,-0.0002506147,2,1
0.0008417058,-0.0002807589,2,1
0.001101173,-0.0002948586,2,1
0.001289169,-0.0002919414,2,1
0.001376846,-0.0002783279,2,1
0.00134735,-0.0002601766,2,1
0.00121235,-0.0002431597,2,1
0.001015926,-0.0002300324,2,1
0.0008164236,-0.0002172293,2,1
0.000663596,-0.0001987538,2,1
0.0005836976,-0.0001728234,2,1
0.0005765668,-0.0001436516,2,1
0.0006235657,-0.000117235,2,1
0.0006973055,-9.66527e-05,2,1
0.0007830382,-8.336335e-05,2,1
0.0008679605,-7.153257e-05,2,1
0.0009292212,-5.2733e-05,2,1
0.0009379727,-2.485776e-05,2,1
0.0008713639,5.448452e-06,2,1
0.0007269635,3.13789e-05,2,1
0.0005276231,4.661304e-05,2,1
0.0003089969,5.131294e-05,2,1
0.000106091,5.066468e-05,2,1
-5.710876e-05,5.017848e-05,2,1
-0.0001707166,4.790957e-05,2,1
-0.0002306807,4.126489e-05,2,1
-0.0002420253,2.878586e-05,2,1
-0.0002172293,1.533444e-05,2,1
-0.0001778474,5.934648e-06,2,1
-0.0001464067,4.80019e-06,2,1
-0.0001357104,8.365628e-06,2,1
-0.0001454344,1.1769e-05,2,1
-0.0001710407,1.160693e-05,2,1
-0.0002044261,1.1769e-05,2,1
-0.0002373254,1.501031e-05,2,1
-0.0002595283,2.214118e-05,2,1
-0.0002579077,2.667901e-05,2,1
-0.0002271153,2.441009e-05,2,1
-0.0001763888,1.22552e-05,2,1
-0.0001253383,-6.544382e-06,2,1
-9.324933e-05,-2.177852e-05,2,1
-8.40116e-05,-2.388537e-05,2,1
-9.260107e-05,-9.137427e-06,2,1
-0.0001136696,1.727922e-05,2,1
-0.0001459206,4.547859e-05,2,1
-0.0001864369,6.687121e-05,2,1
-0.0002235498,8.145709e-05,2,1
-0.000246239,9.247754e-05,2,1
-0.0002489941,9.68533e-05,2,1
-0.0002348944,8.988449e-05,2,1
-0.0002125294,7.384002e-05,2,1
-0.0001906506,5.309566e-05,2,1
-0.0001720131,3.640293e-05,2,1
-0.0001536997,3.202716e-05,2,1
-0.0001358725,4.693717e-05,2,1
-0.0001233935,8.016057e-05,2,1
-0.000117235,0.0001218114,2,1
-0.0001139937,0.0001568175,2,1
-0.0001086455,0.0001756171,2,1
-9.584238e-05,0.0001749688,2,1
-7.833932e-05,0.0001600588,2,1
-6.261898e-05,0.0001349386,2,1
-5.500191e-05,0.000106091,2,1
-5.338126e-05,8.129502e-05,2,1
-4.608832e-05,7.059871e-05,2,1
-2.210265e-05,8.242948e-05,2,1
1.987227e-05,0.0001112771,2,1
6.865393e-05,0.0001500107,2,1
0.0001091703,0.0001858272,2,1
0.0001310491,0.0002088404,2,1
0.0001321835,0.0002122438,2,1
0.0001138702,0.0001992786,2,1
7.335383e-05,0.0001751309,2,1
3.827799e-06,0.0001380179,2,1
-9.308726e-05,8.178122e-05,2,1
-0.0002006986,9.338019e-06,2,1
-0.0002979378,-6.893953e-05,2,1
-0.0003695707,-0.0001396,2,1
-0.000415111,-0.0001925954,2,1
-0.000437476,-0.0002261429,2,1
-0.0004441207,-0.0002444563,2,1
-0.000439907,-0.0002549905,2,1
-0.000430021,-0.0002653627,2,1
-0.0004160834,-0.0002796244,2,1
-0.0003971218,-0.0002948586,2,1
-0.0003697327,-0.0003045825,2,1
-0.000325813,-0.0003003688,2,1
-0.0002608248,-0.0002794623,2,1
-0.0001773612,-0.0002405667,2,1
-8.660465e-05,-0.0001883817,2,1
-2.006553e-06,-0.0001276072,2,1
6.816773e-05,-6.780507e-05,2,1
0.0001276457,-1.99958e-05,2,1
0.0001851789,1.22552e-05,2,1
0.0002441707,3.526847e-05,2,1
0.0003026763,5.374392e-05,2,1
0.0003534027,6.849186e-05,2,1
0.0003885709,7.918817e-05,2,1
0.0004086671,7.643307e-05,2,1
0.0004240633,5.439218e-05,2,1
0.0004430249,2.165498e-05,2,1
0.0004640934,-2.492749e-06,2,1
0.0004738173,-4.761664e-06,2,1
0.0004616624,1.371378e-05,2,1
0.0004219564,3.802358e-05,2,1
0.0003569682,5.228533e-05,2,1
0.0002809595,5.374392e-05,2,1
0.0002130541,4.758544e-05,2,1
0.000165569,4.35338e-05,2,1
0.0001365593,4.531652e-05,2,1
0.000115977,4.985435e-05,2,1
9.182927e-05,5.034055e-05,2,1
5.61749e-05,4.45062e-05,2,1
7.555301e-06,3.267542e-05,2,1
-4.625038e-05,1.54965e-05,2,1
-9.600444e-05,-5.89612e-06,2,1
-0.0001358725,-2.7937e-05,2,1
-0.0001601823,-4.365734e-05,2,1
-0.00016942,-4.641245e-05,2,1
-0.0001690959,-3.539201e-05,2,1
-0.0001652063,-1.399939e-05,2,1
-0.0001567789,1.54965e-05,2,1
-0.0001451102,5.066468e-05,2,1
-0.0001258245,8.42122e-05,2,1
-7.979791e-05,0.0001062531,2,1
2.635488e-05,0.0001090082,2,1
0.0002266676,9.020862e-05,2,1
0.0005264886,5.61749e-05,2,1
0.0008943772,1.452411e-05,2,1
0.001265021,-2.356124e-05,2,1
0.001568246,-5.095028e-05,2,1
0.001752028,-6.423963e-05,2,1
0.001797569,-6.715681e-05,2,1
0.001715726,-6.553616e-05,2,1
0.001535022,-6.423963e-05,2,1
0.0012822,-6.44017e-05,2,1
0.0009839993,-6.310517e-05,2,1
0.0006715371,-5.872941e-05,2,1
0.0003718782,-4.787104e-05,2,1
0.0001090082,-3.036798e-05,2,1
-9.940781e-05,-8.002969e-06,2,1
-0.0002434839,1.614476e-05,2,1
-0.0003303509,3.98063e-05,2,1
-0.0003767015,6.249545e-05,2,1
-0.0004005251,8.372601e-05,2,1
-0.0004168937,0.0001012291,2,1
-0.0004395829,0.000113546,2,1
-0.0004839888,0.0001187321,2,1
-0.0005575664,0.0001167873,2,1
-0.0006551297,0.0001114392,2,1
-0.0007663065,0.0001051186,2,1
-0.0008786177,9.798775e-05,2,1
-0.000978774,9.328786e-05,2,1
-0.001056241,9.199134e-05,2,1
-0.001099837,9.247754e-05,2,1
-0.001105347,9.101894e-05,2,1
-0.001080551,8.550872e-05,2,1
-0.001036793,7.853991e-05,2,1
-0.0009826636,7.108491e-05,2,1
-0.0009293442,6.265751e-05,2,1
-0.0008805625,5.423012e-05,2,1
-0.0008287016,4.483033e-05,2,1
-0.0007666306,3.170304e-05,2,1
-0.0006911082,1.371378e-05,2,1
-0.0006082929,-6.220252e-06,2,1
-0.0005258016,-2.339918e-05,2,1
-0.0004471999,-3.911951e-05,2,1
-0.0003728119,-5.662256e-05,2,1
-0.0002937241,-7.218083e-05,2,1
-0.0001958367,-8.02841e-05,2,1
-6.958779e-05,-8.174268e-05,2,1
8.550872e-05,-8.125649e-05,2,1
0.000257298,-8.012204e-05,2,1
0.0004371906,-7.590833e-05,2,1
0.0006185417,-6.553616e-05,2,1
0.0007812555,-4.835724e-05,2,1
0.0008945392,-2.485776e-05,2,1
0.0009441312,3.665733e-06,2,1
0.0009371624,2.910999e-05,2,1
0.0008959978,4.175109e-05,2,1
0.0008379783,3.996837e-05,2,1
0.00077769,2.716521e-05,2,1
0.0007248566,1.047248e-05,2,1
0.0006814231,-2.006553e-06,2,1
0.0006462549,-4.599598e-06,2,1
0.0006114109,3.665733e-06,2,1
0.0005681394,2.052053e-05,2,1
0.000507527,4.077869e-05,2,1
0.0004253598,6.362991e-05,2,1
0.000326824,8.761557e-05,2,1
0.0002339606,0.0001069013,2,1
0.0001715654,0.0001175977,2,1
0.0001441764,0.000118408,2,1
0.0001398006,0.0001143563,2,1
0.0001423936,0.0001127357,2,1
0.000130725,0.0001130598,2,1
9.150514e-05,0.0001143563,2,1
2.603075e-05,0.0001193804,2,1
-5.078821e-05,0.0001334801,2,1
-0.0001240417,0.0001560072,2,1
-0.0001796301,0.0001801549,2,1
-0.0002175534,0.0002008992,2,1
-0.0002459149,0.0002143507,2,1
-0.0002737901,0.0002167816,2,1
-0.0003040963,0.0002115956,2,1
-0.0003441264,0.0002041406,2,1
-0.0003974459,0.0001970097,2,1
-0.0004512515,0.0001898788,2,1
-0.0004875542,0.0001814514,2,1
-0.0004935506,0.000173024,2,1
-0.0004731304,0.0001628139,2,1
-0.0004379622,0.000153252,2,1
-0.0004091146,0.0001459591,2,1
-0.0004084663,0.0001389903,2,1
-0.0004476861,0.0001315353,2,1
-0.0005202913,0.0001195424,2,1
-0.0006069963,0.0001031738,2,1
-0.0006839773,8.567078e-05,2,1
-0.0007372968,7.140904e-05,2,1
-0.0007512344,6.006447e-05,2,1
-0.0007146077,4.807163e-05,2,1
-0.0006322784,3.705119e-05,2,1
-0.0005246671,2.505836e-05,2,1
-0.0004212695,7.879432e-06,2,1
-0.0003519055,-1.335113e-05,2,1
-0.0003327818,-3.63644e-05,2,1
-0.0003634122,-5.662256e-05,2,1
-0.0004371519,-7.137051e-05,2,1
-0.0005400634,-8.012204e-05,2,1
-0.0006398956,-8.465986e-05,2,1
-0.0006826808,-8.919769e-05,2,1
-0.000616234,-9.503204e-05,2,1
-0.0004202971,-0.0001028112,2,1
-0.0001091317,-0.0001115627,2,1
0.0002626462,-0.0001201522,2,1
0.0006222692,-0.0001282554,2,1
0.0009130147,-0.0001365208,2,1
0.001095338,-0.0001418689,2,1
0.001147686,-0.0001473791,2,1
0.00106957,-0.0001556445,2,1
0.0008919462,-0.0001674752,2,1
0.0006665131,-0.0001796301,2,1
0.0004527488,-0.0001888679,2,1
0.0002960316,-0.0001972953,2,1
0.0002088404,-0.0002036158,2,1
0.0001714034,-0.0002055606,2,1
0.0001524417,-0.0002058847,2,1
0.0001334801,-0.0002076674,2,1
0.0001043083,-0.0002110708,2,1
6.136099e-05,-0.00021415,2,1
1.063454e-05,-0.000216419,2,1
-3.182657e-05,-0.0002160948,2,1
-4.706071e-05,-0.0002110708,2,1
-2.712668e-05,-0.0002019951,2,1
2.684107e-05,-0.0001945401,2,1
0.0001090082,-0.0001919471,2,1
0.000205275,-0.0001935677,2,1
0.000289549,-0.0001951884,2,1
0.0003362238,-0.0001895161,2,1
0.0003302274,-0.000174444,2,1
0.0002730183,-0.0001556445,2,1
0.0001752929,-0.0001376552,2,1
4.969229e-05,-0.0001175591,2,1
-8.968389e-05,-9.29252e-05,2,1
-0.000223874,-6.537409e-05,2,1
-0.0003371576,-4.05781e-05,2,1
-0.0004181903,-1.691656e-05,2,1
-0.0004553032,3.989864e-06,2,1
-0.0004389346,2.278944e-05,2,1
-0.0003660052,4.256141e-05,2,1
-0.0002556388,6.816773e-05,2,1
-0.0001366828,9.717743e-05,2,1
-3.198864e-05,0.0001221355,2,1
4.77475e-05,0.000135749,2,1
9.814982e-05,0.0001365593,2,1
0.0001244044,0.0001315353,2,1
0.0001347766,0.0001257009,2,1
0.0001404489,0.0001261871,2,1
0.0001406109,0.0001346145,2,1
0.0001300767,0.0001472556,2,1
0.0001030118,0.0001592484,2,1
6.233338e-05,0.000170593,2,1
2.230325e-05,0.0001811273,2,1
-2.238346e-07,0.0001872858,2,1
-2.978945e-06,0.0001889064,2,1
9.175954e-06,0.0001867996,2,1
3.348575e-05,0.0001863134,2,1
7.546067e-05,0.0001926339,2,1
0.0001401247,0.000202844,2,1
0.0002196988,0.0002122438,2,1
0.0002937627,0.0002137024,2,1
0.0003436788,0.0002073819,2,1
0.000356482,0.0001986303,2,1
0.0003326584,0.0001916615,2,1
0.0002858215,0.0001880961,2,1
0.0002334744,0.0001848548,2,1
0.0001820997,0.0001791825,2,1
0.0001388282,0.0001671896,2,1
0.0001192183,0.0001493625,2,1
0.0001380179,0.0001278078,2,1
0.0001965235,0.0001075496,2,1
0.0002817699,9.004655e-05,2,1
0.0003765781,7.367795e-05,2,1
0.0004759242,5.99024e-05,2,1
0.0005846701,4.953022e-05,2,1
0.0007016813,4.142696e-05,2,1
0.0008091307,3.510641e-05,2,1
0.0008788189,2.781346e-05,2,1
0.0008870842,1.857574e-05,2,1
0.0008232304,5.934648e-06,2,1
0.000701033,-1.156841e-05,2,1
0.0005608465,-3.506788e-05,2,1
0.0004461041,-6.359137e-05,2,1
0.0003767402,-9.130454e-05,2,1
0.0003346032,-0.0001141558,2,1
0.0002882525,-0.0001300382,2,1
0.0002104611,-0.0001368449,2,1
9.847395e-05,-0.0001339277,2,1
-3.020592e-05,-0.0001259865,2,1
-0.0001480274,-0.0001139937,2,1
-0.0002371633,-9.940781e-05,2,1
-0.0003005308,-8.660465e-05,2,1
-0.0003528779,-7.979791e-05,2,1
-0.0004073319,-7.979791e-05,2,1
-0.0004645409,-8.806324e-05,2,1
-0.0005136467,-0.0001016767,2,1
-0.0005334187,-0.0001173971,2,1
-0.0005027883,-0.0001329553,2,1
-0.0004162455,-0.0001459206,2,1
-0.0002898345,-0.0001507825,2,1
-0.0001676373,-0.0001483515,2,1
-9.989401e-05,-0.0001408965,2,1
-0.0001114006,-0.0001326312,2,1
-0.0001909747,-0.000127121,2,1
-0.0003065273,-0.0001264727,2,1
-0.000415111,-0.0001287416,2,1
-0.0004828543,-0.0001289037,2,1
-0.0004997091,-0.0001266348,2,1
-0.0004810716,-0.0001219349,2,1
-0.000449955,-0.0001138316,2,1
-0.0004261314,-0.0001003802,2,1
-0.0004165696,-8.255302e-05,2,1
-0.0004240246,-6.39155e-05,2,1
-0.0004434724,-4.706071e-05,2,1
-0.0004638926,-3.279896e-05,2,1
-0.0004763717,-1.967167e-05,2,1
-0.0004753993,-8.002969e-06,2,1
-0.0004617858,7.485573e-07,2,1
-0.0004395829,3.989864e-06,2,1
-0.0004108973,4.962256e-06,2,1
-0.000372974,3.017472e-06,2,1
-0.0003250027,1.558884e-06,2,1
-0.000271035,5.448452e-06,2,1
-0.0002233878,1.97102e-05,2,1
-0.0001925954,4.564065e-05,2,1
-0.0001807646,7.837785e-05,2,1
-0.0001806025,0.0001093323,2,1
-0.00018433,0.0001276457,2,1
-0.0001806025,0.0001265113,2,1
-0.0001532135,0.0001098185,2,1
-9.324933e-05,9.020862e-05,2,1
-9.461558e-06,8.161915e-05,2,1
8.502253e-05,9.069481e-05,2,1
0.0001764274,0.0001161391,2,1
0.0002446569,0.0001461212,2,1
0.0002709115,0.0001714034,2,1
0.0002517878,0.0001858272,2,1
0.000200251,0.0001910133,2,1
0.000138342,0.0001892305,2,1
8.113296e-05,0.0001806411,2,1
3.93201e-05,0.000168,2,1
1.679302e-05,0.0001539003,2,1
1.517237e-05,0.0001419075,2,1
2.376183e-05,0.0001346145,2,1
2.246531e-05,0.0001349386,2,1
-2.238346e-07,0.0001453108,2,1
-4.625038e-05,0.0001626518,2,1
-0.0001026491,0.0001814514,2,1
-0.0001559686,0.0001963614,2,1
-0.000194216,0.0002070577,2,1
-0.0002102605,0.0002179161,2,1
-0.0002029675,0.0002333123,2,1
-0.000179306,0.0002547049,2,1
-0.0001488377,0.0002775562,2,1
-0.0001248521,0.0002906835,2,1
-0.0001149661,0.0002879283,2,1
-0.0001253383,0.0002660495,2,1
-0.000159534,0.0002278021,2,1
-0.0002079916,0.0001756171,2,1
-0.000251263,0.0001150046,2,1
-0.0002750866,5.682316e-05,2,1
-0.0002794623,1.274139e-05,2,1
-0.0002729798,-1.237873e-05,2,1
-0.0002616352,-2.210265e-05,2,1
-0.000251101,-2.388537e-05,2,1
-0.0002415391,-2.664048e-05,2,1
-0.0002324634,-3.895745e-05,2,1
-0.0002233878,-6.407757e-05,2,1
-0.0002194982,-0.0001007043,2,1
-0.0002206326,-0.0001415448,2,1
-0.0002188499,-0.0001809267,2,1
-0.0002010227,-0.0002180396,2,1
-0.0001592099,-0.000253694,2,1
-8.530812e-05,-0.0002875656,2,1
2.424803e-05,-0.0003185201,2,1
0.0001641104,-0.0003454229,2,1
0.0003136967,-0.0003660052,2,1
0.0004498317,-0.0003867496,2,1
0.0005554983,-0.0004073319,2,1
0.000624052,-0.0004245108,2,1
0.000656465,-0.0004347209,2,1
0.0006618132,-0.000435045,2,1
0.0006485239,-0.0004248349,2,1
0.0006251864,-0.0004089525,2,1
0.0006071971,-0.0003856151,2,1
0.0006081695,-0.0003553089,2,1
0.0006289139,-0.0003237062,2,1
0.000656303,-0.0002985861,2,1
0.0006754267,-0.0002775176,2,1
0.0006804507,-0.0002545043,2,1
0.0006770474,-0.0002259808,2,1
0.0006728336,-0.0001900023,2,1
0.0006799645,-0.000144462,2,1
0.0007117294,-9.098041e-05,2,1
0.0007741245,-3.21507e-05,2,1
0.000861964,2.570662e-05,2,1
0.000953207,7.52986e-05,2,1
0.001018033,0.0001114392,2,1
0.001032133,0.0001363972,2,1
0.0009862683,0.0001534141,2,1
0.0008929186,0.0001676758,2,1
0.0007791486,0.0001830721,2,1
0.0006765611,0.0002031682,2,1
0.000606873,0.0002269918,2,1
0.0005637637,0.0002508154,2,1
0.0005193577,0.0002663737,2,1
0.0004521006,0.000269777,2,1
0.0003574544,0.0002631324,2,1
0.0002566497,0.0002547049,2,1
0.0001762653,0.0002508154,2,1
0.000128294,0.0002517878,2,1
0.0001017153,0.0002547049,2,1
7.67572e-05,0.0002555152,2,1
3.024445e-05,0.0002504913,2,1
-5.192267e-05,0.0002384984,2,1
-0.0001642339,0.0002206712,2,1
-0.0002833519,0.0002013854,2,1
-0.000385291,0.0001887444,2,1
-0.000452224,0.0001858272,2,1
-0.0004825302,0.0001913374,2,1
-0.0005029504,0.0001999268,2,1
-0.0005434667,0.000205275,2,1
-0.0006165582,0.0002036544,2,1
-0.0007053699,0.0001942546,2,1
-0.0007792717,0.0001840444,2,1
-0.0008154123,0.0001838824,2,1
-0.0008137916,0.0001984683,2,1
-0.0007959644,0.0002232643,2,1
-0.0007844578,0.0002480603,2,1
-0.0007855922,0.0002610255,2,1
-0.0007909404,0.0002563256,2,1
-0.0007914266,0.0002344468,2,1
-0.000780082,0.0002007372,2,1
-0.0007577171,0.0001633001,2,1
-0.0007300039,0.0001261871,2,1
-0.0007027769,9.26396e-05,2,1
-0.000678143,6.346784e-05,2,1
-0.0006526987,3.996837e-05,2,1
-0.0006126686,2.052053e-05,2,1
-0.0005501114,1.396819e-06,2,1
-0.0004775062,-1.821308e-05,2,1
-0.0004123559,-3.830919e-05,2,1
-0.00036795,-5.727083e-05,2,1
-0.0003463953,-7.33153e-05,2,1
-0.0003402368,-8.433573e-05,2,1
-0.0003277578,-8.871149e-05,2,1
-0.0002864312,-8.725291e-05,2,1
-0.0002013469,-8.158062e-05,2,1
-7.590833e-05,-7.704279e-05,2,1
7.465034e-05,-7.720486e-05,2,1
0.000230071,-8.757704e-05,2,1
0.0003741471,-0.0001089697,2,1
0.0004973168,-0.0001374932,2,1
0.0005854804,-0.0001648822,2,1
0.0006227554,-0.0001849783,2,1
0.0005929354,-0.0001948643,2,1
0.0004848378,-0.0001974573,2,1
0.0003007315,-0.0001955125,2,1
6.233338e-05,-0.0001947022,2,1
-0.0001888679,-0.0001948643,2,1
-0.0004040906,-0.0001929195,2,1
-0.0005421702,-0.0001862748,2,1
-0.0005818762,-0.0001755785,2,1
-0.0005306636,-0.0001634236,2,1
-0.0004141386,-0.0001486757,2,1
-0.0002656868,-0.0001352242,2,1
-0.0001169109,-0.0001261486,2,1
4.962256e-06,-0.0001238797,2,1
8.340187e-05,-0.0001242038,2,1
0.0001175977,-0.0001238797,2,1
0.0001156529,-0.0001243659,2,1
8.583286e-05,-0.0001282554,2,1
3.445814e-05,-0.0001332795,2,1
-2.858527e-05,-0.0001363587,2,1
-8.935975e-05,-0.0001366828,2,1
-0.0001289037,-0.0001353863,2,1
-0.0001276072,-0.0001319829,2,1
-6.942573e-05,-0.0001256624,2,1
4.580272e-05,-0.0001126972,2,1
0.0001908512,-8.887356e-05,2,1
0.000324393,-5.662256e-05,2,1
0.0004203358,-2.015787e-05,2,1
0.0004793275,1.1769e-05,2,1
0.0005135234,3.786152e-05,2,1
0.0005384815,5.957827e-05,2,1
0.000564736,8.567078e-05,2,1
0.0005977973,0.0001166253,2,1
0.0006405826,0.0001490383,2,1
0.0006942263,0.0001808031,2,1
0.0007522457,0.0002106232,2,1
0.0007997309,0.0002461155,2,1
0.0008128582,0.0002889007,2,1
0.0007720177,0.0003326584,2,1
0.0006804507,0.0003668542,2,1
0.0005718669,0.0003843572,2,1
0.0005010443,0.000381278,2,1
0.000512551,0.0003647473,2,1
0.0006033076,0.0003438409,2,1
0.0007334462,0.0003230965,2,1
0.0008486747,0.0002991108,2,1
0.0009057217,0.0002730183,2,1
0.0008906497,0.0002457913,2,1
0.0008109135,0.0002193747,2,1
0.0006846645,0.0001960373,2,1
0.000534754,0.000175455,2,1
0.0003851676,0.0001537382,2,1
0.0002466017,0.0001321835,2,1
0.0001130598,0.0001122495,2,1
-3.198864e-05,9.733949e-05,2,1
-0.0001864369,8.712937e-05,2,1
-0.0003308371,7.52986e-05,2,1
-0.0004387725,5.455425e-05,2,1
-0.0004909576,2.538249e-05,2,1
-0.0004909576,-7.840905e-06,2,1
-0.0004583824,-3.863332e-05,2,1
-0.0004141386,-6.278104e-05,2,1
-0.0003711913,-7.898758e-05,2,1
-0.0003400748,-9.000802e-05,2,1
-0.0003293785,-0.0001020008,2,1
-0.0003509331,-0.0001186936,2,1
-0.0004074939,-0.0001396,2,1
-0.0004922541,-0.0001626133,2,1
-0.0005873864,-0.0001806025,2,1
-0.0006677708,-0.0001810887,2,1
-0.000717849,-0.0001582375,2,1
-0.0007407002,-0.0001156143,2,1
-0.0007496137,-7.007399e-05,2,1
-0.0007588515,-3.928157e-05,2,1
-0.0007719788,-3.26369e-05,2,1
-0.0007813785,-4.365734e-05,2,1
-0.0007739235,-5.937768e-05,2,1
-0.0007460483,-7.282909e-05,2,1
-0.0007026148,-8.563225e-05,2,1
-0.0006501057,-0.0001008664,2,1
-0.0006021344,-0.0001185315,2,1
-0.0005718282,-0.0001365208,2,1
-0.0005616181,-0.0001533756,2,1
-0.0005640491,-0.0001629374,2,1
-0.0005681007,-0.0001624512,2,1
-0.0005634008,-0.0001554824,2,1
-0.0005434667,-0.0001493239,2,1
-0.0005091089,-0.0001486757,2,1
-0.0004700511,-0.0001515928,2,1
-0.0004337485,-0.0001562927,2,1
-0.0004039285,-0.0001614788,2,1
-0.0003770257,-0.000164396,2,1
-0.000342992,-0.0001613168,2,1
-0.0002938862,-0.0001543479,2,1
-0.000223874,-0.0001481895,2,1
-0.0001350622,-0.0001467309,2,1
-3.604027e-05,-0.0001546721,2,1
5.666109e-05,-0.000169258,2,1
0.000128294,-0.0001844921,2,1
0.0001743205,-0.0001935677,2,1
0.0002041406,-0.0001932436,2,1
0.0002307193,-0.0001835197,2,1
0.0002579462,-0.0001652063,2,1
0.000277232,-0.000137169,2,1
0.0002824181,-0.0001011905,2,1
0.0002712356,-6.342931e-05,2,1
0.0002453052,-2.745081e-05,2,1
0.0002088404,6.420843e-06,2,1
0.0001649207,4.207521e-05,2,1
0.0001221355,7.870197e-05,2,1
9.21534e-05,0.0001114392,2,1
8.648112e-05,0.000135749,2,1
0.0001127357,0.0001524417,2,1
0.0001626518,0.0001592484,2,1
0.0002120818,0.0001611932,2,1
0.0002367157,0.0001623277,2,1
0.000222616,0.0001634622,2,1
0.0001749688,0.0001678379,2,1
0.0001175977,0.0001782101,2,1
8.080883e-05,0.0001934442,2,1
8.340187e-05,0.0002104611,2,1
0.0001205148,0.0002258573,2,1
0.0001670276,0.0002380122,2,1
0.0002031682,0.0002438466,2,1
0.0002206712,0.0002440086,2,1
0.0002290986,0.0002412535,2,1
0.000249843,0.0002388225,2,1
0.0002950592,0.0002339606,2,1
0.0003613439,0.000225047,2,1
0.0004341113,0.0002112714,2,1
0.0004960203,0.0001936063,2,1
0.0005290816,0.0001759412,2,1
0.0005227611,0.0001603829,2,1
0.0004806241,0.0001475797,2,1
0.0004180668,0.00013818,2,1
0.0003550234,0.0001339663,2,1
0.0003028383,0.0001351007,2,1
0.0002657254,0.0001401247,2,1
0.0002487085,0.0001459591,2,1
0.000247412,0.0001498487,2,1
0.0002527602,0.0001500107,2,1
0.0002564877,0.0001419075,2,1
0.0002534084,0.0001224596,2,1
0.0002360674,9.652917e-05,2,1
0.0001960373,6.606088e-05,2,1
0.0001344524,3.721326e-05,2,1
5.714729e-05,1.338965e-05,2,1
-2.145439e-05,-4.275467e-06,2,1
-8.741498e-05,-1.902341e-05,2,1
-0.0001384655,-3.069211e-05,2,1
-0.0001890299,-4.462973e-05,2,1
-0.0002600145,-6.002594e-05,2,1
-0.0003640605,-7.347736e-05,2,1
-0.0004922541,-8.336335e-05,2,1
-0.0006225546,-9.130454e-05,2,1
-0.0007338934,-0.0001008664,2,1
-0.0008103882,-0.0001131834,2,1
-0.0008437737,-0.0001238797,2,1
-0.0008325911,-0.0001337657,2,1
-0.0007745718,-0.0001442999,2,1
-0.0006630709,-0.0001556445,2,1
-0.0004891749,-0.0001616409,2,1
-0.0002614731,-0.0001588858,2,1
-1.464765e-05,-0.0001517549,2,1
0.0001961994,-0.0001480274,2,1
0.0003276344,-0.0001527273,2,1
0.0003692851,-0.000161965,2,1
0.0003525924,-0.0001705545,2,1
0.0003253654,-0.0001739578,2,1
0.0003271482,-0.0001699062,2,1
0.000376416,-0.0001626133,2,1
0.0004623107,-0.0001572651,2,1
0.0005640878,-0.00015451,2,1
0.0006682958,-0.0001538618,2,1
0.0007750969,-0.0001541859,2,1
0.0008883807,-0.0001561307,2,1
0.001012847,-0.0001574272,2,1
0.001135369,-0.0001580754,2,1
0.001223856,-0.0001583996,2,1
0.001246546,-0.0001577513,2,1
0.001198898,-0.0001480274,2,1
0.001113652,-0.0001280934,2,1
0.00103894,-0.0001016767,2,1
0.001011875,-7.023606e-05,2,1
0.001036833,-3.733679e-05,2,1
0.001090476,-3.465141e-06,2,1
0.001139258,3.218923e-05,2,1
0.001158058,6.589881e-05,2,1
0.001132289,9.296373e-05,2,1
0.001047043,0.0001094944,2,1
0.000901508,0.0001187321,2,1
0.0007101087,0.0001248906,2,1
0.0005114165,0.0001297526,2,1
0.0003537269,0.0001360731,2,1
0.0002634565,0.0001516314,2,1
0.0002224539,0.0001806411,2,1
0.0001808031,0.0002179161,2,1
9.26396e-05,0.0002550291,2,1
-5.889148e-05,0.0002851732,2,1
-0.0002582318,0.0003038107,2,1
-0.0004682684,0.0003133726,2,1
-0.0006515643,0.000316776,2,1
-0.0007909404,0.0003132105,2,1
-0.0008920691,0.0003015418,2,1
-0.0009674295,0.000284525,2,1
-0.001032418,0.0002654013,2,1
-0.001090599,0.0002472499,2,1
-0.00113614,0.0002289366,2,1
-0.001158018,0.0002111094,2,1
-0.001148619,0.0001931201,2,1
-0.001102916,0.0001788584,2,1
-0.001022856,0.000168,2,1
-0.0009218892,0.000158114,2,1
-0.0008275671,0.0001493625,2,1
-0.0007656582,0.0001412592,2,1
-0.0007484793,0.0001349386,2,1
-0.0007682513,0.0001297526,2,1
-0.000812333,0.0001253768,2,1
-0.0008679214,0.0001198666,2,1
-0.0009226995,0.0001093323,2,1
-0.0009662951,9.296373e-05,2,1
-0.0009940083,7.124698e-05,2,1
-0.0009988702,4.499239e-05,2,1
-0.0009747224,1.501031e-05,2,1
-0.0009175134,-1.983374e-05,2,1
-0.0008254603,-6.116039e-05,2,1
-0.000703101,-0.0001102662,2,1
-0.00056648,-0.0001605064,2,1
-0.000437314,-0.0002019951,2,1
-0.0003412093,-0.0002276015,2,1
-0.0002968033,-0.0002405667,2,1
-0.0003015032,-0.0002454286,2,1
-0.0003271096,-0.0002472114,2,1
-0.0003363473,-0.0002473734,2,1
-0.0003091203,-0.000248832,2,1
-0.0002475355,-0.0002509389,2,1
-0.0001786577,-0.000253856,2,1
-0.0001438137,-0.0002585559,2,1
-0.0001637477,-0.0002626076,2,1
-0.0002233878,-0.0002593663,2,1
-0.0002833519,-0.0002485079,2,1
-0.0002992343,-0.0002306807,2,1
-0.0002408908,-0.0002047502,2,1
-0.0001026491,-0.0001731475,2,1
9.993253e-05,-0.0001410586,2,1
0.0003422202,-0.0001091317,2,1
0.0005966629,-8.547019e-05,2,1
0.0008233925,-7.671866e-05,2,1
0.0009788133,-8.239095e-05,2,1
0.001034564,-9.276313e-05,2,1
0.0009886993,-0.0001013526,2,1
0.0008642329,-0.0001055663,2,1
0.0006979538,-0.0001054042,2,1
0.0005224369,-0.0001024871,2,1
0.0003718782,-0.0001016767,2,1
0.0002723701,-0.0001057284,2,1
0.0002402811,-0.0001146419,2,1
0.0002819319,-0.0001243659,2,1
0.0003898674,-0.000127121,2,1
0.0005334574,-0.000119828,2,1
0.0006678096,-0.0001076731,2,1
0.0007472217,-9.503204e-05,2,1
0.0007522457,-8.628052e-05,2,1
0.0006846645,-8.190475e-05,2,1
0.0005658705,-8.190475e-05,2,1
0.0004206599,-8.255302e-05,2,1
0.0002743149,-7.769106e-05,2,1
0.0001464453,-6.261898e-05,2,1
4.985435e-05,-3.782299e-05,2,1
-1.221667e-05,-6.868513e-06,2,1
-4.203669e-05,2.943412e-05,2,1
-5.046408e-05,7.384002e-05,2,1
-5.662256e-05,0.0001274836,2,1
-7.363943e-05,0.0001770756,2,1
-0.0001026491,0.0002119197,2,1
-0.000137169,0.0002299089,2,1
-0.0001734716,0.0002365536,2,1
-0.0002125294,0.00024255,2,1
-0.0002535319,0.0002514636,2,1
-0.000290969,0.0002637806,2,1
-0.0003115513,0.0002754493,2,1
-0.0003042584,0.0002838767,2,1
-0.0002590421,0.0002859836,2,1
-0.0001682856,0.0002785285,2,1
-3.312309e-05,0.0002607014,2,1
0.0001313732,0.0002370398,2,1
0.0002867939,0.000210299,2,1
0.0003910019,0.0001845306,2,1
0.0004153117,0.0001662173,2,1
0.0003637749,0.0001624898,2,1
0.0002631324,0.0001725378,2,1
0.000150659,0.0001918236,2,1
5.277153e-05,0.0002130541,2,1
-2.226472e-05,0.0002287745,2,1
-7.995997e-05,0.0002357433,2,1
-0.0001334415,0.0002292607,2,1
-0.000186761,0.0002091646,2,1
-0.0002282497,0.0001795066,2,1
-0.0002371633,0.0001461212,2,1
-0.0002052365,0.0001124116,2,1
-0.0001460826,7.90261e-05,2,1
-8.093236e-05,4.385793e-05,2,1
-3.069211e-05,4.962256e-06,2,1
-5.734056e-06,-3.555408e-05,2,1
-5.734056e-06,-7.007399e-05,2,1
-2.955766e-05,-9.389759e-05,2,1
-7.979791e-05,-0.0001068628,2,1
-0.0001562927,-0.0001131834,2,1
-0.0002614731,-0.0001167488,2,1
-0.0003909633,-0.000119828,2,1
-0.0005259637,-0.0001199901,2,1
-0.0006353577,-0.0001136696,2,1
-0.0006977529,-9.892161e-05,2,1
-0.0007103939,-8.303922e-05,2,1
-0.0006823567,-7.282909e-05,2,1
-0.0006214201,-7.526008e-05,2,1
-0.0005402254,-8.854943e-05,2,1
-0.0004549791,-0.0001054042,2,1
-0.0003792946,-0.0001161005,2,1
-0.0003203028,-0.0001190177,2,1
-0.000276059,-0.000117235,2,1
-0.0002355427,-0.0001156143,2,1
-0.0001934057,-0.0001136696,2,1
-0.0001502963,-0.0001118868,2,1
-0.0001008664,-0.000112211,2,1
-4.187462e-05,-0.0001162626,2,1
2.295151e-05,-0.0001214487,2,1
8.972242e-05,-0.0001263107,2,1
0.0001574657,-0.0001314967,2,1
0.0002211574,-0.0001418689,2,1
0.0002723701,-0.0001580754,2,1
0.0003015418,-0.0001776853,2,1
0.0003028383,-0.0001893541,2,1
0.0002838767,-0.0001836818,2,1
0.0002631324,-0.0001630995,2,1
0.0002689667,-0.0001311726,2,1
0.0003276344,-9.179074e-05,2,1
0.0004483731,-5.192267e-05,2,1
0.0006284277,-1.691656e-05,2,1
0.0008446231,9.338019e-06,2,1
0.001058387,2.619281e-05,2,1
0.001237146,3.55926e-05,2,1
0.001358371,3.899597e-05,2,1
0.001410556,3.850978e-05,2,1
0.001394025,3.769945e-05,2,1
0.001320772,4.207521e-05,2,1
0.001214457,5.61749e-05,2,1
0.001097121,8.145709e-05,2,1
0.0009830269,0.0001164632,2,1
0.0008715259,0.0001517934,2,1
0.0007459252,0.0001773998,2,1
0.0005858046,0.0001906891,2,1
0.0003924605,0.000192796,2,1
0.0001918236,0.0001864754,2,1
1.565857e-05,0.0001767515,2,1
-0.0001250141,0.0001647587,2,1
-0.0002335979,0.0001454729,2,1
-0.0003170615,0.0001114392,2,1
-0.0003762153,6.638502e-05,2,1
-0.0003948528,2.262738e-05,2,1
-0.0003496366,-2.006553e-06,2,1
-0.0002402425,2.855407e-06,2,1
-0.0001013526,3.478228e-05,2,1
2.262738e-05,8.599492e-05,2,1
0.0001033359,0.0001441764,2,1
0.0001292664,0.0001992786,2,1
0.0001041462,0.0002456293,2,1
3.786152e-05,0.0002863077,2,1
-4.560212e-05,0.0003303894,2,1
-0.000114804,0.0003841952,2,1
-0.0001465688,0.0004462662,2,1
-0.000137169,0.0005047718,2,1
-9.503204e-05,0.0005459364,2,1
-1.99958e-05,0.0005634395,2,1
9.150514e-05,0.0005535535,2,1
0.0002265056,0.000517575,2,1
0.0003522683,0.0004598797,2,1
0.0004414042,0.0003905157,2,1
0.0004905101,0.0003205035,2,1
0.0005190336,0.0002564877,2,1
0.000549826,0.0001942546,2,1
0.0005913147,0.0001252147,2,1
0.000634262,4.596478e-05,2,1
0.0006574374,-3.895745e-05,2,1
0.0006373413,-0.0001212866,2,1
0.000547395,-0.0001893541,2,1
0.0003697714,-0.0002368392,2,1
0.0001104668,-0.0002643903,2,1
-0.0001938919,-0.000276221,2,1
-0.0004935506,-0.0002770314,2,1
-0.0007376209,-0.0002728177,2,1
-0.0008988759,-0.0002733039,2,1
-0.0009855808,-0.0002875656,2,1
-0.001021883,-0.0003120375,2,1
-0.001030311,-0.0003363473,2,1
-0.001025611,-0.0003509331,2,1
-0.00101378,-0.0003536883,2,1
-0.0009977358,-0.0003483401,2,1
-0.0009794224,-0.0003423437,2,1
-0.0009604607,-0.0003418575,2,1
-0.0009371233,-0.0003472056,2,1
-0.0009107067,-0.000360495,2,1
-0.0008889899,-0.0003768636,2,1
-0.0008815349,-0.0003880461,2,1
-0.0008826694,-0.0003864254,2,1
-0.0008802384,-0.0003673017,2,1
-0.0008656525,-0.0003271096,2,1
-0.0008440978,-0.0002720074,2,1
-0.0008240017,-0.0002177155,2,1
-0.0008084435,-0.0001807646,2,1
-0.0007881853,-0.0001676373,2,1
-0.0007531792,-0.0001707166,2,1
-0.0007029389,-0.0001771992,2,1
-0.0006577228,-0.0001707166,2,1
-0.0006381128,-0.000144462,2,1
-0.0006463782,-0.0001011905,2,1
-0.0006679329,-5.2733e-05,2,1
-0.0006839773,-1.318906e-05,2,1
-0.0006808981,1.355172e-05,2,1
-0.000650754,2.76514e-05,2,1
-0.0005946793,3.786152e-05,2,1
-0.0005212637,4.82337e-05,2,1
-0.0004402311,5.828175e-05,2,1
-0.0003634122,6.816773e-05,2,1
-0.0002953447,7.513654e-05,2,1
-0.0002253326,7.659513e-05,2,1
-0.0001455964,7.643307e-05,2,1
-5.775702e-05,7.918817e-05,2,1
2.829966e-05,8.74535e-05,2,1
0.0001043083,0.0001046324,2,1
0.0001671896,0.0001281319,2,1
0.0002137024,0.0001540623,2,1
0.0002451431,0.0001816135,2,1
0.0002636185,0.0002038164,2,1
0.0002723701,0.0002148369,2,1
0.0002749631,0.0002135403,2,1
0.0002710735,0.0002034923,2,1
0.0002644289,0.0001916615,2,1
0.0002733424,0.000180479,2,1
0.0003247172,0.0001762653,2,1
0.0004428628,0.0001830721,2,1
0.0006302104,0.0002008992,2,1
0.0008606675,0.0002239125,2,1
0.001107655,0.0002448189,2,1
0.001347512,0.0002577842,2,1
0.001550743,0.0002637806,2,1
0.001696764,0.0002670219,2,1
0.001769207,0.0002663737,2,1
0.001760294,0.0002607014,2,1
0.001670347,0.0002490327,2,1
0.001509416,0.0002334744,2,1
0.001305213,0.0002141886,2,1
0.001090963,0.0001926339,2,1
0.000898915,0.000168,2,1
0.000750625,0.0001402868,2,1
0.0006452826,0.0001098185,2,1
0.0005553362,7.756752e-05,2,1
0.0004478869,5.082674e-05,2,1
0.0003028383,3.591673e-05,2,1
0.0001278078,3.18651e-05,2,1
-4.884343e-05,3.154097e-05,2,1
-0.0002060468,2.797553e-05,2,1
-0.0003293785,1.711715e-05,2,1
-0.0004149489,-4.761664e-06,2,1
-0.0004624341,-3.911951e-05,2,1
-0.0004703753,-7.898758e-05,2,1
-0.0004331002,-0.0001141558,2,1
-0.0003449367,-0.0001389517,2,1
-0.0002151224,-0.0001536997,2,1
-6.974985e-05,-0.0001608306,2,1
4.418206e-05,-0.0001603444,2,1
7.52986e-05,-0.0001528894,2,1
-1.196227e-06,-0.0001415448,2,1
-0.000166989,-0.000129714,2,1
-0.0003732982,-0.0001230693,2,1
-0.0005643732,-0.0001280934,2,1
-0.0007008321,-0.0001442999,2,1
-0.0007682513,-0.0001627754,2,1
-0.0007833233,-0.0001786577,2,1
-0.0007758683,-0.000191623,2,1
-0.0007744097,-0.0002032917,2,1
-0.0007872129,-0.0002107467,2,1
-0.0008052022,-0.0002109087,2,1
-0.0008118468,-0.0002049123,2,1
-0.000802285,-0.0001932436,2,1
-0.0007833233,-0.0001773612,2,1
-0.0007627411,-0.0001626133,2,1
-0.0007444277,-0.0001528894,2,1
-0.0007236833,-0.0001473791,2,1
-0.0006935392,-0.0001504584,2,1
-0.0006387612,-0.0001640719,2,1
-0.0005439529,-0.0001831956,2,1
-0.0003917736,-0.0001994021,2,1
-0.0001812508,-0.0002045882,2,1
6.298164e-05,-0.0001961608,2,1
0.0002961937,-0.0001796301,2,1
0.0004717105,-0.0001611547,2,1
0.0005627912,-0.0001425172,2,1
0.0005793219,-0.0001250141,2,1
0.0005579292,-0.0001076731,2,1
0.0005417228,-8.628052e-05,2,1
0.0005517708,-6.116039e-05,2,1
0.0005749461,-3.814712e-05,2,1
0.0005742979,-1.869928e-05,2,1
0.0005274609,-4.275467e-06,2,1
0.0004345975,7.717366e-06,2,1
0.0003161277,1.97102e-05,2,1
0.0002047888,3.218923e-05,2,1
0.0001339663,4.742337e-05,2,1
0.00013818,6.541262e-05,2,1
0.0002417397,8.664318e-05,2,1
0.0004362182,0.0001117633,2,1
0.0006686199,0.0001360731,2,1
0.0008699053,0.0001553589,2,1
0.0009886993,0.0001715654,2,1
0.001004906,0.0001872858,2,1
0.0009295454,0.0002031682,2,1
0.0007893587,0.0002214815,2,1
0.0006159487,0.0002406053,2,1
0.0004462662,0.0002576221,2,1
0.0003208276,0.0002705873,2,1
0.0002624841,0.00027707,2,1
0.0002889007,0.0002765838,2,1
0.0004067223,0.0002725321,2,1
0.0006109247,0.000269777,2,1
0.0008686088,0.0002725321,2,1
0.001118514,0.0002798251,2,1
0.001305051,0.0002864697,2,1
0.001400184,0.0002838767,2,1
0.001396456,0.000274801,2,1
0.001308617,0.0002660495,2,1
0.00116373,0.0002587566,2,1
0.0009912923,0.0002496809,2,1
0.0008088066,0.0002409294,2,1
0.0006227554,0.0002302331,2,1
0.0004318424,0.0002132162,2,1
0.0002294227,0.0001902029,2,1
9.824215e-06,0.0001620036,2,1
-0.0002222533,0.0001305629,2,1
-0.0004486585,0.0001000946,2,1
-0.0006517263,7.497447e-05,2,1
-0.0008191398,5.649903e-05,2,1
-0.0009555988,4.207521e-05,2,1
-0.001063858,3.235129e-05,2,1
-0.001138084,2.910999e-05,2,1
-0.001169039,2.81376e-05,2,1
-0.001158018,2.068259e-05,2,1
-0.00111734,5.448452e-06,2,1
-0.001050569,-1.513384e-05,2,1
-0.0009604607,-3.393342e-05,2,1
-0.0008565768,-4.80331e-05,2,1
-0.000757555,-5.808115e-05,2,1
-0.0006828429,-6.586029e-05,2,1
-0.0006468644,-7.023606e-05,2,1
-0.0006544815,-6.893953e-05,2,1
-0.0006962943,-6.602235e-05,2,1
-0.0007560964,-6.423963e-05,2,1
-0.000814764,-7.282909e-05,2,1
-0.0008560906,-9.341139e-05,2,1
-0.0008731075,-0.0001251762,2,1
-0.0008675972,-0.0001608306,2,1
-0.0008381014,-0.0001921092,2,1
-0.0007817027,-0.0002146363,2,1
-0.000703101,-0.0002279256,2,1
-0.0006149375,-0.0002305186,2,1
-0.0005313118,-0.0002235498,2,1
-0.0004609755,-0.0002088019,2,1
-0.0004089525,-0.0001914609,2,1
-0.0003814014,-0.0001760647,2,1
-0.0003812394,-0.0001689338,2,1
-0.0003987424,-0.0001726613,2,1
-0.0004204592,-0.0001853024,2,1
-0.0004369898,-0.0001994021,2,1
-0.000439907,-0.0002096122,2,1
-0.0004262935,-0.0002122053,2,1
-0.0003974459,-0.0002058847,2,1
-0.0003611433,-0.0001900023,2,1
-0.000328082,-0.0001642339,2,1
-0.0002969654,-0.0001306864,2,1
-0.0002593663,-9.373552e-05,2,1
-0.0002068571,-6.083626e-05,2,1
-0.0001410586,-2.84232e-05,2,1
-7.720486e-05,6.90704e-06,2,1
-3.26369e-05,4.418206e-05,2,1
-1.869928e-05,8.340187e-05,2,1
-3.26369e-05,0.0001237561,2,1
-5.678463e-05,0.0001586002,2,1
-7.120844e-05,0.0001811273,2,1
-6.197072e-05,0.0001835583,2,1
-2.615429e-05,0.0001673517,2,1
3.121684e-05,0.0001396385,2,1
9.717743e-05,0.0001130598,2,1
0.0001550348,0.0001000946,2,1
0.000195389,0.0001039842,2,1
0.0002227781,0.0001226217,2,1
0.0002451431,0.0001461212,2,1
0.0002692908,0.0001620036,2,1
0.0002987867,0.0001660552,2,1
0.000331848,0.0001634622,2,1
0.0003675024,0.0001623277,2,1
0.0004018603,0.000168162,2,1
0.0004344354,0.0001842065,2,1
0.0004751139,0.0002041406,2,1
0.0005344298,0.0002192126,2,1
0.0006096281,0.0002232643,2,1
0.0006849886,0.0002156472,2,1
0.0007374978,0.0002015475,2,1
0.0007491665,0.000185341,2,1
0.000715781,0.0001649207,2,1
0.0006423654,0.0001404489,2,1
0.0005485295,0.0001137081,2,1
0.0004589073,8.648112e-05,2,1
0.0003882468,5.909208e-05,2,1
0.0003331446,3.688912e-05,2,1
0.000292142,2.262738e-05,2,1
0.0002713977,1.679302e-05,2,1
0.0002819319,1.825161e-05,2,1
0.0003333067,2.667901e-05,2,1
0.0004203358,4.628891e-05,2,1
0.0005255162,7.465034e-05,2,1
0.0006222692,0.0001062531,2,1
0.0006864472,0.0001274836,2,1
0.0006987641,0.000128456,2,1
0.000654034,0.0001104668,2,1
0.000562143,8.080883e-05,2,1
0.0004386491,4.72613e-05,2,1
0.0002992729,1.371378e-05,2,1
0.0001584381,-1.918548e-05,2,1
2.927205e-05,-4.965376e-05,2,1
-6.942573e-05,-7.55842e-05,2,1
-0.0001256624,-9.908367e-05,2,1
-0.0001373311,-0.0001217728,2,1
-0.000104918,-0.000149486,2,1
-2.161646e-05,-0.0001859507,2,1
0.0001161391,-0.0002282497,2,1
0.0002923041,-0.000266011,2,1
0.0004611762,-0.0002882139,2,1
0.0005749461,-0.0002877277,2,1
0.0005990939,-0.0002703867,2,1
0.0005243817,-0.0002515871,2,1
0.0003673404,-0.0002399184,2,1
0.0001667035,-0.0002305186,2,1
-2.615429e-05,-0.0002207947,2,1
-0.0001689338,-0.0002105846,2,1
-0.0002412149,-0.0002028055,2,1
-0.0002546664,-0.0002031296,2,1
-0.000241377,-0.000211557,2,1
-0.0002386219,-0.0002235498,2,1
-0.0002658489,-0.0002350565,2,1
-0.0003233821,-0.0002519113,2,1
-0.0003930701,-0.0002830278,2,1
-0.0004517378,-0.0003261372,2,1
-0.0004883645,-0.0003664914,2,1
-0.0005003574,-0.0003849669,2,1
-0.0004911196,-0.0003726499,2,1
-0.0004690787,-0.0003314853,2,1
-0.0004483344,-0.0002715212,2,1
-0.0004319658,-0.0002096122,2,1
-0.0004160834,-0.0001571031,2,1
-0.0003933943,-0.0001175591,2,1
-0.0003574158,-8.595638e-05,2,1
-0.0003073376,-5.046408e-05,2,1
-0.000246239,-7.100305e-07,2,1
-0.0001650443,6.362991e-05,2,1
-3.976777e-05,0.0001363972,2,1
0.0001529279,0.0002080301,2,1
0.0004039671,0.0002683184,2,1
0.0006632718,0.0003101313,2,1
0.0008689329,0.0003307136,2,1
0.0009783271,0.0003357376,2,1
0.0009792994,0.0003363859,2,1
0.0008870842,0.0003418961,2,1
0.000737984,0.0003542131,2,1
0.000567005,0.0003684748,2,1
0.0004038051,0.0003756057,2,1
0.0002629703,0.0003657197,2,1
0.0001412592,0.0003323342,2,1
3.283749e-05,0.0002833905,2,1
-5.678463e-05,0.0002357433,2,1
-0.0001130213,0.0002065715,2,1
-0.000132145,0.00019782,2,1
-0.0001318209,0.0001966855,2,1
-0.0001344139,0.000195227,2,1
-0.0001527273,0.0001936063,2,1
-0.0001827094,0.0001961994,2,1
-0.0002128535,0.0002070577,2,1
-0.000241377,0.0002239125,2,1
-0.0002768693,0.0002427121,2,1
-0.0003292164,0.000262322,2,1
-0.0004021458,0.0002741528,2,1
-0.0004810716,0.0002718839,2,1
-0.0005497872,0.0002517878,2,1
-0.0005904656,0.0002172679,2,1
-0.0005953276,0.0001715654,2,1
-0.0005708557,0.0001185701,2,1
-0.0005415219,6.638502e-05,2,1
-0.0005382806,2.505836e-05,2,1
-0.0005802555,1.002961e-07,2,1
-0.0006596675,-1.156841e-05,2,1
-0.0007489655,-1.578211e-05,2,1
-0.0008233535,-1.335113e-05,2,1
-0.0008703524,-7.840905e-06,2,1
-0.0008881796,-5.479652e-07,2,1
-0.000881859,4.47606e-06,2,1
-0.0008606284,5.448452e-06,2,1
-0.0008338877,1.234753e-06,2,1
-0.0008103882,-1.20546e-05,2,1
-0.0007958024,-3.247483e-05,2,1
-0.000789806,-5.370539e-05,2,1
-0.0007885094,-7.218083e-05,2,1
-0.0007907783,-8.498399e-05,2,1
-0.0007881853,-9.308726e-05,2,1
-0.0007710064,-9.681477e-05,2,1
-0.0007212523,-9.940781e-05,2,1
-0.0006196374,-0.0001065387,2,1
-0.0004551412,-0.0001195039,2,1
-0.0002368392,-0.0001344139,2,1
5.934648e-06,-0.0001501342,2,1
0.0002436845,-0.0001640719,2,1
0.000460528,-0.0001737958,2,1
0.0006456067,-0.000179306,2,1
0.0007926,-0.0001827094,2,1
0.0008874084,-0.0001849783,2,1
0.0009081527,-0.0001849783,2,1
0.0008399231,-0.0001794681,2,1
0.0006948746,-0.0001682856,2,1
0.0005067165,-0.0001522411,2,1
0.0003269861,-0.0001378173,2,1
0.000202844,-0.000132145,2,1
0.000155683,-0.0001361966,2,1
0.0001825859,-0.0001408965,2,1
0.0002615117,-0.0001402483,2,1
0.000368799,-0.0001293899,2,1
0.0004832171,-0.000112211,2,1
0.0005890459,-9.551824e-05,2,1
0.0006760749,-8.563225e-05,2,1
0.0007295565,-8.368748e-05,2,1
0.0007373357,-9.049421e-05,2,1
0.0007114052,-0.0001021629,2,1
0.0006742922,-0.0001084835,2,1
0.0006422033,-9.973194e-05,2,1
0.0006206486,-7.444975e-05,2,1
0.0006259967,-3.911951e-05,2,1
0.0006757508,-2.654814e-06,2,1
0.0007613214,3.18651e-05,2,1
0.0008572642,6.087479e-05,2,1
0.0009483449,8.194328e-05,2,1
0.001033753,9.490851e-05,2,1
0.0011096,0.0001049566,2,1
0.001171995,0.0001143563,2,1
0.001227584,0.0001274836,2,1
0.001291114,0.000145797,2,1
0.001381222,0.0001658931,2,1
0.001499368,0.0001843686,2,1
0.001620593,0.0002017096,2,1
0.001691416,0.0002143507,2,1
0.001664513,0.0002185644,2,1
0.001511199,0.000215161,2,1
0.001238604,0.000210299,2,1
0.0008935668,0.0002094887,2,1
0.0005418848,0.0002122438,2,1
0.0002376881,0.0002166196,2,1
1.857574e-05,0.0002211574,2,1
-0.0001037836,0.000225209,2,1
-0.0001478653,0.0002313675,2,1
-0.0001465688,0.0002406053,2,1
-0.0001332795,0.0002530843,2,1
-0.0001314967,0.000259729,2,1
-0.00015451,0.0002534084,2,1
-0.0002094502,0.0002321778,2,1
-0.0002946965,0.0002000889,2,1
-0.0004079801,0.0001645966,2,1
-0.0005484907,0.0001315353,2,1
-0.0007097457,0.000105929,2,1
-0.0008825073,9.31258e-05,2,1
-0.001061752,9.182927e-05,2,1
-0.00123111,9.782569e-05,2,1
-0.001374862,0.0001047945,2,1
-0.001480204,0.0001057669,2,1
-0.001543572,0.0001017153,2,1
-0.001568692,9.571884e-05,2,1
-0.001565775,8.810177e-05,2,1
-0.001540654,7.805372e-05,2,1
-0.001490414,6.298164e-05,2,1
-0.001405816,4.061663e-05,2,1
-0.001284591,1.079661e-05,2,1
-0.001140839,-2.761287e-05,2,1
-0.001003732,-7.817725e-05,2,1
-0.0009027654,-0.0001387897,2,1
-0.0008543079,-0.0002013469,2,1
-0.0008500942,-0.0002574215,2,1
-0.0008598181,-0.0002979378,2,1
-0.0008515528,-0.0003149546,2,1
-0.0008162226,-0.00030831,2,1
-0.0007619307,-0.0002844864,2,1
-0.0007063423,-0.0002527216,2,1
-0.0006676087,-0.000221443,2,1
-0.0006514022,-0.0001924333,2,1
-0.0006517263,-0.0001707166,2,1
-0.0006551297,-0.0001588858,2,1
-0.0006465403,-0.0001546721,2,1
-0.0006196374,-0.00015451,2,1
-0.000574097,-0.0001572651,2,1
-0.0005178604,-0.0001634236,2,1
-0.0004614617,-0.0001713648,2,1
-0.0004141386,-0.0001759026,2,1
-0.00038286,-0.0001759026,2,1
-0.0003651949,-0.0001700683,2,1
-0.0003494746,-0.0001622891,2,1
-0.0003170615,-0.0001572651,2,1
-0.000253856,-0.0001567789,2,1
-0.000161965,-0.0001614788,2,1
-5.483985e-05,-0.0001665028,2,1
5.066468e-05,-0.0001684476,2,1
0.000143204,-0.0001705545,2,1
0.0002232643,-0.0001737958,2,1
0.0002961937,-0.0001733096,2,1
0.0003577785,-0.0001648822,2,1
0.0003945674,-0.0001473791,2,1
0.0004002396,-0.000122259,2,1
0.0003848434,-9.389759e-05,2,1
0.0003807918,-6.780507e-05,2,1
0.0004303838,-4.236082e-05,2,1
0.0005683015,-1.432352e-05,2,1
0.0007979482,1.727922e-05,2,1
0.001069246,5.293359e-05,2,1
0.001295813,8.729144e-05,2,1
0.001402615,0.0001163011,2,1
0.001369067,0.0001399627,2,1
0.001224991,0.0001633001,2,1
0.001023705,0.0001900409,2,1
0.0008191788,0.0002166196,2,1
0.0006503066,0.0002370398,2,1
0.0005238955,0.0002477361,2,1
0.0004253598,0.0002457913,2,1
0.0003333067,0.0002295848,2,1
0.000232502,0.0002065715,2,1
0.0001261871,0.0001887444,2,1
2.927205e-05,0.0001817755,2,1
-4.770897e-05,0.0001846927,2,1
-0.0001011905,0.0001913374,2,1
-0.0001183694,0.0001974959,2,1
-8.935975e-05,0.0001986303,2,1
-3.101625e-05,0.0001949028,2,1
1.679302e-05,0.0001858272,2,1
2.538249e-05,0.0001723757,2,1
-1.545797e-05,0.0001576278,2,1
-8.692878e-05,0.0001459591,2,1
-0.0001567789,0.0001394765,2,1
-0.0001935677,0.0001347766,2,1
-0.0001809267,0.000128294,2,1
-0.0001193418,0.0001174356,2,1
-2.064406e-05,0.0001038221,2,1
9.16672e-05,9.21534e-05,2,1
0.0001970097,8.680524e-05,2,1
0.0002790148,8.891209e-05,2,1
0.0003279585,9.361199e-05,2,1
0.0003469201,9.750156e-05,2,1
0.0003402755,9.458438e-05,2,1
0.0003151553,8.210535e-05,2,1
0.0002767458,5.893001e-05,2,1
0.0002232643,2.829966e-05,2,1
0.0001508211,-1.196227e-06,2,1
6.687121e-05,-2.242678e-05,2,1
-3.951337e-06,-3.21507e-05,2,1
-2.46957e-05,-3.247483e-05,2,1
4.693717e-05,-3.21507e-05,2,1
0.0002454672,-3.587821e-05,2,1
0.0005882355,-4.657452e-05,2,1
0.001046719,-6.456377e-05,2,1
0.00153405,-8.303922e-05,2,1
0.001936297,-9.535618e-05,2,1
0.002166593,-0.0001024871,2,1
0.002184582,-0.0001094559,2,1
0.001995289,-0.0001182074,2,1
0.00164863,-0.0001280934,2,1
0.001222884,-0.0001383035,2,1
0.0007956792,-0.0001489998,2,1
0.000418391,-0.0001622891,2,1
0.0001124116,-0.0001771992,2,1
-0.0001316588,-0.0001909747,2,1
-0.000348016,-0.0002010227,2,1
-0.0005599973,-0.0002062088,2,1
-0.0007646859,-0.0002045882,2,1
-0.0009447403,-0.00019924,2,1
-0.001076499,-0.0001924333,2,1
-0.00114165,-0.000184168,2,1
-0.00112285,-0.0001733096,2,1
-0.001014104,-0.0001585616,2,1
-0.0008449082,-0.0001425172,2,1
-0.0006739292,-0.0001267968,2,1
-0.0005648594,-0.0001128592,2,1
-0.0005510838,-0.0001021629,2,1
-0.0006154237,-9.324933e-05,2,1
-0.0007082871,-8.482193e-05,2,1
-0.0007711684,-7.347736e-05,2,1
-0.0007616066,-5.791909e-05,2,1
-0.0006703638,-4.05781e-05,2,1
-0.0005207775,-2.566809e-05,2,1
-0.0003572537,-1.562004e-05,2,1
-0.0002269532,-7.678839e-06,2,1
-0.0001566169,1.883015e-06,2,1
-0.0001438137,1.776542e-05,2,1
-0.0001665028,4.077869e-05,2,1
-0.0001997262,7.076078e-05,2,1
-0.0002316531,0.0001009049,2,1
-0.000261311,0.000128456,2,1
-0.0002896725,0.0001539003,2,1
-0.0003138202,0.0001796687,2,1
-0.0003298647,0.0002018716,2,1
-0.0003327818,0.0002166196,2,1
-0.0003162512,0.0002214815,2,1
-0.0002831898,0.0002169437,2,1
-0.0002397564,0.0002044647,2,1
-0.0001981056,0.0001918236,2,1
-0.0001739578,0.0001858272,2,1
-0.0001854645,0.0001842065,2,1
-0.0002415391,0.0001838824,2,1
-0.0003353749,0.0001840444,2,1
-0.0004416897,0.0001833962,2,1
-0.0005386047,0.0001791825,2,1
-0.0006123445,0.0001712413,2,1
-0.0006627468,0.0001623277,2,1
-0.0006932151,0.0001543865,2,1
-0.0007048837,0.0001420695,2,1
-0.0006964564,0.0001193804,2,1
-0.0006667984,9.182927e-05,2,1
-0.0006113721,7.011252e-05,2,1
-0.0005222362,6.362991e-05,2,1
-0.0003984183,6.995045e-05,2,1
-0.0002624455,8.388807e-05,2,1
-0.0001472171,9.701536e-05,2,1
-7.55842e-05,0.0001062531,2,1
-4.511593e-05,0.0001128978,2,1
-3.620233e-05,0.0001182459,2,1
-3.766092e-05,0.0001190562,2,1
-5.516398e-05,0.0001143563,2,1
-9.713889e-05,0.000105929,2,1
-0.0001642339,9.571884e-05,2,1
-0.0002434839,8.388807e-05,2,1
-0.0003170615,7.238143e-05,2,1
-0.0003671397,6.055066e-05,2,1
-0.0003765395,4.790957e-05,2,1
-0.0003345645,3.397195e-05,2,1
-0.0002374874,1.565857e-05,2,1
-9.017008e-05,-3.789272e-06,2,1
8.907416e-05,-2.080613e-05,2,1
0.0002757735,-3.425755e-05,2,1
0.0004464283,-4.608832e-05,2,1
0.0005804563,-5.613637e-05,2,1
0.0006606788,-6.569822e-05,2,1
0.0006864472,-7.363943e-05,2,1
0.0006815852,-8.206682e-05,2,1
0.0006820714,-9.211487e-05,2,1
0.000710757,-9.892161e-05,2,1
0.0007697488,-9.584238e-05,2,1
0.0008464058,-8.109443e-05,2,1
0.0009300316,-5.856735e-05,2,1
0.001015116,-3.539201e-05,2,1
0.001101335,-1.237873e-05,2,1
0.00118885,1.193106e-05,2,1
0.001273773,3.883391e-05,2,1
0.00135513,6.249545e-05,2,1
0.001431625,7.465034e-05,2,1
0.001507147,6.995045e-05,2,1
0.001593204,5.179914e-05,2,1
0.001693523,2.781346e-05,2,1
0.001804052,3.827799e-06,2,1
0.001911663,-1.724069e-05,2,1
0.001992372,-3.701266e-05,2,1
0.002008741,-6.116039e-05,2,1
0.001924466,-9.065628e-05,2,1
0.001723019,-0.0001292278,2,1
0.001420604,-0.0001827094,2,1
0.001054984,-0.0002447804,2,1
0.0006671614,-0.0003021515,2,1
0.0002911697,-0.000348016,2,1
-4.90055e-05,-0.0003807532,2,1
-0.0003335922,-0.0004023079,2,1
-0.000549301,-0.0004112214,2,1
-0.0006975908,-0.0004073319,2,1
-0.0007912645,-0.000390315,2,1
-0.000846853,-0.0003624398,2,1
-0.0008758627,-0.0003251648,2,1
-0.0008865589,-0.0002758969,2,1
-0.0008838038,-0.0002154466,2,1
-0.0008690559,-0.0001483515,2,1
-0.0008366429,-7.639453e-05,2,1
-0.000782513,1.396819e-06,2,1
-0.0007076389,8.145709e-05,2,1
-0.0006238511,0.0001548727,2,1
-0.0005470322,0.00021273,2,1
-0.0004873921,0.000252274,2,1
-0.0004512515,0.00027707,2,1
-0.0004428242,0.0002942489,2,1
-0.0004619479,0.0003026763,2,1
-0.0005074882,0.0003000832,2,1
-0.0005732867,0.0002879283,2,1
-0.0006479988,0.0002720459,2,1
-0.000722873,0.000254867,2,1
-0.0007894818,0.0002389846,2,1
-0.0008434496,0.0002248849,2,1
-0.0008836418,0.0002122438,2,1
-0.0009121653,0.0001992786,2,1
-0.0009385819,0.0001817755,2,1
-0.0009700225,0.000162976,2,1
-0.001006487,0.0001459591,2,1
-0.00103728,0.0001355869,2,1
-0.001051217,0.0001331559,2,1
-0.001051379,0.0001360731,2,1
-0.001047652,0.0001459591,2,1
-0.001046031,0.0001626518,2,1
-0.00104911,0.0001795066,2,1
-0.001054621,0.0001934442,2,1
-0.001054297,0.0002017096,2,1
-0.0010389,0.0002007372,2,1
-0.0009923875,0.0001872858,2,1
-0.0009006586,0.000163138,2,1
-0.0007567446,0.0001328318,2,1
-0.0005708557,0.0001007429,2,1
-0.0003681121,7.497447e-05,2,1
-0.0001802784,6.119892e-05,2,1
-2.647842e-05,5.925414e-05,2,1
9.571884e-05,6.281957e-05,2,1
0.0001859892,6.217132e-05,2,1
0.000235095,4.45062e-05,2,1
0.0002414156,1.234753e-06,2,1
0.0002229401,-6.634648e-05,2,1
0.0002132162,-0.0001455964,2,1
0.0002457913,-0.000219012,2,1
0.0003368721,-0.0002720074,2,1
0.0004884033,-0.0002979378,2,1
0.0006862851,-0.0003000446,2,1
0.0009070183,-0.0002901587,2,1
0.00110879,-0.0002788141,2,1
0.001248004,-0.0002671454,2,1
0.001292734,-0.0002519113,2,1
0.001230987,-0.000231329,2,1
0.001078321,-0.0002084778,2,1
0.0008677984,-0.0001838438,2,1
0.0006405826,-0.0001583996,2,1
0.0004287631,-0.0001358725,2,1
0.0002456293,-0.000114804,2,1
8.826383e-05,-9.081835e-05,2,1
-5.354332e-05,-6.213279e-05,2,1
-0.000184168,-3.344723e-05,2,1
-0.0003042584,-1.221667e-05,2,1
-0.000412518,-4.275467e-06,2,1
-0.0005057055,-1.189254e-05,2,1
-0.000576366,-3.166451e-05,2,1
-0.0006168823,-5.840528e-05,2,1
-0.0006209339,-8.757704e-05,2,1
-0.0005809038,-0.0001114006,2,1
-0.0004922541,-0.0001259865,2,1
-0.0003570916,-0.0001303623,2,1
-0.0001874093,-0.0001316588,2,1
-5.57199e-06,-0.0001378173,2,1
0.0001582761,-0.0001501342,2,1
0.0002705873,-0.000166827,2,1
0.0003120761,-0.000184168,2,1
0.0002866318,-0.0001994021,2,1
0.0002072198,-0.0002107467,2,1
0.0001002567,-0.0002180396,2,1
-5.085794e-06,-0.000219012,2,1
-8.303922e-05,-0.0002088019,2,1
-0.000122259,-0.0001794681,2,1
-0.0001340898,-0.0001349001,2,1
-0.000134576,-8.206682e-05,2,1
-0.0001361966,-2.485776e-05,2,1
-0.0001430034,3.429608e-05,2,1
-0.0001483515,9.377406e-05,2,1
-0.0001402483,0.000148228,2,1
-0.0001081593,0.0001931201,2,1
-4.365734e-05,0.0002323399,2,1
4.985435e-05,0.0002658874,2,1
0.0001652449,0.000292142,2,1
0.0002936006,0.0003120761,2,1
0.0004211461,0.0003279585,2,1
0.0005248679,0.0003405996,2,1
0.0005885597,0.0003461098,2,1
0.0006212969,0.000346596,2,1
0.0006485239,0.0003431926,2,1
0.0006804507,0.0003389789,2,1
0.0007049226,0.0003378445,2,1
0.0007026537,0.0003381686,2,1
0.000661165,0.0003402755,2,1
0.0005883976,0.0003425444,2,1
0.0005115786,0.0003427064,2,1
0.0004728449,0.000339141,2,1
0.0005271368,0.000329255,2,1
0.0007222636,0.0003146691,2,1
0.001062925,0.0003002453,2,1
0.001482999,0.0002914938,2,1
0.00187374,0.0002947351,2,1
0.002134504,0.0003059176,2,1
0.002204354,0.0003162898,2,1
0.002074053,0.0003136967,2,1
0.001778607,0.0002961937,2,1
0.001382843,0.0002644289,2,1
0.0009650377,0.0002214815,2,1
0.0005900182,0.0001767515,2,1
0.0002991108,0.0001362352,2,1
9.588091e-05,0.0001033359,2,1
-4.446767e-05,7.6271e-05,2,1
-0.0001559686,5.309566e-05,2,1
-0.0002697385,3.170304e-05,2,1
-0.0003984183,9.500085e-06,2,1
-0.0005303394,-1.075808e-05,2,1
-0.0006454058,-3.020592e-05,2,1
-0.0007334072,-4.932962e-05,2,1
-0.0008037436,-7.088431e-05,2,1
-0.0008804005,-9.373552e-05,2,1
-0.0009857429,-0.0001161005,2,1
-0.00112755,-0.0001381414,2,1
-0.001290588,-0.0001621271,2,1
-0.001441633,-0.0001869231,2,1
-0.001539682,-0.0002109087,2,1
-0.001551513,-0.0002310048,2,1
-0.001472587,-0.0002460769,2,1
-0.001331914,-0.0002575835,2,1
-0.001177304,-0.0002668213,2,1
-0.001050083,-0.0002728177,2,1
-0.0009700225,-0.0002749245,2,1
-0.0009275614,-0.0002763831,2,1
-0.0008992,-0.0002783279,2,1
-0.0008646801,-0.0002775176,2,1
-0.0008209225,-0.0002700626,2,1
-0.0007787855,-0.0002527216,2,1
-0.000752693,-0.0002350565,2,1
-0.0007470207,-0.0002276015,2,1
-0.000752855,-0.0002327876,2,1
-0.0007454,-0.0002467252,2,1
-0.0006877048,-0.0002603387,2,1
-0.0005483287,-0.0002624455,2,1
-0.0003209511,-0.0002494803,2,1
-3.247483e-05,-0.0002267911,2,1
0.0002589186,-0.0002011848,2,1
0.0004913204,-0.0001791439,2,1
0.0006212969,-0.0001639098,2,1
0.0006422033,-0.0001554824,2,1
0.0005765668,-0.0001488377,2,1
0.0004700898,-0.000137007,2,1
0.000363937,-0.0001162626,2,1
0.0002744769,-8.919769e-05,2,1
0.0001931201,-5.986387e-05,2,1
0.0001080358,-3.117831e-05,2,1
1.54965e-05,-2.168618e-06,2,1
-8.384954e-05,2.846173e-05,2,1
-0.0001786577,6.022653e-05,2,1
-0.0002559629,8.826383e-05,2,1
-0.0003052308,0.0001054428,2,1
-0.0003297026,0.0001098185,2,1
-0.0003376438,0.0001091703,2,1
-0.0003327818,0.0001103047,2,1
-0.0003120375,0.0001166253,2,1
-0.0002705488,0.0001268354,2,1
-0.000208964,0.000138342,2,1
-0.0001316588,0.0001496866,2,1
-4.754691e-05,0.0001587623,2,1
2.894792e-05,0.0001654069,2,1
8.923623e-05,0.0001739964,2,1
0.0001279698,0.000187934,2,1
0.0001529279,0.0002062474,2,1
0.0001824238,0.0002253711,2,1
0.000232502,0.0002443328,2,1
0.0003109416,0.0002631324,2,1
0.000413529,0.0002778803,2,1
0.0005336195,0.0002889007,2,1
0.0006655407,0.0003012177,2,1
0.0008079963,0.0003145071,2,1
0.0009587171,0.0003263378,2,1
0.001106035,0.0003302274,2,1
0.001232932,0.000324231,2,1
0.001320448,0.0003055935,2,1
0.001356588,0.0002759355,2,1
0.001336654,0.0002380122,2,1
0.001265345,0.000192796,2,1
0.001152385,0.0001462832,2,1
0.001000206,0.0001064152,2,1
0.0008068618,7.951231e-05,2,1
0.0005718669,6.346784e-05,2,1
0.000309321,5.1475e-05,2,1
4.369587e-05,3.737532e-05,2,1
-0.0001964849,1.695509e-05,2,1
-0.0003914495,-6.868513e-06,2,1
-0.0005329325,-2.955766e-05,2,1
-0.0006194753,-4.754691e-05,2,1
-0.0006526987,-6.294311e-05,2,1
-0.0006345474,-7.817725e-05,2,1
-0.0005695592,-9.324933e-05,2,1
-0.0004760476,-0.0001065387,2,1
-0.0003898288,-0.0001195039,2,1
-0.0003384541,-0.000132145,2,1
-0.000325651,-0.0001426792,2,1
-0.0003318095,-0.0001477033,2,1
-0.0003262992,-0.0001451102,2,1
-0.0002849726,-0.0001349001,2,1
-0.0002102605,-0.0001193418,2,1
-0.0001253383,-0.000104918,2,1
-5.370539e-05,-9.438378e-05,2,1
-2.654814e-06,-8.952183e-05,2,1
3.073064e-05,-9.535618e-05,2,1
5.115087e-05,-0.0001136696,2,1
5.860588e-05,-0.0001379794,2,1
4.888196e-05,-0.0001621271,2,1
2.522042e-05,-0.0001820611,2,1
-8.165035e-06,-0.0001968091,2,1
-4.916756e-05,-0.0002057227,2,1
-0.0001008664,-0.0002083157,2,1
-0.000164396,-0.0002068571,2,1
-0.0002391081,-0.0002031296,2,1
-0.0003165753,-0.0001945401,2,1
-0.0003846427,-0.0001749302,2,1
-0.0004345588,-0.0001459206,2,1
-0.0004635685,-0.0001133454,2,1
-0.000469727,-8.563225e-05,2,1
-0.0004567618,-6.731888e-05,2,1
-0.0004340726,-5.64605e-05,2,1
-0.0004164075,-4.884343e-05,2,1
-0.000415111,-4.009191e-05,2,1
-0.0004305072,-3.004385e-05,2,1
-0.0004531963,-2.177852e-05,2,1
-0.0004736166,-1.562004e-05,2,1
-0.0004852853,-9.785688e-06,2,1
-0.0004869059,-2.81688e-06,2,1
-0.0004766958,3.665733e-06,2,1
-0.0004585445,1.193106e-05,2,1
-0.0004366657,2.505836e-05,2,1
-0.0004097628,4.547859e-05,2,1
-0.0003723258,7.124698e-05,2,1
-0.0003212752,9.896015e-05,2,1
-0.0002575835,0.0001229458,2,1
-0.0001903264,0.0001368834,2,1
-0.0001316588,0.0001406109,2,1
-9.616651e-05,0.0001370455,2,1
-9.892161e-05,0.0001321835,2,1
-0.0001441378,0.0001255389,2,1
-0.0002173914,0.0001169494,2,1
-0.0002934,0.0001069013,2,1
-0.0003523917,0.0001002567,2,1
-0.0003856151,9.63671e-05,2,1
-0.0003801049,8.810177e-05,2,1
-0.0003141443,7.238143e-05,2,1
-0.0001626133,5.19612e-05,2,1
0.0001052807,3.55926e-05,2,1
0.000500396,2.81376e-05,2,1
0.0009921027,3.299956e-05,2,1
0.001503582,4.920609e-05,2,1
0.001945859,7.546067e-05,2,1
0.002252164,0.0001028497,2,1
0.002397699,0.0001182459,2,1
0.002392675,0.000115977,2,1
0.002272584,0.0001000946,2,1
0.002076809,8.178122e-05,2,1
0.001830792,7.092284e-05,2,1
0.001544422,7.173317e-05,2,1
0.001229367,8.226741e-05,2,1
0.0009143112,9.652917e-05,2,1
0.0006392861,0.0001030118,2,1
0.0004318424,9.68533e-05,2,1
0.0002983005,8.291568e-05,2,1
0.0002169437,7.400208e-05,2,1
0.0001582761,7.886404e-05,2,1
9.960841e-05,9.63671e-05,2,1
3.040651e-05,0.0001166253,2,1
-6.310517e-05,0.0001331559,2,1
-0.0001831956,0.0001428799,2,1
-0.0003228959,0.0001425557,2,1
-0.000469727,0.0001315353,2,1
-0.0006115342,0.0001137081,2,1
-0.0007316245,9.150514e-05,2,1
-0.0008129813,6.46023e-05,2,1
-0.0008408565,3.283749e-05,2,1
-0.000812333,-3.951337e-06,2,1
-0.0007361624,-4.608832e-05,2,1
-0.0006288751,-8.968389e-05,2,1
-0.0005121881,-0.0001258245,2,1
-0.0004143007,-0.0001425172,2,1
-0.0003619536,-0.0001365208,2,1
-0.0003661673,-0.0001159385,2,1
-0.0004204592,-9.811128e-05,2,1
-0.0004940368,-0.0001036215,2,1
-0.000541684,-0.0001399241,2,1
-0.0005306636,-0.000199078,2,1
-0.0004569239,-0.000263742,2,1
-0.0003309991,-0.000318196,2,1
-0.000169258,-0.0003517435,2,1
7.069105e-06,-0.0003622777,2,1
0.000168,-0.000355471,2,1
0.0002924662,-0.0003415334,2,1
0.0003705817,-0.0003240303,2,1
0.00040105,-0.0003024756,2,1
0.0003830607,-0.0002775176,2,1
0.0003138588,-0.0002454286,2,1
0.0001963614,-0.0002083157,2,1
4.45062e-05,-0.0001741199,2,1
-0.0001248521,-0.0001515928,2,1
-0.0002942103,-0.0001400862,2,1
-0.0004471999,-0.0001357104,2,1
-0.0005710179,-0.0001360346,2,1
-0.0006596675,-0.0001353863,2,1
-0.0007115284,-0.0001237176,2,1
-0.0007214144,-9.843541e-05,2,1
-0.0006770085,-6.618442e-05,2,1
-0.0005700454,-3.733679e-05,2,1
-0.0004130042,-1.643037e-05,2,1
-0.0002455907,-1.358292e-06,2,1
-0.0001110765,1.12828e-05,2,1
-3.960571e-05,2.781346e-05,2,1
-2.7937e-05,5.552663e-05,2,1
-4.252288e-05,9.377406e-05,2,1
-4.689865e-05,0.0001344524,2,1
-3.328516e-05,0.0001710792,2,1
-1.529591e-05,0.000202682,2,1
-9.299493e-06,0.0002312055,2,1
-2.761287e-05,0.0002576221,2,1
-7.18567e-05,0.0002829043,2,1
-0.0001327933,0.0003046211,2,1
-0.0001982676,0.0003175863,2,1
-0.0002585559,0.0003171001,2,1
-0.0003036101,0.0003004074,2,1
-0.0003241924,0.0002726942,2,1
-0.0003052308,0.0002436845,2,1
-0.0002420253,0.0002222919,2,1
-0.0001538618,0.0002138645,2,1
-8.287715e-05,0.0002114335,2,1
-6.116039e-05,0.0002081922,2,1
-9.341139e-05,0.0001992786,2,1
-0.0001616409,0.0001856651,2,1
-0.000238946,0.0001731861,2,1
-0.0003031239,0.0001649207,2,1
-0.0003378059,0.0001610312,2,1
-0.000340561,0.000155683,2,1
-0.0003131719,0.0001440143,2,1
-0.0002694143,0.0001248906,2,1
-0.0002274394,0.0001057669,2,1
-0.0002034537,9.474644e-05,2,1
-0.0002081536,9.490851e-05,2,1
-0.0002379736,0.0001017153,2,1
-0.0002744383,0.0001090082,2,1
-0.0003016653,0.0001112771,2,1
-0.000310741,0.0001078737,2,1
-0.0003039342,9.426025e-05,2,1
-0.0002836761,7.124698e-05,2,1
-0.0002507768,4.531652e-05,2,1
-0.0002021572,2.424803e-05,2,1
-0.0001425172,1.290346e-05,2,1
-7.574627e-05,8.365628e-06,2,1
-7.354709e-06,2.369211e-06,2,1
5.779555e-05,-5.409925e-06,2,1
0.0001190562,-1.399939e-05,2,1
0.0001752929,-1.869928e-05,2,1
0.0002192126,-2.177852e-05,2,1
0.0002540567,-2.826114e-05,2,1
0.0002816078,-4.009191e-05,2,1
0.0002978143,-5.500191e-05,2,1
0.0002981384,-6.958779e-05,2,1
0.0002953834,-8.07703e-05,2,1
0.0003130485,-8.903562e-05,2,1
0.0003710679,-9.746302e-05,2,1
0.000473007,-0.0001114006,2,1
0.0006023352,-0.000127283,2,1
0.0007308531,-0.0001373311,2,1
0.0008423541,-0.000134576,2,1
0.0009366762,-0.0001162626,2,1
0.001018519,-8.82253e-05,2,1
0.001082859,-5.678463e-05,2,1
0.001116569,-3.21507e-05,2,1
0.001097769,-2.031993e-05,2,1
0.001009606,-1.934754e-05,2,1
0.0008527263,-2.291298e-05,2,1
0.0006478756,-2.404744e-05,2,1
0.0004271425,-1.529591e-05,2,1
0.000217754,5.610517e-06,2,1
3.526847e-05,3.040651e-05,2,1
-0.000107349,5.001642e-05,2,1
-0.0001927574,5.52025e-05,2,1
-0.0002045882,4.304761e-05,2,1
-0.0001417068,1.987227e-05,2,1
-2.761287e-05,-6.544382e-06,2,1
9.053275e-05,-2.809907e-05,2,1
0.0001699448,-3.944364e-05,2,1
0.0001919856,-4.009191e-05,2,1
0.0001615174,-3.587821e-05,2,1
9.231547e-05,-3.652646e-05,2,1
2.207145e-06,-4.932962e-05,2,1
-8.725291e-05,-7.461182e-05,2,1
-0.0001590478,-0.0001008664,2,1
-0.0002083157,-0.000117235,2,1
-0.0002366771,-0.0001186936,2,1
-0.0002441321,-0.0001036215,2,1
-0.000231329,-7.493595e-05,2,1
-0.0002028055,-3.717473e-05,2,1
-0.0001755785,3.665733e-06,2,1
-0.0001577513,4.013043e-05,2,1
-0.0001365208,6.670914e-05,2,1
-7.963584e-05,8.097089e-05,2,1
3.040651e-05,8.972242e-05,2,1
0.0001739964,9.944634e-05,2,1
0.0003051073,0.0001151667,2,1
0.0003799815,0.0001373696,2,1
0.0003807918,0.0001623277,2,1
0.0003179104,0.0001819376,2,1
0.0002174299,0.0001911753,2,1
0.0001088461,0.0001893926,2,1
2.003433e-05,0.0001796687,2,1
-3.166451e-05,0.0001684862,2,1
-4.916756e-05,0.0001603829,2,1
-4.997789e-05,0.0001577899,2,1
-5.581224e-05,0.0001586002,2,1
-8.190475e-05,0.0001620036,2,1
-0.0001293899,0.0001641104,2,1
-0.000194216,0.0001636242,2,1
-0.000268766,0.0001597346,2,1
-0.0003416954,0.0001521176,2,1
-0.0003995528,0.0001370455,2,1
-0.0004343968,0.0001169494,2,1
-0.0004403932,9.798775e-05,2,1
-0.0004091146,8.712937e-05,2,1
-0.0003394265,8.518459e-05,2,1
-0.0002426735,8.74535e-05,2,1
-0.0001366828,8.777764e-05,2,1
-4.268495e-05,8.161915e-05,2,1
2.327564e-05,6.881599e-05,2,1
5.374392e-05,5.163707e-05,2,1
5.439218e-05,3.251336e-05,2,1
3.251336e-05,1.079661e-05,2,1
-1.358292e-06,-9.461558e-06,2,1
-3.63644e-05,-2.647842e-05,2,1
-6.748094e-05,-4.122636e-05,2,1
-9.276313e-05,-5.435365e-05,2,1
-0.0001054042,-6.926366e-05,2,1
-9.373552e-05,-8.790117e-05,2,1
-4.738484e-05,-0.0001067007,2,1
3.624086e-05,-0.000122259,2,1
0.0001479039,-0.0001349001,2,1
0.0002655633,-0.0001465688,2,1
0.0003619922,-0.0001558065,2,1
0.0004211461,-0.0001630995,2,1
0.0004464283,-0.0001690959,2,1
0.000450642,-0.0001733096,2,1
0.0004469145,-0.0001765509,2,1
0.000435732,-0.0001750923,2,1
0.0004096394,-0.0001663408,2,1
0.0003650715,-0.0001536997,2,1
0.0003117519,-0.0001397621,2,1
0.0002566497,-0.0001305243,2,1
0.0001919856,-0.000127283,2,1
0.0001080358,-0.0001276072,2,1
6.096713e-06,-0.0001303623,2,1
-9.632857e-05,-0.0001306864,2,1
-0.0001750923,-0.0001279313,2,1
-0.0002112329,-0.0001224211,2,1
-0.0002021572,-0.0001130213,2,1
-0.000159372,-9.989401e-05,2,1
-0.0001130213,-8.709085e-05,2,1
-0.0001063766,-7.963584e-05,2,1
-0.0001715269,-7.833932e-05,2,1
-0.0003031239,-8.174268e-05,2,1
-0.0004715097,-8.125649e-05,2,1
-0.0006348715,-7.299116e-05,2,1
-0.0007573929,-5.581224e-05,2,1
-0.0008167088,-3.944364e-05,2,1
-0.000807309,-3.21507e-05,2,1
-0.0007413484,-3.474375e-05,2,1
-0.0006494574,-4.219875e-05,2,1
-0.0005684248,-4.770897e-05,2,1
-0.0005136467,-4.722278e-05,2,1
-0.0004732924,-3.539201e-05,2,1
-0.0004212695,-1.140634e-05,2,1
-0.0003472056,1.727922e-05,2,1
-0.0002721694,4.596478e-05,2,1
-0.0002277635,7.059871e-05,2,1
-0.0002235498,8.907416e-05,2,1
-0.0002473734,0.0001030118,2,1
-0.000281083,0.0001166253,2,1
-0.0003070135,0.0001318594,2,1
-0.0003036101,0.000150659,2,1
-0.0002509389,0.0001707551,2,1
-0.0001468929,0.0001880961,2,1
-2.015787e-05,0.0002007372,2,1
8.064677e-05,0.0002090025,2,1
0.0001239182,0.00021273,2,1
0.0001179218,0.000215161,2,1
9.442231e-05,0.000217592,2,1
7.805372e-05,0.0002237505,2,1
7.059871e-05,0.0002346088,2,1
6.962632e-05,0.0002493568,2,1
8.016057e-05,0.0002615117,2,1
0.0001151667,0.0002631324,2,1
0.0001872858,0.0002560015,2,1
0.0003002453,0.0002397949,2,1
0.0004425387,0.0002205092,2,1
0.0005937457,0.0001997648,2,1
0.0007357151,0.0001806411,2,1
0.0008520781,0.0001624898,2,1
0.0009264661,0.0001443384,2,1
0.0009464002,0.0001227837,2,1
0.0009130147,9.701536e-05,2,1
0.0008446231,6.638502e-05,2,1
0.000784983,3.705119e-05,2,1
0.0007900069,1.452411e-05,2,1
0.0008893532,-6.176923e-08,2,1
0.001055632,-7.192643e-06,2,1
0.001221749,-1.756482e-05,2,1
0.001325634,-4.171256e-05,2,1
0.001338923,-8.320128e-05,2,1
0.0012634,-0.0001366828,2,1
0.001107331,-0.0001937298,2,1
0.0008823843,-0.0002447804,2,1
0.0006050903,-0.000278652,2,1
0.0002965178,-0.0002899966,2,1
-1.805102e-05,-0.0002783279,2,1
-0.0003151167,-0.000248832,2,1
-0.0005822003,-0.0002128535,2,1
-0.0008207604,-0.0001806025,2,1
-0.001036956,-0.0001582375,2,1
-0.001226896,-0.0001447861,2,1
-0.001374051,-0.0001302002,2,1
-0.001459622,-0.0001081593,2,1
-0.001471777,-7.833932e-05,2,1
-0.001409706,-5.192267e-05,2,1
-0.001282971,-3.879538e-05,2,1
-0.001120257,-4.462973e-05,2,1
-0.0009568953,-6.634648e-05,2,1
-0.0008160605,-9.276313e-05,2,1
-0.0007021286,-0.0001118868,2,1
-0.000603593,-0.0001191798,2,1
-0.0005005194,-0.0001182074,2,1
-0.0003820497,-0.0001169109,2,1
-0.0002558008,-0.0001224211,2,1
-0.0001415448,-0.0001349001,2,1
-5.937768e-05,-0.000152079,2,1
-1.886135e-05,-0.0001700683,2,1
-1.67545e-05,-0.0001874093,2,1
-4.592625e-05,-0.0002039399,2,1
-9.66527e-05,-0.0002185258,2,1
-0.0001541859,-0.0002276015,2,1
-0.0002070192,-0.0002323013,2,1
-0.0002457528,-0.0002334358,2,1
-0.0002553146,-0.0002366771,2,1
-0.0002162569,-0.000238784,2,1
-0.0001109144,-0.0002324634,2,1
5.747142e-05,-0.0002117191,2,1
0.0002660495,-0.000174444,2,1
0.0004733311,-0.000122097,2,1
0.0006310208,-6.002594e-05,2,1
0.0007078398,4.313994e-06,2,1
0.0007065432,6.152305e-05,2,1
0.0006430136,0.000106091,2,1
0.0005289196,0.0001380179,2,1
0.0003696093,0.000160707,2,1
0.00018291,0.0001769136,2,1
-1.196227e-06,0.000192796,2,1
-0.0001391138,0.0002086784,2,1
-0.0001925954,0.0002237505,2,1
-0.0001423551,0.0002341226,2,1
1.063454e-05,0.0002417397,2,1
0.0002334744,0.0002504913,2,1
0.0004595556,0.0002639427,2,1
0.0006161107,0.0002790148,2,1
0.0006639201,0.0002937627,2,1
0.0006331276,0.0003077003,2,1
0.0005981215,0.0003250413,2,1
0.0006170832,0.0003457857,2,1
0.0006900126,0.0003647473,2,1
0.0007687764,0.0003798194,2,1
0.0007937344,0.0003922984,2,1
0.0007212912,0.0004000776,2,1
0.0005499881,0.0003982949,2,1
0.0003179104,0.0003827366,2,1
8.405014e-05,0.0003483787,2,1
-9.924574e-05,0.0002979764,2,1
-0.0002068571,0.0002444948,2,1
-0.0002392702,0.0001997648,2,1
-0.0002152845,0.0001663793,2,1
-0.0001663408,0.0001419075,2,1
-0.0001259865,0.000120839,2,1
-0.000104918,0.0001020394,2,1
-9.843541e-05,8.988449e-05,2,1
-0.0001032974,8.486046e-05,2,1
-0.0001225832,7.999851e-05,2,1
-0.0001652063,7.432621e-05,2,1
-0.0002353806,6.78436e-05,2,1
-0.0003233821,5.94162e-05,2,1
-0.0004139766,4.531652e-05,2,1
-0.0004967919,2.489629e-05,2,1
-0.0005612939,5.86492e-07,2,1
-0.0005959758,-2.339918e-05,2,1
-0.0006005137,-4.43056e-05,2,1
-0.0005834968,-6.342931e-05,2,1
-0.0005629146,-8.611845e-05,2,1
-0.0005561078,-0.0001169109,2,1
-0.0005711799,-0.000156941,2,1
-0.0006031067,-0.0002008607,2,1
-0.0006361681,-0.0002426735,2,1
-0.0006541573,-0.0002746004,2,1
-0.0006421645,-0.0002916173,2,1
-0.0005971103,-0.0002956689,2,1
-0.0005264499,-0.0002942103,2,1
-0.0004463896,-0.0002917793,2,1
-0.0003773498,-0.0002929138,2,1
-0.0003376438,-0.0002942103,2,1
-0.0003327818,-0.0002916173,2,1
-0.0003570916,-0.0002814071,2,1
-0.0003997148,-0.0002621213,2,1
-0.0004416897,-0.0002366771,2,1
-0.000462272,-0.0002123673,2,1
-0.000449955,-0.0001943781,2,1
-0.0004053871,-0.0001846542,2,1
-0.000338292,-0.0001840059,2,1
-0.0002606628,-0.0001887058,2,1
-0.0001802784,-0.0001925954,2,1
-9.470791e-05,-0.0001909747,2,1
7.393236e-06,-0.0001799543,2,1
0.0001346145,-0.0001634236,2,1
0.0002756114,-0.0001462447,2,1
0.0003973225,-0.0001318209,2,1
0.0004671726,-0.0001208004,2,1
0.0004739794,-0.0001125351,2,1
0.0004292493,-0.0001032974,2,1
0.0003546993,-8.838737e-05,2,1
0.0002735045,-6.48879e-05,2,1
0.0002049509,-2.923353e-05,2,1
0.0001615174,1.695509e-05,2,1
0.0001425557,7.043665e-05,2,1
0.000135911,0.0001224596,2,1
0.0001289422,0.0001663793,2,1
0.0001219734,0.0001996027,2,1
0.0001313732,0.0002243987,2,1
0.0001762653,0.0002428742,2,1
0.0002568118,0.0002571359,2,1
0.0003498373,0.0002637806,2,1
0.0004266563,0.000259729,2,1
0.0004725208,0.0002462775,2,1
0.000500396,0.0002297469,2,1
0.0005307022,0.0002154851,2,1
0.0005739738,0.0002080301,2,1
0.0006177314,0.0002090025,2,1
0.0006353966,0.0002161334,2,1
0.0006075213,0.0002232643,2,1
0.0005396159,0.0002278021,2,1
0.0004639314,0.0002299089,2,1
0.0004162841,0.0002292607,2,1
0.0004141773,0.0002216436,2,1
0.0004427008,0.0002039785,2,1
0.0004710622,0.0001801549,2,1
0.0004718725,0.0001564933,2,1
0.0004311941,0.0001342904,2,1
0.0003546993,0.000113546,2,1
0.0002555152,0.0001000946,2,1
0.0001428799,0.0001056048,2,1
2.959619e-05,0.0001399627,2,1
-5.467778e-05,0.0002013854,2,1
-8.093236e-05,0.0002769079,2,1
-4.090223e-05,0.0003498373,2,1
4.742337e-05,0.0004063981,2,1
0.0001459591,0.0004402698,2,1
0.0002321778,0.000450804,2,1
0.0003023522,0.0004423766,2,1
0.0003602095,0.0004208219,2,1
0.0004051016,0.000393595,2,1
0.0004373526,0.0003653956,2,1
0.0004611762,0.0003331446,2,1
0.0004846757,0.000289549,2,1
0.0005062304,0.0002297469,2,1
0.0005268127,0.0001560072,2,1
0.0005545259,7.043665e-05,2,1
0.0005948802,-1.950961e-05,2,1
0.0006392861,-0.0001068628,2,1
0.000661165,-0.0001864369,2,1
0.0006188659,-0.0002545043,2,1
0.0004731691,-0.0003123616,2,1
0.0002218057,-0.0003585502,2,1
-9.470791e-05,-0.0003922598,2,1
-0.0004057112,-0.0004149489,2,1
-0.0006441093,-0.0004334244,2,1
-0.0007744097,-0.0004481723,2,1
-0.0008014747,-0.0004587066,2,1
-0.0007573929,-0.0004664857,2,1
-0.0006812222,-0.0004752372,2,1
-0.0006021344,-0.0004922541,2,1
-0.000534229,-0.0005240189,2,1
-0.0004856094,-0.0005723144,2,1
-0.0004502792,-0.0006241752,2,1
-0.0004131662,-0.0006622606,2,1
-0.0003596847,-0.0006747396,2,1
-0.000285945,-0.0006577228,2,1
-0.0002034537,-0.00061121,2,1
-0.0001156143,-0.0005360117,2,1
-4.761664e-06,-0.0004402311,2,1
0.0001479039,-0.0003361852,2,1
0.0003381686,-0.0002408908,2,1
0.0005323229,-0.0001708786,2,1
0.0006882299,-0.0001334415,2,1
0.0007741245,-0.0001224211,2,1
0.0007841726,-0.0001208004,2,1
0.0007362012,-0.000112211,2,1
0.0006556547,-8.741498e-05,2,1
0.000567167,-4.365734e-05,2,1
0.000487755,1.079661e-05,2,1
0.0004188772,6.362991e-05,2,1
0.0003459477,0.0001017153,2,1
0.000247412,0.000118408,2,1
0.0001172735,0.0001156529,2,1
-3.312309e-05,0.0001028497,2,1
-0.0001844921,9.085688e-05,2,1
-0.0003271096,9.555677e-05,2,1
-0.0004585445,0.0001245665,2,1
-0.0005745832,0.0001748067,2,1
-0.0006611261,0.0002360674,2,1
-0.0007061802,0.0002932765,2,1
-0.0007069906,0.0003342791,2,1
-0.0006669604,0.0003553475,2,1
-0.0006000275,0.0003628026,2,1
-0.0005282326,0.0003644232,2,1
-0.0004830164,0.0003632887,2,1
-0.0004937127,0.0003582647,2,1
-0.0005692351,0.0003440029,2,1
-0.0006935392,0.0003206656,2,1
-0.0008355084,0.0002911697,2,1
-0.0009641882,0.0002644289,2,1
-0.001055431,0.0002504913,2,1
-0.001093354,0.0002509774,2,1
-0.001075365,0.0002619979,2,1
-0.001009891,0.0002744769,2,1
-0.0009134618,0.0002832284,2,1
-0.0008011505,0.0002829043,2,1
-0.0006875428,0.0002736666,2,1
-0.0005841451,0.0002631324,2,1
-0.0005092709,0.000257298,2,1
-0.000482206,0.0002571359,2,1
-0.000511864,0.0002600531,2,1
-0.0005846313,0.0002607014,2,1
-0.0006786292,0.0002534084,2,1
-0.000777651,0.0002347709,2,1
-0.0008739179,0.0002090025,2,1
-0.0009612711,0.0001816135,2,1
-0.001035173,0.0001537382,2,1
-0.00108752,0.0001229458,2,1
-0.001101782,9.037068e-05,2,1
-0.001053162,5.860588e-05,2,1
-0.0009261029,3.283749e-05,2,1
-0.0007351899,1.160693e-05,2,1
-0.0005151053,-1.059602e-05,2,1
-0.0002917793,-3.798505e-05,2,1
-5.986387e-05,-6.877746e-05,2,1
0.000205275,-9.778715e-05,2,1
0.0005102821,-0.0001201522,2,1
0.0008397611,-0.0001314967,2,1
0.001160813,-0.0001303623,2,1
0.001436811,-0.000122259,2,1
0.001629993,-0.0001161005,2,1
0.001734201,-0.0001157764,2,1
0.001784604,-0.0001237176,2,1
0.001826417,-0.0001368449,2,1
0.001892215,-0.0001517549,2,1
0.001987672,-0.0001665028,2,1
0.002095446,-0.0001741199,2,1
0.002186851,-0.0001671511,2,1
0.002241954,-0.0001460826,2,1
0.002254108,-0.0001141558,2,1
0.002233526,-8.611845e-05,2,1
0.002221696,-7.023606e-05,2,1
0.002258646,-6.877746e-05,2,1
0.002339031,-7.947377e-05,2,1
0.002394944,-9.616651e-05,2,1
0.0023319,-0.0001118868,2,1
0.002089126,-0.0001250141,2,1
0.001669537,-0.000137169,2,1
0.001134558,-0.0001486757,2,1
0.0005691118,-0.0001556445,2,1
5.228533e-05,-0.0001574272,2,1
-0.0003622777,-0.0001553203,2,1
-0.0006614503,-0.0001515928,2,1
-0.0008583596,-0.0001447861,2,1
-0.0009768293,-0.0001292278,2,1
-0.001035173,-0.0001024871,2,1
-0.001046517,-6.764301e-05,2,1
-0.001021235,-3.166451e-05,2,1
-0.0009758569,-3.303076e-06,2,1
-0.0009296683,1.501031e-05,2,1
-0.0009009827,2.473423e-05,2,1
-0.0008962828,2.732727e-05,2,1
-0.0009110308,2.473423e-05,2,1
-0.0009309648,1.9224e-05,2,1
-0.0009382577,1.54965e-05,2,1
-0.0009238339,1.59827e-05,2,1
-0.0008972552,2.376183e-05,2,1
-0.0008826694,4.013043e-05,2,1
-0.0008982276,6.589881e-05,2,1
-0.0009479817,9.490851e-05,2,1
-0.001021883,0.0001200286,2,1
-0.00109384,0.0001354248,2,1
-0.001138408,0.0001402868,2,1
-0.001139057,0.000135911,2,1
-0.001091085,0.000123432,2,1
-0.001005191,0.0001094944,2,1
-0.0008982276,0.0001046324,2,1
-0.0007911025,0.0001164632,2,1
-0.0007013183,0.0001419075,2,1
-0.0006402197,0.000170431,2,1
-0.0006159099,0.0001944166,2,1
-0.0006306578,0.0002075439,2,1
-0.0006711741,0.0002091646,2,1
-0.0007103939,0.0002030061,2,1
-0.0007243316,0.0001970097,2,1
-0.0006969426,0.000195227,2,1
-0.0006270924,0.0002007372,2,1
-0.0005275843,0.0002146748,2,1
-0.0004147869,0.0002302331,2,1
-0.0003011791,0.0002404432,2,1
-0.0002032917,0.0002404432,2,1
-0.0001381414,0.000225209,2,1
-0.0001107524,0.0001942546,2,1
-0.0001115627,0.0001517934,2,1
-0.0001214487,0.0001065772,2,1
-0.0001199901,6.557468e-05,2,1
-0.0001026491,2.927205e-05,2,1
-8.547019e-05,-3.951337e-06,2,1
-8.352541e-05,-3.506788e-05,2,1
-8.935975e-05,-6.683268e-05,2,1
-6.926366e-05,-9.956988e-05,2,1
4.151929e-06,-0.0001300382,2,1
0.0001227837,-0.000149486,2,1
0.0002453052,-0.0001558065,2,1
0.0003339549,-0.0001551583,2,1
0.0003696093,-0.0001533756,2,1
0.0003499994,-0.000151917,2,1
0.0002824181,-0.0001486757,2,1
0.0001840444,-0.0001433275,2,1
7.610894e-05,-0.0001396,2,1
-2.0482e-05,-0.0001425172,2,1
-9.713889e-05,-0.0001524032,2,1
-0.0001588858,-0.0001658546,2,1
-0.0002147983,-0.0001802784,2,1
-0.0002663351,-0.0001961608,2,1
-0.0003050687,-0.0002104225,2,1
-0.0003164132,-0.000219012,2,1
-0.0002929138,-0.0002203085,2,1
-0.0002397564,-0.000216581,2,1
-0.0001754164,-0.0002094502,2,1
-0.0001161005,-0.0002021572,2,1
-6.974985e-05,-0.0001951884,2,1
-3.004385e-05,-0.0001924333,2,1
1.64689e-05,-0.0001934057,2,1
7.546067e-05,-0.0001958367,2,1
0.0001466074,-0.0001956746,2,1
0.0002342847,-0.0001883817,2,1
0.0003461098,-0.0001710407,2,1
0.0004791655,-0.0001498101,2,1
0.0006159487,-0.0001329553,2,1
0.0007240463,-0.000122259,2,1
0.0007778521,-0.0001164247,2,1
0.0007673178,-0.0001089697,2,1
0.0006930918,-9.503204e-05,2,1
0.000564574,-7.542214e-05,2,1
0.0003958639,-5.565017e-05,2,1
0.000220023,-4.106429e-05,2,1
6.444023e-05,-3.150244e-05,2,1
-5.613637e-05,-2.09682e-05,2,1
-0.000137169,-4.761664e-06,2,1
-0.0001747682,1.760335e-05,2,1
-0.0001562927,4.272347e-05,2,1
-6.991193e-05,7.027458e-05,2,1
7.853991e-05,9.944634e-05,2,1
0.0002561635,0.000128294,2,1
0.0004274666,0.0001529279,2,1
0.0005733255,0.0001723757,2,1
0.0006932539,0.0001889064,2,1
0.0007885484,0.0002039785,2,1
0.0008559676,0.0002187264,2,1
0.0008903255,0.0002312055,2,1
0.0008901635,0.0002401191,2,1
0.0008600192,0.0002433604,2,1
0.0008107513,0.0002427121,2,1
0.0007514353,0.0002394708,2,1
0.000693578,0.0002346088,2,1
0.0006503066,0.0002287745,2,1
0.0006441481,0.0002209954,2,1
0.0006845024,0.0002115956,2,1
0.0007660213,0.0002020337,2,1
0.0008721742,0.0001958752,2,1
0.0009804339,0.0001908512,2,1
0.001075404,0.0001851789,2,1
0.00115984,0.0001791825,2,1
0.001242494,0.0001769136,2,1
0.001323203,0.0001825859,2,1
0.001385922,0.0001955511,2,1
0.001419145,0.0002075439,2,1
0.001427735,0.0002114335,2,1
0.001426114,0.0002054371,2,1
0.001414608,0.0001918236,2,1
0.001354805,0.0001759412,2,1
0.001195333,0.000160707,2,1
0.0009117182,0.0001459591,2,1
0.000534916,0.0001297526,2,1
0.0001461212,0.0001091703,2,1
-0.0001679614,8.453633e-05,2,1
-0.000358064,6.379197e-05,2,1
-0.0004360174,5.341979e-05,2,1
-0.0004480103,5.179914e-05,2,1
-0.0004416897,5.1475e-05,2,1
-0.000447362,4.807163e-05,2,1
-0.0004698891,3.510641e-05,2,1
-0.0004914437,1.290346e-05,2,1
-0.0005005194,-1.497178e-05,2,1
-0.0005050572,-4.284701e-05,2,1
-0.0005180225,-6.974985e-05,2,1
-0.0005549733,-9.859748e-05,2,1
-0.0006199615,-0.0001287416,2,1
-0.000715418,-0.0001592099,2,1
-0.0008439358,-0.0001857886,2,1
-0.0009931979,-0.0002018331,2,1
-0.001133384,-0.0002068571,2,1
-0.001238403,-0.0002010227,2,1
-0.001301446,-0.0001895161,2,1
-0.001333535,-0.0001797922,2,1
-0.001348121,-0.0001752544,2,1
-0.001350552,-0.0001752544,2,1
-0.001342449,-0.0001823853,2,1
-0.001322677,-0.0002028055,2,1
-0.001289291,-0.0002366771,2,1
-0.001244237,-0.0002758969,2,1
-0.001189783,-0.0003100927,2,1
-0.001123498,-0.000325813,2,1
-0.001044573,-0.0003180339,2,1
-0.0009593263,-0.0002882139,2,1
-0.0008789418,-0.0002451045,2,1
-0.0008102262,-0.000201509,2,1
-0.0007437794,-0.0001697442,2,1
-0.0006680949,-0.000151917,2,1
-0.0005872243,-0.0001402483,2,1
-0.0005167259,-0.0001242038,2,1
-0.000467134,-0.0001005423,2,1
-0.0004305072,-7.526008e-05,2,1
-0.0003938804,-5.338126e-05,2,1
-0.000350447,-3.604027e-05,2,1
-0.0002987481,-2.194059e-05,2,1
-0.000231491,-8.489166e-06,2,1
-0.0001381414,7.393236e-06,2,1
-2.534396e-05,2.748934e-05,2,1
8.032264e-05,4.77475e-05,2,1
0.0001474177,6.055066e-05,2,1
0.0001639484,6.298164e-05,2,1
0.0001420695,6.136099e-05,2,1
9.847395e-05,6.330578e-05,2,1
4.677511e-05,7.351589e-05,2,1
-8.720959e-07,9.16672e-05,2,1
-3.830919e-05,0.0001137081,2,1
-6.537409e-05,0.0001367214,2,1
-8.563225e-05,0.0001616794,2,1
-0.0001003802,0.0001960373,2,1
-0.0001067007,0.0002420638,2,1
-0.000102325,0.000294573,2,1
-9.130454e-05,0.0003404375,2,1
-7.542214e-05,0.0003668542,2,1
-5.062615e-05,0.0003734989,2,1
-1.140634e-05,0.0003683128,2,1
4.483033e-05,0.0003582647,2,1
0.0001138702,0.0003435168,2,1
0.0001808031,0.0003258516,2,1
0.0002269918,0.0003072141,2,1
0.0002435224,0.0002867939,2,1
0.0002242366,0.0002611876,2,1
0.000168162,0.0002243987,2,1
8.210535e-05,0.0001701068,2,1
-1.367526e-05,0.0001013911,2,1
-9.19528e-05,3.299956e-05,2,1
-0.0001318209,-1.724069e-05,2,1
-0.0001308485,-3.555408e-05,2,1
-9.924574e-05,-2.194059e-05,2,1
-4.300908e-05,9.66215e-06,2,1
3.883391e-05,4.045456e-05,2,1
0.0001414213,6.119892e-05,2,1
0.0002545429,7.076078e-05,2,1
0.000378685,7.270556e-05,2,1
0.0005248679,7.092284e-05,2,1
0.0007041123,6.525056e-05,2,1
0.0009183628,5.455425e-05,2,1
0.001152061,4.158902e-05,2,1
0.001367609,3.478228e-05,2,1
0.001509578,3.964424e-05,2,1
0.00152935,5.341979e-05,2,1
0.001420118,6.735741e-05,2,1
0.001221263,7.140904e-05,2,1
0.0009956681,6.346784e-05,2,1
0.000797462,4.35338e-05,2,1
0.0006689441,2.052053e-05,2,1
0.0006287518,2.369211e-06,2,1
0.000676237,-6.544382e-06,2,1
0.0007919518,-6.220252e-06,2,1
0.0009363521,-3.303076e-06,2,1
0.001054822,-8.489166e-06,2,1
0.001101659,-2.42095e-05,2,1
0.00105547,-5.192267e-05,2,1
0.00092128,-9.000802e-05,2,1
0.0007190223,-0.0001344139,2,1
0.0004833792,-0.0001814128,2,1
0.0002477361,-0.0002259808,2,1
4.272347e-05,-0.000271035,2,1
-0.0001139937,-0.0003186821,2,1
-0.0002191741,-0.000365519,2,1
-0.0002875656,-0.0004044147,2,1
-0.0003459091,-0.0004251591,2,1
-0.0004256453,-0.000427428,2,1
-0.0005433047,-0.0004240246,2,1
-0.0006924047,-0.0004376381,2,1
-0.000842153,-0.0004736166,2,1
-0.0009559229,-0.0005228845,2,1
-0.001011511,-0.0005630766,2,1
-0.001010215,-0.0005729626,2,1
-0.0009740742,-0.000541846,2,1
-0.0009303166,-0.0004705373,2,1
-0.000894176,-0.0003708672,2,1
-0.0008672731,-0.0002592042,2,1
-0.0008436117,-0.0001546721,2,1
-0.0008254603,-7.380149e-05,2,1
-0.0008154123,-2.453363e-05,2,1
-0.0008137916,-7.516774e-06,2,1
-0.0008168708,-1.62683e-05,2,1
-0.0008157364,-4.155049e-05,2,1
-0.0008008264,-7.282909e-05,2,1
-0.0007697099,-9.811128e-05,2,1
-0.0007272488,-0.0001131834,2,1
-0.0006836532,-0.0001133454,2,1
-0.0006467023,-0.0001000561,2,1
-0.000613803,-8.109443e-05,2,1
-0.0005794452,-6.715681e-05,2,1
-0.0005407116,-6.116039e-05,2,1
-0.000489499,-5.824322e-05,2,1
-0.000422566,-4.706071e-05,2,1
-0.0003391024,-1.821308e-05,2,1
-0.0002402425,3.494434e-05,2,1
-0.000122097,0.0001103047,2,1
2.278944e-05,0.0001971717,2,1
0.0001851789,0.0002814457,2,1
0.0003303894,0.0003532407,2,1
0.0004140152,0.0004049396,2,1
0.0004096394,0.0004344354,2,1
0.0003255275,0.00044578,2,1
0.0002030061,0.0004456179,2,1
0.0001009049,0.0004399457,2,1
8.080883e-05,0.0004276287,2,1
0.0001837203,0.0004099636,2,1
0.0004166082,0.000393757,2,1
0.0007473837,0.0003882468,2,1
0.001108466,0.000393757,2,1
0.001414446,0.0004041292,2,1
0.00159288,0.0004120704,2,1
0.001613786,0.0004101256,2,1
0.001503744,0.0003984569,2,1
0.001320772,0.0003824125,2,1
0.001130831,0.0003662059,2,1
0.0009698996,0.00035162,2,1
0.000832306,0.0003381686,2,1
0.0006882299,0.000319207,2,1
0.0005073649,0.0002936006,2,1
0.0002892249,0.0002618358,2,1
6.897806e-05,0.000230071,2,1
-0.0001075111,0.0002043026,2,1
-0.0002018331,0.0001867996,2,1
-0.0002099363,0.0001718896,2,1
-0.0001729855,0.0001540623,2,1
-0.0001533756,0.0001279698,2,1
-0.0001906506,8.956036e-05,2,1
-0.0002794623,3.494434e-05,2,1
-0.0003880461,-2.907146e-05,2,1
-0.0004882024,-8.903562e-05,2,1
-0.0005562698,-0.0001329553,2,1
-0.0005663179,-0.0001574272,2,1
-0.0004935506,-0.0001632615,2,1
-0.0003412093,-0.0001541859,2,1
-0.0001408965,-0.0001428413,2,1
5.828175e-05,-0.0001394379,2,1
0.0002124059,-0.0001478653,2,1
0.0002829043,-0.000164396,2,1
0.0002457913,-0.0001780095,2,1
0.0001138702,-0.0001809267,2,1
-6.780507e-05,-0.0001741199,2,1
-0.0002454286,-0.0001603444,2,1
-0.0003732982,-0.0001459206,2,1
-0.000419973,-0.0001353863,2,1
-0.0003765395,-0.00012469,2,1
-0.0002577456,-0.0001092938,2,1
-8.547019e-05,-9.146661e-05,2,1
0.0001088461,-7.250496e-05,2,1
0.0002910076,-5.500191e-05,2,1
0.0004339493,-4.171256e-05,2,1
0.0005104441,-3.377136e-05,2,1
0.0005060683,-3.21507e-05,2,1
0.0004261701,-3.539201e-05,2,1
0.0002910076,-4.009191e-05,2,1
0.0001313732,-4.365734e-05,2,1
-2.291298e-05,-4.706071e-05,2,1
-0.0001536997,-4.706071e-05,2,1
-0.0002593663,-4.38194e-05,2,1
-0.0003412093,-3.814712e-05,2,1
-0.0003909633,-3.312309e-05,2,1
-0.0003955011,-3.150244e-05,2,1
-0.0003559572,-3.409549e-05,2,1
-0.0002963172,-3.506788e-05,2,1
-0.0002472114,-2.647842e-05,2,1
-0.0002182017,-6.868513e-06,2,1
-0.0001943781,2.116879e-05,2,1
-0.0001579134,5.56887e-05,2,1
-0.0001062146,9.280167e-05,2,1
-5.743289e-05,0.0001302388,2,1
-4.122636e-05,0.0001662173,2,1
-8.417367e-05,0.0001934442,2,1
-0.0001887058,0.0002047888,2,1
-0.0003295405,0.0002015475,2,1
-0.0004557894,0.0001936063,2,1
-0.0005121881,0.0001897167,2,1
-0.0004812336,0.0001918236,2,1
-0.0003942046,0.0001981441,2,1
-0.0003073376,0.0002017096,2,1
-0.0002674695,0.0001961994,2,1
-0.0002883759,0.0001827479,2,1
-0.000355633,0.000165569,2,1
-0.0004371519,0.0001527658,2,1
-0.0005011677,0.0001500107,2,1
-0.0005306636,0.0001582761,2,1
-0.0005256396,0.0001710792,2,1
-0.0004909576,0.000177886,2,1
-0.0004285624,0.0001697827,2,1
-0.0003433161,0.0001488763,2,1
-0.0002496423,0.000123432,2,1
-0.0001681235,0.0001000946,2,1
-0.0001110765,8.291568e-05,2,1
-7.33153e-05,7.254349e-05,2,1
-3.409549e-05,6.897806e-05,2,1
2.359977e-05,6.703327e-05,2,1
9.814982e-05,6.362991e-05,2,1
0.000170593,5.828175e-05,2,1
0.0002214815,5.325772e-05,2,1
0.0002407673,5.001642e-05,2,1
0.0002239125,4.499239e-05,2,1
0.0001649207,3.299956e-05,2,1
6.395404e-05,1.403791e-05,2,1
-6.423963e-05,-7.030578e-06,2,1
-0.0001844921,-2.177852e-05,2,1
-0.0002689281,-2.7937e-05,2,1
-0.0003099306,-3.344723e-05,2,1
-0.0003126857,-4.85193e-05,2,1
-0.00027849,-7.801519e-05,2,1
-0.0002060468,-0.000119828,2,1
-0.0001037836,-0.0001673132,2,1
4.47606e-06,-0.0002151224,2,1
0.0001005808,-0.0002564491,2,1
0.0001931201,-0.0002838381,2,1
0.0003033245,-0.0002985861,2,1
0.0004349216,-0.0003044204,2,1
0.0005655463,-0.0003044204,2,1
0.0006624615,-0.0003003688,2,1
0.0007063812,-0.0002958309,2,1
0.0007013571,-0.0002912931,2,1
0.0006695924,-0.0002880518,2,1
0.0006277795,-0.0002925897,2,1
0.000577215,-0.0003110651,2,1
0.0005062304,-0.0003391024,2,1
0.000410936,-0.0003611433,2,1
0.0003021901,-0.0003630881,2,1
0.0001987924,-0.0003418575,2,1
0.0001062531,-0.0003047445,2,1
1.533444e-05,-0.0002608248,2,1
-8.514606e-05,-0.0002173914,2,1
-0.000191785,-0.0001789819,2,1
-0.0002867553,-0.0001493239,2,1
-0.0003369955,-0.0001303623,2,1
-0.0003120375,-0.0001164247,2,1
-0.000216419,-0.0001016767,2,1
-9.065628e-05,-8.709085e-05,2,1
1.338965e-05,-7.542214e-05,2,1
7.400208e-05,-6.974985e-05,2,1
0.0001138702,-6.504996e-05,2,1
0.0001725378,-5.678463e-05,2,1
0.0002743149,-4.560212e-05,2,1
0.000423415,-3.490581e-05,2,1
0.0005973112,-2.566809e-05,2,1
0.0007558112,-1.578211e-05,2,1
0.0008571021,-5.247859e-06,2,1
0.0008741189,3.827799e-06,2,1
0.0008026481,9.013889e-06,2,1
0.000666189,9.013889e-06,2,1
0.0005097958,-6.176923e-08,2,1
0.0003921364,-1.529591e-05,2,1
0.0003686369,-2.955766e-05,2,1
0.0004540453,-3.717473e-05,2,1
0.0006123833,-3.182657e-05,2,1
0.0007917897,-9.461558e-06,2,1
0.0009603378,2.39239e-05,2,1
0.001102956,5.633696e-05,2,1
0.001204571,7.756752e-05,2,1
0.00123358,8.777764e-05,2,1
0.00115741,9.247754e-05,2,1
0.0009645515,9.798775e-05,2,1
0.0006791542,0.0001106288,2,1
0.0003440029,0.0001279698,2,1
-5.479652e-07,0.0001459591,2,1
-0.0003222476,0.0001637863,2,1
-0.0005847933,0.0001840444,2,1
-0.0007455621,0.0002057612,2,1
-0.0007667927,0.0002266676,2,1
-0.0006502678,0.0002457913,2,1
-0.0004502792,0.0002619979,2,1
-0.0002549905,0.0002723701,2,1
-0.0001460826,0.0002744769,2,1
-0.0001734716,0.0002718839,2,1
-0.0003308371,0.0002688046,2,1
-0.0005634008,0.000267184,2,1
-0.0007967748,0.0002666978,2,1
-0.0009724535,0.0002654013,2,1
-0.001065803,0.0002611876,2,1
-0.001077148,0.0002506533,2,1
-0.001024963,0.0002278021,2,1
-0.000933882,0.0001905271,2,1
-0.0008251361,0.0001466074,2,1
-0.0007147697,0.000105929,2,1
-0.0006100755,7.57848e-05,2,1
-0.0005134846,5.795762e-05,2,1
-0.0004301831,5.115087e-05,2,1
-0.0003671397,5.163707e-05,2,1
-0.0003277578,5.552663e-05,2,1
-0.000300855,5.61749e-05,2,1
-0.0002734659,4.418206e-05,2,1
-0.0002455907,1.614476e-05,2,1
-0.0002297083,-2.599222e-05,2,1
-0.0002404046,-7.55842e-05,2,1
-0.0002875656,-0.0001232314,2,1
-0.0003739464,-0.0001582375,2,1
-0.0004867439,-0.000169258,2,1
-0.0006074825,-0.0001580754,2,1
-0.0007142835,-0.0001344139,2,1
-0.000787537,-0.0001099421,2,1
-0.0008233535,-8.968389e-05,2,1
-0.0008374532,-7.574627e-05,2,1
-0.0008424772,-6.991193e-05,2,1
-0.0008364808,-7.218083e-05,2,1
-0.0008008264,-7.866345e-05,2,1
-0.0007152559,-8.255302e-05,2,1
-0.0005728005,-8.303922e-05,2,1
-0.0003971218,-7.898758e-05,2,1
-0.0002263049,-7.315322e-05,2,1
-9.389759e-05,-6.359137e-05,2,1
-1.886135e-05,-5.338126e-05,2,1
6.90704e-06,-4.462973e-05,2,1
1.160693e-05,-4.074016e-05,2,1
2.732727e-05,-4.05781e-05,2,1
6.768154e-05,-3.863332e-05,2,1
0.0001158149,-2.907146e-05,2,1
0.0001488763,-1.092015e-05,2,1
0.0001561692,5.934648e-06,2,1
0.0001399627,1.614476e-05,2,1
0.0001028497,1.889987e-05,2,1
5.390598e-05,1.452411e-05,2,1
1.257933e-05,5.934648e-06,2,1
-5.247859e-06,-7.100305e-07,2,1
8.365628e-06,3.989864e-06,2,1
5.909208e-05,2.586868e-05,2,1
0.0001624898,6.444023e-05,2,1
0.0003295791,0.0001114392,2,1
0.0005490156,0.00015309,2,1
0.0007750969,0.0001757791,2,1
0.0009488311,0.0001762653,2,1
0.00103035,0.0001662173,2,1
0.001023219,0.000160707,2,1
0.0009556379,0.0001739964,2,1
0.0008566159,0.0002132162,2,1
0.0007413874,0.0002712356,2,1
0.0006208107,0.0003357376,2,1
0.0005209784,0.0003880847,2,1
0.0004673347,0.0004107739,2,1
0.0004611762,0.0004015361,2,1
0.000478031,0.0003705817,2,1
0.000487755,0.0003363859,2,1
0.0004858102,0.0003115899,2,1
0.0004945617,0.0002948972,2,1
0.0005514466,0.0002793389,2,1
0.0006754267,0.0002556773,2,1
0.0008590469,0.0002172679,2,1
0.001069732,0.0001636242,2,1
0.001261618,9.879808e-05,2,1
0.001390136,3.364782e-05,2,1
0.001432435,-2.307504e-05,2,1
0.001378143,-6.39155e-05,2,1
0.001215591,-8.887356e-05,2,1
0.000946076,-0.0001013526,2,1
0.0006047662,-0.0001104282,2,1
0.0002686426,-0.0001191798,2,1
2.684107e-05,-0.0001242038,2,1
-7.18567e-05,-0.0001242038,2,1
-2.307504e-05,-0.0001230693,2,1
0.0001427178,-0.000127283,2,1
0.0003785229,-0.0001389517,2,1
0.000621621,-0.0001577513,2,1
0.0008058894,-0.0001809267,2,1
0.0008822222,-0.0002113949,2,1
0.0008410576,-0.0002496423,2,1
0.0006953608,-0.0002927517,2,1
0.000465552,-0.0003369955,2,1
0.0001723757,-0.00038286,2,1
-0.0001498101,-0.0004183523,2,1
-0.000462272,-0.0004347209,2,1
-0.0007449139,-0.0004365036,2,1
-0.000990929,-0.0004389346,2,1
-0.001193024,-0.0004481723,2,1
-0.001348283,-0.0004575721,2,1
-0.001460756,-0.0004591928,2,1
-0.001538872,-0.0004455793,2,1
-0.001587167,-0.0004149489,2,1
-0.001603212,-0.0003734602,2,1
-0.001584574,-0.0003324577,2,1
-0.001531255,-0.0003000446,2,1
-0.001449412,-0.0002788141,2,1
-0.0013465,-0.0002650386,2,1
-0.001229327,-0.0002502906,2,1
-0.00110243,-0.000226467,2,1
-0.0009643502,-0.0001885437,2,1
-0.0008090917,-0.0001394379,2,1
-0.0006314681,-8.903562e-05,2,1
-0.0004322899,-4.641245e-05,2,1
-0.0002186879,-1.497178e-05,2,1
-1.844488e-06,9.500085e-06,2,1
0.0001981441,3.202716e-05,2,1
0.0003535648,5.374392e-05,2,1
0.0004418904,7.221937e-05,2,1
0.0004530729,8.599492e-05,2,1
0.0003957018,9.588091e-05,2,1
0.000294573,0.0001044704,2,1
0.0001817755,0.0001127357,2,1
8.696731e-05,0.0001224596,2,1
2.603075e-05,0.000138342,2,1
2.855407e-06,0.0001603829,2,1
1.095867e-05,0.0001832341,2,1
4.223728e-05,0.0001997648,2,1
7.918817e-05,0.0002073819,2,1
9.361199e-05,0.0002072198,2,1
6.103686e-05,0.0002012234,2,1
-2.129233e-05,0.0001926339,2,1
-0.0001280934,0.0001882582,2,1
-0.0002251705,0.0001913374,2,1
-0.0002914552,0.000200251,2,1
-0.0003250027,0.0002125679,2,1
-0.0003327818,0.0002271538,2,1
-0.0003237062,0.0002448189,2,1
-0.0003006929,0.0002642668,2,1
-0.0002605007,0.0002837146,2,1
-0.0001976194,0.0003054314,2,1
-0.0001209625,0.0003305515,2,1
-6.035007e-05,0.0003572923,2,1
-4.43056e-05,0.0003793332,2,1
-8.465986e-05,0.0003900295,2,1
-0.000159534,0.000391164,2,1
-0.0002266291,0.0003871123,2,1
-0.0002384598,0.000381278,2,1
-0.0001554824,0.0003772264,2,1
3.769945e-05,0.0003770643,2,1
0.0003209897,0.0003814401,2,1
0.0006360448,0.0003864641,2,1
0.0009055596,0.0003900295,2,1
0.001063249,0.0003843572,2,1
0.00107897,0.0003632887,2,1
0.0009653618,0.0003307136,2,1
0.0007668316,0.0002963557,2,1
0.0005368608,0.0002642668,2,1
0.0003154794,0.0002367157,2,1
0.0001161391,0.0002128921,2,1
-6.294311e-05,0.0001947408,2,1
-0.0002300324,0.0001827479,2,1
-0.0003857772,0.0001733481,2,1
-0.00051705,0.000163138,2,1
-0.0006060239,0.0001504969,2,1
-0.0006424887,0.0001315353,2,1
-0.0006395715,0.0001052807,2,1
-0.0006170443,7.157111e-05,2,1
-0.0005802555,3.299956e-05,2,1
-0.00052175,-4.599598e-06,2,1
-0.0004365036,-3.474375e-05,2,1
-0.0003292164,-5.548811e-05,2,1
-0.0002058847,-6.893953e-05,2,1
-6.942573e-05,-7.979791e-05,2,1
8.631905e-05,-8.790117e-05,2,1
0.000269777,-9.519411e-05,2,1
0.0004798138,-9.940781e-05,2,1
0.0007021675,-9.892161e-05,2,1
0.0009037769,-9.470791e-05,2,1
0.001043477,-8.919769e-05,2,1
0.001094366,-8.368748e-05,2,1
0.001055146,-8.125649e-05,2,1
0.0009431589,-8.271508e-05,2,1
0.0007770417,-8.82253e-05,2,1
0.000579484,-0.0001054042,2,1
0.0003840331,-0.0001431655,2,1
0.0002354192,-0.0002032917,2,1
0.000170431,-0.0002770314,2,1
0.0001936063,-0.0003457471,2,1
0.0002650771,-0.0003992286,2,1
0.0003399513,-0.0004369898,2,1
0.0004070464,-0.0004663236,2,1
0.0004741415,-0.0004849611,2,1
0.0005297299,-0.0004899852,2,1
0.00053994,-0.0004804233,2,1
0.0004841895,-0.0004595169,2,1
0.0003736609,-0.0004347209,2,1
0.0002422259,-0.0004068457,2,1
0.0001201907,-0.000370543,2,1
2.716521e-05,-0.0003230579,2,1
-2.696461e-05,-0.0002640662,2,1
-4.657452e-05,-0.0002062088,2,1
-4.80331e-05,-0.0001689338,2,1
-5.095028e-05,-0.0001613168,2,1
-6.06742e-05,-0.0001801163,2,1
-7.947377e-05,-0.0002073433,2,1
-0.000112211,-0.0002279256,2,1
-0.0001705545,-0.0002321393,2,1
-0.0002548284,-0.0002212809,2,1
-0.0003467195,-0.0002031296,2,1
-0.0004232143,-0.0001862748,2,1
-0.0004661616,-0.0001734716,2,1
-0.0004710235,-0.000156941,2,1
-0.0004483344,-0.0001282554,2,1
-0.0004136524,-8.44978e-05,2,1
-0.0003715154,-2.583016e-05,2,1
-0.0003167374,4.272347e-05,2,1
-0.0002514251,0.0001143563,2,1
-0.0001874093,0.0001798307,2,1
-0.0001379794,0.0002313675,2,1
-0.0001065387,0.0002637806,2,1
-9.357346e-05,0.0002765838,2,1
-0.0001021629,0.0002739907,2,1
-0.0001329553,0.0002642668,2,1
-0.0001827094,0.0002534084,2,1
-0.0002480217,0.0002380122,2,1
-0.0003188442,0.0002143507,2,1
-0.0003917736,0.0001820997,2,1
-0.000467296,0.0001415833,2,1
-0.0005402254,0.0001023635,2,1
-0.0005961379,7.124698e-05,2,1
-0.0006142893,5.082674e-05,2,1
-0.0005750695,4.564065e-05,2,1
-0.0004700511,5.504044e-05,2,1
-0.0003167374,7.52986e-05,2,1
-0.0001530514,9.912221e-05,2,1
-1.99958e-05,0.0001179218,2,1
5.601284e-05,0.0001271595,2,1
7.999851e-05,0.0001305629,2,1
8.875003e-05,0.0001339663,2,1
0.0001216493,0.0001365593,2,1
0.0001902029,0.0001367214,2,1
0.0002733424,0.000135749,2,1
0.0003383307,0.0001355869,2,1
0.0003660439,0.0001291043,2,1
0.0003603715,0.0001090082,2,1
0.0003302274,7.465034e-05,2,1
0.0002827423,3.251336e-05,2,1
0.0002234263,-1.173047e-05,2,1
0.000158114,-5.062615e-05,2,1
9.377406e-05,-7.461182e-05,2,1
2.894792e-05,-7.850138e-05,2,1
-4.138842e-05,-6.650855e-05,2,1
-0.0001208004,-4.868137e-05,2,1
-0.0002032917,-3.101625e-05,2,1
-0.0002778417,-1.351319e-05,2,1
-0.0003311612,7.717366e-06,2,1
-0.0003575778,2.862379e-05,2,1
-0.0003564434,4.288554e-05,2,1
-0.0003394265,4.969229e-05,2,1
-0.0003237062,5.131294e-05,2,1
-0.0003245165,5.179914e-05,2,1
-0.0003438023,5.325772e-05,2,1
-0.0003692465,5.99024e-05,2,1
-0.0003854531,6.946425e-05,2,1
-0.0003911253,7.52986e-05,2,1
-0.00039777,7.092284e-05,2,1
-0.0004157593,5.714729e-05,2,1
-0.0004431483,3.802358e-05,2,1
-0.0004640547,1.501031e-05,2,1
-0.0004551412,-1.043395e-05,2,1
-0.0004073319,-3.668853e-05,2,1
-0.0003350507,-5.905355e-05,2,1
-0.0002645523,-6.991193e-05,2,1
-0.0002109087,-6.375344e-05,2,1
-0.0001653684,-4.544006e-05,2,1
-0.0001068628,-2.534396e-05,2,1
-1.788895e-05,-1.092015e-05,2,1
0.0001015532,-9.299493e-06,2,1
0.0002286124,-1.902341e-05,2,1
0.0003334687,-3.879538e-05,2,1
0.0003871123,-6.099833e-05,2,1
0.0003848434,-7.801519e-05,2,1
0.0003488649,-8.595638e-05,2,1
0.0003156415,-8.271508e-05,2,1
0.0003149933,-6.91016e-05,2,1
0.000349027,-5.159854e-05,2,1
0.0004051016,-3.766092e-05,2,1
0.0004715484,-3.101625e-05,2,1
0.0005441537,-3.166451e-05,2,1
0.0006174073,-3.749886e-05,2,1
0.0006768853,-4.349527e-05,2,1
0.0007075156,-4.592625e-05,2,1
0.0007120535,-4.462973e-05,2,1
0.0007115673,-4.252288e-05,2,1
0.0007313393,-3.620233e-05,2,1
0.0007856312,-1.918548e-05,2,1
0.0008710398,1.274139e-05,2,1
0.000958393,5.714729e-05,2,1
0.001004744,0.0001057669,2,1
0.0009736272,0.0001474177,2,1
0.000861964,0.000175455,2,1
0.0006981159,0.0001884202,2,1
0.0005243817,0.0001876099,2,1
0.0003749574,0.0001785342,2,1
0.0002637806,0.0001723757,2,1
0.000190365,0.0001777239,2,1
0.0001419075,0.0001968476,2,1
9.831188e-05,0.0002263435,2,1
3.60788e-05,0.0002568118,2,1
-6.229485e-05,0.0002773941,2,1
-0.0001976194,0.000279663,2,1
-0.0003535262,0.0002649151,2,1
-0.0005021401,0.0002393087,2,1
-0.0006147755,0.0002090025,2,1
-0.0006778188,0.0001811273,2,1
-0.000693053,0.0001610312,2,1
-0.0006721465,0.0001521176,2,1
-0.0006321164,0.00015309,2,1
-0.0005971103,0.000160545,2,1
-0.0005818762,0.0001645966,2,1
-0.0005873864,0.0001611932,2,1
-0.0005893312,0.0001543865,2,1
-0.0005496252,0.0001496866,2,1
-0.000444931,0.0001462832,2,1
-0.0002807589,0.0001396385,2,1
-9.098041e-05,0.0001253768,2,1
8.712937e-05,0.00010366,2,1
0.0002388225,8.080883e-05,2,1
0.0003707437,6.217132e-05,2,1
0.0004788414,4.515445e-05,2,1
0.0005457744,2.846173e-05,2,1
0.0005610085,8.689758e-06,2,1
0.0005315126,-1.140634e-05,2,1
0.0004760863,-2.615429e-05,2,1
0.000420984,-3.328516e-05,2,1
0.0003926226,-3.652646e-05,2,1
0.0004146635,-4.090223e-05,2,1
0.0005020167,-5.078821e-05,2,1
0.000646417,-6.586029e-05,2,1
0.000804917,-8.368748e-05,2,1
0.000918687,-0.0001054042,2,1
0.000941052,-0.0001284175,2,1
0.0008449472,-0.0001480274,2,1
0.0006399344,-0.000166989,2,1
0.0003640991,-0.0001901644,2,1
6.816773e-05,-0.0002230636,2,1
-0.0002003745,-0.000266173,2,1
-0.000405225,-0.0003115513,2,1
-0.0005330946,-0.0003463953,2,1
-0.0005974344,-0.0003627639,2,1
-0.0006230408,-0.0003587123,2,1
-0.0006374646,-0.0003400748,2,1
-0.0006573986,-0.0003162512,2,1
-0.000683005,-0.0002985861,2,1
-0.0006959701,-0.0002898345,2,1
-0.0006755499,-0.0002856209,2,1
-0.000621096,-0.0002791382,2,1
-0.0005554595,-0.000268604,2,1
-0.0005029504,-0.0002533699,2,1
-0.0004648651,-0.0002345703,2,1
-0.0004160834,-0.0002143121,2,1
-0.0003227338,-0.0001972953,2,1
-0.0001554824,-0.000181737,2,1
9.490851e-05,-0.000159372,2,1
0.0004059119,-0.0001282554,2,1
0.0007357151,-9.373552e-05,2,1
0.001033105,-5.953974e-05,2,1
0.001249463,-3.21507e-05,2,1
0.001342813,-1.480971e-05,2,1
0.001291276,-5.57199e-06,2,1
0.001106359,1.234753e-06,2,1
0.0008279303,8.203562e-06,2,1
0.000507527,1.987227e-05,2,1
0.0001910133,4.02925e-05,2,1
-9.438378e-05,6.719535e-05,2,1
-0.0003348887,9.571884e-05,2,1
-0.0005303394,0.0001190562,2,1
-0.0006802498,0.0001349386,2,1
-0.0007881853,0.0001445005,2,1
-0.0008616009,0.0001509831,2,1
-0.0009129756,0.0001594105,2,1
-0.0009564091,0.0001691344,2,1
-0.0009987081,0.000175455,2,1
-0.001037442,0.0001736723,2,1
-0.001066451,0.0001654069,2,1
-0.001074555,0.0001574657,2,1
-0.001052838,0.0001569795,2,1
-0.0009991943,0.0001654069,2,1
-0.0009225374,0.0001791825,2,1
-0.0008434496,0.0001897167,2,1
-0.0007771649,0.0001923098,2,1
-0.0007206041,0.0001889064,2,1
-0.0006604778,0.0001816135,2,1
-0.0005870623,0.0001738343,2,1
-0.0005013297,0.0001675138,2,1
-0.0004193247,0.0001623277,2,1
-0.0003661673,0.0001519555,2,1
-0.0003564434,0.0001378558,2,1
-0.0003783222,0.0001229458,2,1
-0.0004006872,0.0001106288,2,1
-0.0003908012,0.0001075496,2,1
-0.0003251648,0.0001117633,2,1
-0.0002021572,0.0001222976,2,1
-4.284701e-05,0.0001362352,2,1
0.0001175977,0.0001495245,2,1
0.0002488706,0.0001564933,2,1
0.0003329825,0.0001537382,2,1
0.0003652335,0.000138342,2,1
0.0003582647,0.0001164632,2,1
0.0003394651,0.0001004187,2,1
0.0003430306,9.717743e-05,2,1
0.0003903536,0.0001007429,2,1
0.0004738173,0.0001023635,2,1
0.0005516087,9.604298e-05,2,1
0.0005689497,7.870197e-05,2,1
0.0004974789,5.228533e-05,2,1
0.0003527545,2.214118e-05,2,1
0.0001850168,-8.489166e-06,2,1
5.860588e-05,-3.409549e-05,2,1
1.355172e-05,-5.192267e-05,2,1
5.763349e-05,-6.342931e-05,2,1
0.0001676758,-7.509801e-05,2,1
0.0003036487,-8.919769e-05,2,1
0.0004386491,-0.0001063766,2,1
0.0005673291,-0.0001258245,2,1
0.0006851507,-0.0001457585,2,1
0.0007759072,-0.0001624512,2,1
0.000819827,-0.0001707166,2,1
0.0007992447,-0.0001707166,2,1
0.0007123777,-0.0001648822,2,1
0.0005707325,-0.0001566169,2,1
0.0003905157,-0.0001502963,2,1
0.0001921477,-0.0001455964,2,1
-2.238346e-07,-0.0001392759,2,1
-0.0001590478,-0.0001279313,2,1
-0.000271035,-0.000112211,2,1
-0.0003395886,-9.632857e-05,2,1
-0.0003822118,-8.514606e-05,2,1
-0.0004206212,-7.898758e-05,2,1
-0.000469727,-7.833932e-05,2,1
-0.0005287188,-8.482193e-05,2,1
-0.0005716661,-9.746302e-05,2,1
-0.0005672903,-0.0001107524,2,1
-0.0005047331,-0.000119828,2,1
-0.0004023079,-0.0001243659,2,1
-0.0002950206,-0.0001267968,2,1
-0.0002207947,-0.000129714,2,1
-0.0001977815,-0.0001280934,2,1
-0.0002185258,-0.0001183694,2,1
-0.0002541802,-9.956988e-05,2,1
-0.0002793003,-7.526008e-05,2,1
-0.0002818933,-4.965376e-05,2,1
-0.000256287,-2.275091e-05,2,1
-0.0001981056,4.638125e-06,2,1
-0.000107349,2.781346e-05,2,1
7.555301e-06,4.499239e-05,2,1
0.0001299146,5.925414e-05,2,1
0.0002466017,7.562274e-05,2,1
0.0003477304,9.798775e-05,2,1
0.0004271425,0.0001227837,2,1
0.0004984512,0.0001467694,2,1
0.0006028214,0.0001673517,2,1
0.0007844968,0.0001850168,2,1
0.001052067,0.000202682,2,1
0.001367284,0.000217754,2,1
0.001670185,0.0002329882,2,1
0.001904694,0.0002535705,2,1
0.002039209,0.0002884145,2,1
0.002059467,0.0003349273,2,1
0.001964173,0.000386302,2,1
0.001760942,0.0004279528,2,1
0.001465334,0.0004465904,2,1
0.001106197,0.0004409181,2,1
0.0007238843,0.0004141773,2,1
0.0003603715,0.0003717161,2,1
4.985435e-05,0.0003172622,2,1
-0.0001945401,0.0002540567,2,1
-0.000380267,0.0001897167,2,1
-0.0005212637,0.0001304008,2,1
-0.0006324406,7.983644e-05,2,1
-0.0007219006,4.126489e-05,2,1
-0.0007982334,1.22552e-05,2,1
-0.000871811,-1.399939e-05,2,1
-0.0009479817,-4.608832e-05,2,1
-0.001019939,-8.676672e-05,2,1
-0.001079417,-0.0001311726,2,1
-0.00111653,-0.0001752544,2,1
-0.001125443,-0.0002117191,2,1
-0.001102916,-0.0002376495,2,1
-0.001055269,-0.0002514251,2,1
-0.0009962771,-0.000256287,2,1
-0.0009418232,-0.0002554767,2,1
-0.0008998482,-0.0002507768,2,1
-0.0008690559,-0.0002410529,2,1
-0.0008416669,-0.0002254946,2,1
-0.0008055263,-0.0002076674,2,1
-0.0007544757,-0.0001903264,2,1
-0.0006875428,-0.0001723372,2,1
-0.0006014861,-0.0001536997,2,1
-0.0004875542,-0.0001361966,2,1
-0.0003373197,-0.0001216107,2,1
-0.0001530514,-0.0001105903,2,1
5.179914e-05,-0.0001063766,2,1
0.000257298,-0.0001096179,2,1
0.0004461041,-0.0001151281,2,1
0.000596987,-0.0001199901,2,1
0.0006895264,-0.0001237176,2,1
0.0007091364,-0.000127283,2,1
0.0006598685,-0.0001295519,2,1
0.0005676532,-0.0001303623,2,1
0.0004731691,-0.0001331174,2,1
0.000411098,-0.0001399241,2,1
0.0003984569,-0.0001522411,2,1
0.0004302217,-0.0001676373,2,1
0.0004676588,-0.0001812508,2,1
0.0004663623,-0.0001836818,2,1
0.0004041292,-0.000169258,2,1
0.0002853353,-0.0001397621,2,1
0.0001338042,-0.0001075111,2,1
-1.464765e-05,-8.417367e-05,2,1
-0.0001279313,-7.526008e-05,2,1
-0.0001882196,-7.412562e-05,2,1
-0.0002060468,-6.991193e-05,2,1
-0.0002092881,-5.710876e-05,2,1
-0.0002206326,-3.522994e-05,2,1
-0.0002442942,-1.043395e-05,2,1
-0.0002742763,8.851824e-06,2,1
-0.0002945344,1.938607e-05,2,1
-0.0002895104,2.554455e-05,2,1
-0.0002540181,3.867184e-05,2,1
-0.000186761,6.768154e-05,2,1
-9.697683e-05,0.0001127357,2,1
1.234753e-06,0.0001663793,2,1
9.68533e-05,0.0002185644,2,1
0.0001820997,0.0002616738,2,1
0.000244981,0.0002947351,2,1
0.0002765838,0.0003200173,2,1
0.0002741528,0.000344165,2,1
0.0002436845,0.0003670162,2,1
0.0001974959,0.0003814401,2,1
0.0001462832,0.0003824125,2,1
9.442231e-05,0.0003692851,2,1
3.964424e-05,0.0003430306,2,1
-3.069211e-05,0.0003130485,2,1
-0.0001306864,0.0002848491,2,1
-0.0002715212,0.0002592428,2,1
-0.0004502792,0.0002320158,2,1
-0.0006384369,0.0001973338,2,1
-0.000792399,0.000155683,2,1
-0.0008755385,0.0001073875,2,1
-0.0008786177,5.066468e-05,2,1
-0.0008100641,-1.318906e-05,2,1
-0.0006868945,-7.574627e-05,2,1
-0.0005327704,-0.0001302002,2,1
-0.0003718396,-0.000166827,2,1
-0.0002193361,-0.0001836818,2,1
-8.563225e-05,-0.0001820611,2,1
2.522042e-05,-0.0001660166,2,1
0.0001143563,-0.0001383035,2,1
0.0001866375,-9.746302e-05,2,1
0.0002475741,-4.284701e-05,2,1
0.0003052694,1.97102e-05,2,1
0.0003649094,7.708133e-05,2,1
0.0004170944,0.0001122495,2,1
0.0004499937,0.0001169494,2,1
0.0004597176,9.458438e-05,2,1
0.0004509661,6.071273e-05,2,1
0.000435732,3.218923e-05,2,1
0.0004409181,1.889987e-05,2,1
0.000492779,2.894792e-05,2,1
0.0005914768,6.071273e-05,2,1
0.000708326,0.0001026876,2,1
0.0007995688,0.0001355869,2,1
0.0008319819,0.0001498487,2,1
0.0008091307,0.0001464453,2,1
0.0007707212,0.0001326697,2,1
0.0007718556,0.0001156529,2,1
0.0008428403,0.000103498,2,1
0.0009574206,0.000106091,2,1
0.001052229,0.0001244044,2,1
0.001053525,0.0001480659,2,1
0.0009170663,0.0001589243,2,1
0.0006522514,0.000148228,2,1
0.0003171001,0.0001237561,2,1
-1.318906e-05,9.604298e-05,2,1
-0.0002700626,7.20573e-05,2,1
-0.0004112214,5.228533e-05,2,1
-0.0004282383,3.834771e-05,2,1
-0.0003402368,3.024445e-05,2,1
-0.0001836818,2.084466e-05,2,1
-1.318906e-05,4.313994e-06,2,1
0.0001117633,-2.09682e-05,2,1
0.0001490383,-5.565017e-05,2,1
9.652917e-05,-0.0001028112,2,1
-6.058186e-06,-0.0001611547,2,1
-0.0001021629,-0.0002269532,2,1
-0.0001535376,-0.0002911311,2,1
-0.0001579134,-0.0003483401,2,1
-0.0001472171,-0.0003992286,2,1
-0.0001572651,-0.0004444448,2,1
-0.0001998883,-0.000484637,2,1
-0.0002577456,-0.0005160777,2,1
-0.0003066893,-0.0005369841,2,1
-0.0003337542,-0.0005486528,2,1
-0.0003352128,-0.0005507597,2,1
-0.0003139823,-0.0005415219,2,1
-0.0002809209,-0.0005175362,2,1
-0.0002470493,-0.0004724821,2,1
-0.0002295462,-0.000402632,2,1
-0.0002410529,-0.0003094444,2,1
-0.0002817312,-0.0002042641,2,1
-0.000340561,-0.0001015147,2,1
-0.0004037664,-1.059602e-05,2,1
-0.0004643789,7.027458e-05,2,1
-0.0005149432,0.000148228,2,1
-0.000549301,0.0002284504,2,1
-0.0005612939,0.0003028383,2,1
-0.0005525423,0.0003574544,2,1
-0.0005326084,0.0003801436,2,1
-0.000514295,0.0003718782,2,1
-0.000507002,0.0003444891,2,1
-0.0005139708,0.0003146691,2,1
-0.0005371462,0.0002923041,2,1
-0.0005638869,0.0002773941,2,1
-0.000573935,0.0002607014,2,1
-0.0005559457,0.0002388225,2,1
-0.0005159156,0.0002059233,2,1
-0.0004674581,0.0001688103,2,1
-0.0004190006,0.0001415833,2,1
-0.0003770257,0.0001316974,2,1
-0.0003447747,0.0001368834,2,1
-0.0003199787,0.0001492004,2,1
-0.0002958309,0.0001621656,2,1
-0.0002668213,0.0001718896,2,1
-0.000231329,0.0001767515,2,1
-0.0001908126,0.0001769136,2,1
-0.0001441378,0.0001748067,2,1
-9.000802e-05,0.0001707551,2,1
-2.664048e-05,0.0001637863,2,1
4.531652e-05,0.0001568175,2,1
0.000120839,0.0001513072,2,1
0.0001793446,0.000145797,2,1
0.0001992786,0.0001440143,2,1
0.0001718896,0.0001492004,2,1
0.0001112771,0.0001577899,2,1
4.888196e-05,0.0001644345,2,1
1.533444e-05,0.0001670276,2,1
2.376183e-05,0.000163138,2,1
7.059871e-05,0.000150659,2,1
0.0001453108,0.0001300767,2,1
0.000234933,0.000106091,2,1
0.0003221241,8.161915e-05,2,1
0.000383871,5.795762e-05,2,1
0.0003999155,3.235129e-05,2,1
0.0003551855,2.693341e-06,2,1
0.0002535705,-3.053005e-05,2,1
0.000121001,-6.569822e-05,2,1
-6.544382e-06,-9.730096e-05,2,1
-9.794922e-05,-0.0001180453,2,1
-0.0001383035,-0.0001227452,2,1
-0.0001353863,-0.0001138316,2,1
-0.0001112386,-0.0001002181,2,1
-8.368748e-05,-8.903562e-05,2,1
-6.035007e-05,-8.579432e-05,2,1
-3.490581e-05,-9.29252e-05,2,1
6.258778e-06,-0.0001086455,2,1
7.789165e-05,-0.0001300382,2,1
0.0001777239,-0.0001501342,2,1
0.0002807975,-0.0001627754,2,1
0.0003606957,-0.0001653684,2,1
0.0004093153,-0.0001634236,2,1
0.0004414042,-0.0001650443,2,1
0.0004731691,-0.0001708786,2,1
0.0005046097,-0.0001773612,2,1
0.0005272989,-0.0001865989,2,1
0.0005363746,-0.0001964849,2,1
0.0005430193,-0.0002032917,2,1
0.0005658705,-0.000201509,2,1
0.0006130316,-0.0001895161,2,1
0.0006752646,-0.0001750923,2,1
0.00072826,-0.0001639098,2,1
0.0007420356,-0.0001592099,2,1
0.0006992503,-0.0001616409,2,1
0.0005982835,-0.0001686097,2,1
0.0004501558,-0.0001783336,2,1
0.0002707494,-0.0001887058,2,1
7.983644e-05,-0.0001945401,2,1
-9.924574e-05,-0.0001909747,2,1
-0.000251263,-0.0001770371,2,1
-0.0003660052,-0.0001532135,2,1
-0.0004418518,-0.0001216107,2,1
-0.0004804233,-8.741498e-05,2,1
-0.0004836646,-5.354332e-05,2,1
-0.000457248,-1.545797e-05,2,1
-0.0004170558,3.154097e-05,2,1
-0.0003856151,8.567078e-05,2,1
-0.0003825359,0.0001389903,2,1
-0.0004018217,0.0001840444,2,1
-0.0004167317,0.0002120818,2,1
-0.0003971218,0.0002216436,2,1
-0.0003329439,0.0002219677,2,1
-0.0002496423,0.0002237505,2,1
-0.0001853024,0.0002295848,2,1
-0.000161965,0.0002409294,2,1
-0.0001720131,0.0002563256,2,1
-0.0001895161,0.0002688046,2,1
-0.0001893541,0.0002754493,2,1
-0.0001483515,0.000277232,2,1
