EMG1,EMG2,class,user
-8.498399e-05,-0.0003540124,2,1
-6.44017e-05,-0.0003275957,2,1
-2.194059e-05,-0.000303448,2,1
4.628891e-05,-0.000281083,2,1
0.0001344524,-0.0002595283,2,1
0.0002278021,-0.000238784,2,1
0.0003104554,-0.0002175534,2,1
0.0003770643,-0.0001994021,2,1
0.0004316803,-0.0001878955,2,1
0.0004916445,-0.0001781716,2,1
0.0005864528,-0.0001674752,2,1
0.0007439804,-0.0001506204,2,1
0.0009760582,-0.0001284175,2,1
0.001277662,-0.0001024871,2,1
0.001626914,-7.574627e-05,2,1
0.001989617,-4.80331e-05,2,1
0.002328335,-1.788895e-05,2,1
0.00260012,1.257933e-05,2,1
0.002761214,3.964424e-05,2,1
0.002786172,5.876794e-05,2,1
0.002679208,6.914012e-05,2,1
0.002466739,7.643307e-05,2,1
0.002183124,8.664318e-05,2,1
0.001844244,0.0001038221,2,1
0.001455448,0.0001244044,2,1
0.001033267,0.0001433661,2,1
0.0006076833,0.0001574657,2,1
0.0002166196,0.0001673517,2,1
-0.000102325,0.0001741585,2,1
-0.0003290543,0.0001845306,2,1
-0.0004653512,0.0002018716,2,1
-0.0005308256,0.0002239125,2,1
-0.0005428185,0.0002428742,2,1
-0.0005133225,0.0002556773,2,1
-0.0004611376,0.0002628082,2,1
-0.0004157593,0.0002644289,2,1
-0.0004099249,0.0002613496,2,1
-0.0004565997,0.0002540567,2,1
-0.0005421702,0.0002457913,2,1
-0.0006390853,0.0002401191,2,1
-0.0007223868,0.0002386605,2,1
-0.0007818647,0.0002410915,2,1
-0.0008142778,0.0002428742,2,1
-0.0008170329,0.0002389846,2,1
-0.0007891576,0.0002305572,2,1
-0.0007389174,0.0002161334,2,1
-0.0006907841,0.0001955511,2,1
-0.0006713362,0.0001707551,2,1
-0.000695646,0.0001445005,2,1
-0.0007599859,0.0001211631,2,1
-0.0008423151,0.0001007429,2,1
-0.000921403,8.534666e-05,2,1
-0.0009803947,7.157111e-05,2,1
-0.001012808,5.455425e-05,2,1
-0.001020587,3.056858e-05,2,1
-0.001010539,3.665733e-06,2,1
-0.0009899565,-1.983374e-05,2,1
-0.0009622434,-4.106429e-05,2,1
-0.0009317751,-5.889148e-05,2,1
-0.0009050344,-6.845333e-05,2,1
-0.0008839659,-6.845333e-05,2,1
-0.0008679214,-6.06742e-05,2,1
-0.0008578734,-5.013995e-05,2,1
-0.0008552803,-4.819517e-05,2,1
-0.0008606284,-6.197072e-05,2,1
-0.0008701903,-8.790117e-05,2,1
-0.0008804005,-0.0001180453,2,1
-0.0008885037,-0.0001462447,2,1
-0.0008919071,-0.0001707166,2,1
-0.0008875313,-0.0001885437,2,1
-0.0008753765,-0.0001985918,2,1
-0.0008606284,-0.0002060468,2,1
-0.0008457185,-0.0002182017,2,1
-0.0008317808,-0.0002342462,2,1
-0.0008105503,-0.000251263,2,1
-0.0007706822,-0.0002639041,2,1
-0.0007024527,-0.0002676316,2,1
-0.0006139652,-0.0002593663,2,1
-0.0005279084,-0.0002429977,2,1
-0.000469727,-0.0002277635,2,1
-0.0004484965,-0.0002201465,2,1
-0.0004553032,-0.0002182017,2,1
-0.000467296,-0.0002191741,2,1
-0.0004570859,-0.000221443,2,1
-0.0003980942,-0.0002243602,2,1
-0.000276221,-0.0002243602,2,1
-0.0001062146,-0.0002206326,2,1
7.027458e-05,-0.0002138259,2,1
0.000210299,-0.0002057227,2,1
0.0002903593,-0.0001953505,2,1
0.0003171001,-0.0001809267,2,1
0.0003101313,-0.0001603444,2,1
0.0003065659,-0.0001344139,2,1
0.0003422202,-0.0001068628,2,1
0.0004493454,-8.287715e-05,2,1
0.000643986,-6.148453e-05,2,1
0.0009146354,-3.830919e-05,2,1
0.001230501,-1.059602e-05,2,1
0.001548474,1.97102e-05,2,1
0.001819286,5.017848e-05,2,1
0.002004689,7.90261e-05,2,1
0.002081022,0.0001069013,2,1
0.00204553,0.0001338042,2,1
0.001908908,0.0001579519,2,1
0.001699519,0.0001811273,2,1
0.001474572,0.00019782,2,1
0.001313641,0.0002094887,2,1
0.001285441,0.0002218057,2,1
0.001412501,0.0002397949,2,1
0.001659489,0.0002626462,2,1
0.001941483,0.0002869559,2,1
0.002152817,0.0003091589,2,1
0.002209054,0.0003261758,2,1
0.002073081,0.0003362238,2,1
0.001758511,0.0003405996,2,1
0.001317368,0.0003436788,2,1
0.0008154513,0.0003488649,2,1
0.000324393,0.0003525924,2,1
-9.632857e-05,0.0003556717,2,1
-0.0004157593,0.000359075,2,1
-0.0006392473,0.0003626405,2,1
-0.0007891576,0.0003626405,2,1
-0.000891745,0.0003563199,2,1
-0.0009714811,0.0003472443,2,1
-0.001041169,0.0003363859,2,1
-0.001100485,0.0003229345,2,1
-0.001144081,0.0003039728,2,1
-0.001164015,0.0002835526,2,1
-0.001145701,0.0002637806,2,1
-0.001074717,0.0002451431,2,1
-0.0009478196,0.000225209,2,1
-0.0007791097,0.0002021958,2,1
-0.0006019723,0.0001767515,2,1
-0.0004518998,0.0001493625,2,1
-0.0003533641,0.0001232699,2,1
-0.0003151167,0.0001043083,2,1
-0.0003272716,9.247754e-05,2,1
-0.0003690845,8.631905e-05,2,1
-0.0004155972,7.999851e-05,2,1
-0.0004425001,7.238143e-05,2,1
-0.0004326141,6.395404e-05,2,1
-0.0003815635,5.1475e-05,2,1
-0.0003040963,2.667901e-05,2,1
-0.000231491,-1.237873e-05,2,1
-0.0001887058,-5.775702e-05,2,1
-0.0001809267,-9.892161e-05,2,1
-0.0001822232,-0.0001305243,2,1
-0.0001590478,-0.0001499722,2,1
-0.0001000561,-0.0001605064,2,1
-2.745081e-05,-0.0001663408,2,1
8.041497e-06,-0.0001728234,2,1
-3.766092e-05,-0.0001831956,2,1
-0.0001708786,-0.0001985918,2,1
-0.0003572537,-0.0002107467,2,1
-0.0005395772,-0.0002100984,2,1
-0.000658371,-0.0001956746,2,1
-0.0006804119,-0.0001796301,2,1
-0.0005945173,-0.0001710407,2,1
-0.0004138145,-0.0001786577,2,1
-0.0001828714,-0.0002068571,2,1
3.008238e-05,-0.0002480217,2,1
0.0001584381,-0.0002904828,2,1
0.0001676758,-0.0003238683,2,1
6.962632e-05,-0.0003450988,2,1
-8.725291e-05,-0.0003567675,2,1
-0.0002517492,-0.0003658432,2,1
-0.0003864254,-0.0003807532,2,1
-0.0004768579,-0.0004061974,2,1
-0.0005240189,-0.0004356933,2,1
-0.00053666,-0.0004569239,2,1
-0.0005176983,-0.0004616237,2,1
-0.0004650271,-0.0004481723,2,1
-0.0003914495,-0.0004207833,2,1
-0.000328082,-0.0003906392,2,1
-0.0003037722,-0.0003694086,2,1
-0.0003264613,-0.0003613053,2,1
-0.0003788084,-0.0003613053,2,1
-0.0004243487,-0.0003588744,2,1
-0.0004149489,-0.0003450988,2,1
-0.0003055549,-0.0003128478,2,1
-7.056019e-05,-0.0002629317,2,1
0.000289549,-0.0001969711,2,1
0.0007332841,-0.0001177212,2,1
0.001201005,-2.761287e-05,2,1
0.001626914,6.930219e-05,2,1
0.001950235,0.0001652449,2,1
0.002127535,0.0002525981,2,1
0.002150549,0.0003273102,2,1
0.002038561,0.000388895,2,1
0.001834844,0.0004360561,2,1
0.001597418,0.0004668485,2,1
0.001394187,0.0004781931,2,1
0.001274907,0.0004710622,2,1
0.001253676,0.0004504799,2,1
0.001303755,0.0004274666,2,1
0.001371174,0.0004154738,2,1
0.001397753,0.000418553,2,1
0.001342975,0.000438325,2,1
0.001196791,0.0004684692,2,1
0.0009802718,0.0004999099,2,1
0.00072826,0.0005206542,2,1
0.0004683071,0.0005208163,2,1
0.00021273,0.0005021787,2,1
-3.004385e-05,0.0004743035,2,1
-0.0002554767,0.000450804,2,1
-0.0004676201,0.0004420525,2,1
-0.0006736051,0.0004521006,2,1
-0.0008735937,0.0004736553,2,1
-0.001059483,0.000500396,2,1
-0.001211338,0.0005345919,2,1
-0.00131506,0.0005754323,2,1
-0.001365786,0.0006131936,2,1
-0.001369838,0.0006430136,2,1
-0.001337425,0.0006645683,2,1
-0.001280378,0.0006791542,2,1
-0.001219441,0.0006767232,2,1
-0.001173252,0.0006428516,2,1
-0.00114797,0.0005686256,2,1
-0.001127712,0.0004524247,2,1
-0.001099189,0.0003002453,2,1
-0.001070989,0.0001177597,2,1
-0.001059645,-8.692878e-05,2,1
-0.001074068,-0.0003050687,2,1
-0.001095947,-0.00051705,2,1
-0.001087196,-0.0007013183,2,1
-0.001007946,-0.0008392359,2,1
-0.0008543079,-0.0009278856,2,1
-0.0006645294,-0.0009815291,2,1
-0.0004901472,-0.001016859,2,1
-0.0003674638,-0.001046841,2,1
-0.0003076617,-0.001077796,2,1
-0.0003079858,-0.001108588,2,1
-0.0003439643,-0.001130791,2,1
-0.0003801049,-0.001130305,2,1
-0.0003789705,-0.001097568,2,1
-0.0003261372,-0.00103339,2,1
-0.000236353,-0.0009442542,2,1
-0.0001412206,-0.0008374532,2,1
-6.634648e-05,-0.0007215765,2,1
-1.691656e-05,-0.0006053757,2,1
1.419998e-05,-0.0005016539,2,1
3.705119e-05,-0.0004219178,2,1
5.244739e-05,-0.0003695707,2,1
5.325772e-05,-0.0003345645,2,1
3.429608e-05,-0.0003016653,2,1
-8.720959e-07,-0.0002551526,2,1
-4.236082e-05,-0.0001851404,2,1
-7.769106e-05,-9.357346e-05,2,1
-9.730096e-05,1.355172e-05,2,1
-9.66527e-05,0.0001250527,2,1
-6.958779e-05,0.0002290986,2,1
-1.399939e-05,0.0003208276,2,1
5.828175e-05,0.0003978086,2,1
0.0001273216,0.0004579349,2,1
0.0001765894,0.0004971547,2,1
0.0002030061,0.0005164405,2,1
0.0002128921,0.0005227611,2,1
0.0002145127,0.0005240576,2,1
0.0002135403,0.0005281092,2,1
0.0002156472,0.0005371849,2,1
0.0002281262,0.0005496639,2,1
0.0002618358,0.0005579292,2,1
0.000324393,0.0005554983,2,1
0.0004140152,0.0005420469,2,1
0.0005081752,0.0005156302,2,1
0.0005781874,0.0004775448,2,1
0.0006076833,0.0004298976,2,1
0.0005939078,0.0003785229,2,1
0.0005457744,0.0003264999,2,1
0.0004785172,0.000272208,2,1
0.0004104497,0.0002172679,2,1
0.0003619922,0.0001688103,2,1
0.0003543751,0.0001323456,2,1
0.0003919743,0.0001112771,2,1
0.0004597176,0.000105929,2,1
0.000534916,0.0001124116,2,1
0.0005989318,0.0001315353,2,1
0.0006366931,0.0001620036,2,1
0.0006358828,0.0001989545,2,1
0.0005940699,0.0002286124,2,1
0.0005227611,0.0002383363,2,1
0.0004402698,0.0002231022,2,1
0.0003649094,0.0001914995,2,1
0.000302028,0.0001615174,2,1
0.0002420638,0.0001466074,2,1
0.0001814514,0.0001469315,2,1
0.0001227837,0.0001560072,2,1
7.157111e-05,0.0001673517,2,1
3.380988e-05,0.0001757791,2,1
5.124321e-06,0.0001736723,2,1
-2.518189e-05,0.0001582761,2,1
-6.991193e-05,0.000130725,2,1
-0.0001358725,9.879808e-05,2,1
-0.0002199844,7.351589e-05,2,1
-0.0003096065,5.99024e-05,2,1
-0.0003920977,5.876794e-05,2,1
-0.0004567618,6.152305e-05,2,1
-0.0004995471,5.811968e-05,2,1
-0.000524343,3.883391e-05,2,1
-0.0005329325,5.772582e-06,2,1
-0.000529205,-3.085418e-05,2,1
-0.0005165638,-5.710876e-05,2,1
-0.0005047331,-7.266703e-05,2,1
-0.0005021401,-8.433573e-05,2,1
-0.0005052193,-0.000102325,2,1
-0.0005066779,-0.0001292278,2,1
-0.0005018159,-0.000166827,2,1
-0.0004912817,-0.0002100984,2,1
-0.0004753993,-0.0002459149,2,1
-0.0004507654,-0.0002652006,2,1
-0.0004031182,-0.0002658489,2,1
-0.0003096065,-0.000251101,2,1
-0.0001538618,-0.0002308428,2,1
6.427817e-05,-0.0002138259,2,1
0.0003232586,-0.0002003745,2,1
0.0005811046,-0.0001898403,2,1
0.0007924379,-0.0001831956,2,1
0.0009269523,-0.0001825473,2,1
0.0009846477,-0.0001864369,2,1
0.0009861062,-0.000191623,2,1
0.000958393,-0.0001958367,2,1
0.0009258178,-0.0001955125,2,1
0.0009006977,-0.0001914609,2,1
0.0008906497,-0.0001836818,2,1
0.0008929186,-0.0001728234,2,1
0.0008927565,-0.0001598582,2,1
0.0008642329,-0.0001439758,2,1
0.0007832003,-0.0001237176,2,1
0.0006394482,-9.859748e-05,2,1
0.0004454559,-7.60704e-05,2,1
0.0002363916,-6.164659e-05,2,1
4.547859e-05,-5.467778e-05,2,1
-0.0001075111,-5.159854e-05,2,1
-0.0002220912,-4.689865e-05,2,1
-0.0003044204,-3.68506e-05,2,1
-0.0003557951,-2.291298e-05,2,1
-0.0003752429,-5.57199e-06,2,1
-0.0003694086,1.387585e-05,2,1
-0.0003527159,3.397195e-05,2,1
-0.0003347266,5.050261e-05,2,1
-0.0003147926,6.022653e-05,2,1
-0.0002849726,6.314371e-05,2,1
-0.0002428356,6.249545e-05,2,1
-0.0001840059,6.071273e-05,2,1
-0.0001076731,6.281957e-05,2,1
-1.237873e-05,6.962632e-05,2,1
0.0001012291,8.145709e-05,2,1
0.0002265056,9.798775e-05,2,1
0.0003593992,0.0001143563,2,1
0.000502827,0.0001278078,2,1
0.0006580857,0.0001401247,2,1
0.0008185305,0.0001548727,2,1
0.0009677928,0.0001692965,2,1
0.001082859,0.0001799928,2,1
0.001150441,0.0001887444,2,1
0.00117394,0.0002023578,2,1
0.00117394,0.0002234263,2,1
0.001173292,0.0002469258,2,1
0.001188526,0.0002658874,2,1
0.001215591,0.0002752873,2,1
0.001239253,0.0002751252,2,1
0.001230987,0.0002629703,2,1
0.001161461,0.0002420638,2,1
0.00100053,0.0002161334,2,1
0.000725667,0.000185503,2,1
0.0003452995,0.0001529279,2,1
-9.29252e-05,0.0001201907,2,1
-0.0005155915,8.648112e-05,2,1
-0.0008677593,5.390598e-05,2,1
-0.001128522,2.700314e-05,2,1
-0.001308901,8.851824e-06,2,1
-0.001436446,-3.465141e-06,2,1
-0.001536765,-1.108221e-05,2,1
-0.00162347,-1.464765e-05,2,1
-0.001699803,-1.562004e-05,2,1
-0.001758308,-1.529591e-05,2,1
-0.001784239,-1.67545e-05,2,1
-0.001768681,-2.031993e-05,2,1
-0.001716171,-2.583016e-05,2,1
-0.001636111,-3.425755e-05,2,1
-0.001541465,-4.544006e-05,2,1
-0.001442767,-5.775702e-05,2,1
-0.001342125,-7.477388e-05,2,1
-0.001236296,-9.762509e-05,2,1
-0.001108588,-0.0001240417,2,1
-0.0009460369,-0.0001501342,2,1
-0.0007557723,-0.0001757406,2,1
-0.0005608077,-0.0002002124,2,1
-0.0003809152,-0.0002212809,2,1
-0.0002334358,-0.0002394322,2,1
-0.0001282554,-0.0002530457,2,1
-6.310517e-05,-0.0002606628,2,1
-2.242678e-05,-0.000263742,2,1
8.689758e-06,-0.0002648765,2,1
4.175109e-05,-0.0002619593,2,1
7.918817e-05,-0.000256287,2,1
0.0001214872,-0.0002502906,2,1
0.0001649207,-0.000241377,2,1
0.000207706,-0.0002284118,2,1
0.0002509774,-0.0002104225,2,1
0.0002884145,-0.0001870851,2,1
0.0003030004,-0.0001566169,2,1
0.000282256,-0.0001206384,2,1
0.0002265056,-8.935975e-05,2,1
0.0001493625,-7.072225e-05,2,1
7.140904e-05,-6.650855e-05,2,1
3.989864e-06,-7.120844e-05,2,1
-5.69467e-05,-7.65566e-05,2,1
-0.0001164247,-7.704279e-05,2,1
-0.0001546721,-7.088431e-05,2,1
-0.0001394379,-5.856735e-05,2,1
-5.613637e-05,-4.041603e-05,2,1
7.189524e-05,-1.659243e-05,2,1
0.0001957132,9.986281e-06,2,1
0.0002762596,3.721326e-05,2,1
0.0002963557,5.698522e-05,2,1
0.0002642668,6.492643e-05,2,1
0.0001974959,6.557468e-05,2,1
0.0001086841,6.800567e-05,2,1
1.274139e-05,7.789165e-05,2,1
-7.590833e-05,9.68533e-05,2,1
-0.0001460826,0.0001232699,2,1
-0.0001908126,0.0001503349,2,1
-0.0002096122,0.0001722137,2,1
-0.0002050744,0.0001874478,2,1
-0.0001789819,0.0001999268,2,1
-0.0001468929,0.0002086784,2,1
-0.0001248521,0.0002161334,2,1
-0.0001305243,0.0002193747,2,1
-0.0001737958,0.0002198609,2,1
-0.0002478596,0.0002222919,2,1
-0.0003387782,0.0002287745,2,1
-0.0004285624,0.0002342847,2,1
-0.0004963057,0.000232502,2,1
-0.0005215878,0.0002227781,2,1
-0.0004940368,0.0002083542,2,1
-0.0004220798,0.0001945787,2,1
-0.0003321336,0.0001842065,2,1
-0.000258718,0.0001790204,2,1
-0.000226467,0.0001803169,2,1
-0.0002421874,0.0001858272,2,1
-0.0002865932,0.0001897167,2,1
-0.0003246786,0.000190365,2,1
-0.0003329439,0.0001864754,2,1
-0.0003018274,0.0001746447,2,1
-0.0002295462,0.0001568175,2,1
-0.0001063766,0.0001363972,2,1
7.691926e-05,0.0001175977,2,1
0.000329255,0.0001041462,2,1
0.0006373413,9.847395e-05,2,1
0.0009538552,9.555677e-05,2,1
0.001226936,8.534666e-05,2,1
0.001433569,6.573675e-05,2,1
0.001589477,4.288554e-05,2,1
0.001709891,2.165498e-05,2,1
0.001785576,5.124321e-06,2,1
0.001787521,-5.734056e-06,2,1
0.001693685,-1.124428e-05,2,1
0.001515412,-1.270286e-05,2,1
0.001288845,-1.20546e-05,2,1
0.00105855,-1.464765e-05,2,1
0.0008511057,-2.453363e-05,2,1
0.0006673234,-4.349527e-05,2,1
0.000487917,-7.153257e-05,2,1
0.0002965178,-0.0001041077,2,1
9.16672e-05,-0.0001381414,2,1
-0.0001088076,-0.0001661787,2,1
-0.0002836761,-0.0001833576,2,1
-0.0004209454,-0.0001906506,2,1
-0.0005123502,-0.0001861127,2,1
-0.0005575664,-0.0001741199,2,1
-0.0005608077,-0.0001630995,2,1
-0.000529205,-0.0001596961,2,1
-0.000467296,-0.0001660166,2,1
-0.00038286,-0.0001760647,2,1
-0.0002911311,-0.0001835197,2,1
-0.0002049123,-0.000186761,2,1
-0.0001258245,-0.0001854645,2,1
-4.138842e-05,-0.0001799543,2,1
6.654708e-05,-0.0001728234,2,1
0.0002075439,-0.0001642339,2,1
0.0003657197,-0.0001498101,2,1
0.000502827,-0.0001277692,2,1
0.0005836976,-0.0001015147,2,1
0.0005995801,-7.769106e-05,2,1
0.0005739738,-5.662256e-05,2,1
0.0005516087,-3.474375e-05,2,1
0.0005691118,-1.383732e-05,2,1
0.000641393,-2.330684e-06,2,1
0.0007611593,-4.113403e-06,2,1
0.0008992391,-1.643037e-05,2,1
0.001010092,-3.101625e-05,2,1
0.001038453,-3.944364e-05,2,1
0.000946076,-3.68506e-05,2,1
0.0007227498,-2.194059e-05,2,1
0.0004029947,-3.858999e-07,2,1
5.050261e-05,2.408596e-05,2,1
-0.000271197,4.77475e-05,2,1
-0.0005160777,6.589881e-05,2,1
-0.0006573986,7.983644e-05,2,1
-0.000685598,8.810177e-05,2,1
-0.0006053757,8.777764e-05,2,1
-0.0004489826,7.67572e-05,2,1
-0.0002666592,5.601284e-05,2,1
-0.0001156143,2.700314e-05,2,1
-3.766092e-05,-7.030578e-06,2,1
-4.787104e-05,-3.911951e-05,2,1
-0.0001360346,-5.662256e-05,2,1
-0.0002699005,-5.500191e-05,2,1
-0.0004032803,-3.782299e-05,2,1
-0.0005011677,-9.461558e-06,2,1
-0.0005570802,2.505836e-05,2,1
-0.0005927345,5.487838e-05,2,1
-0.0006431369,7.400208e-05,2,1
-0.0007337314,7.935024e-05,2,1
-0.000859494,7.756752e-05,2,1
-0.0009847705,7.52986e-05,2,1
-0.001061427,8.259155e-05,2,1
-0.001061589,0.0001039842,2,1
-0.0009881739,0.0001368834,2,1
-0.0008500942,0.0001751309,2,1
-0.0006510781,0.0002094887,2,1
-0.0003932322,0.0002346088,2,1
-9.794922e-05,0.0002501671,2,1
0.0001858272,0.0002605393,2,1
0.0004093153,0.0002683184,2,1
0.0005486915,0.0002715597,2,1
0.0005890459,0.0002654013,2,1
0.0005200059,0.0002514636,2,1
0.0003407616,0.0002297469,2,1
7.465034e-05,0.0002017096,2,1
-0.0002378116,0.0001717275,2,1
-0.0005538389,0.0001393144,2,1
-0.0008475012,0.0001015532,2,1
-0.001105509,6.022653e-05,2,1
-0.001301122,2.262738e-05,2,1
-0.001397875,-2.978945e-06,2,1
-0.001378265,-1.756482e-05,2,1
-0.001259633,-2.858527e-05,2,1
-0.001082172,-4.138842e-05,2,1
-0.0008784557,-5.516398e-05,2,1
-0.0006659881,-7.072225e-05,2,1
-0.0004431483,-8.44978e-05,2,1
-0.0002006986,-9.357346e-05,2,1
6.071273e-05,-9.827335e-05,2,1
0.0003206656,-0.0001032974,2,1
0.0005412365,-0.0001133454,2,1
0.0006877437,-0.0001319829,2,1
0.0007538663,-0.0001572651,2,1
0.0007689385,-0.0001828714,2,1
0.0007661834,-0.0002000504,2,1
0.0007691005,-0.0002073433,2,1
0.0007891966,-0.000206533,2,1
0.0008311716,-0.0002024813,2,1
0.000896322,-0.0001921092,2,1
0.0009773547,-0.0001759026,2,1
0.001055308,-0.0001499722,2,1
0.001087721,-0.0001117248,2,1
0.001032619,-5.953974e-05,2,1
0.0008793051,1.883015e-06,2,1
0.0006478756,6.492643e-05,2,1
0.0003897054,0.0001197045,2,1
0.0001796687,0.000160707,2,1
7.562274e-05,0.0001816135,2,1
8.016057e-05,0.0001799928,2,1
0.0001524417,0.000162976,2,1
0.0002470879,0.0001393144,2,1
0.0003420582,0.0001192183,2,1
0.0004368664,0.0001051186,2,1
0.0005339436,9.393612e-05,2,1
0.0006332897,7.30297e-05,2,1
0.0007302048,2.570662e-05,2,1
0.0008162616,-4.689865e-05,2,1
0.0008754155,-0.0001303623,2,1
0.0008935668,-0.0002024813,2,1
0.000859371,-0.0002502906,2,1
0.0007665075,-0.0002724935,2,1
0.000621783,-0.0002789762,2,1
0.0004430249,-0.0002805968,2,1
0.0002545429,-0.0002856209,2,1
8.486046e-05,-0.0002924276,2,1
-5.22468e-05,-0.0002932379,2,1
-0.0001601823,-0.0002822175,2,1
-0.0002556388,-0.0002559629,2,1
-0.0003468815,-0.0002157707,2,1
-0.0004318037,-0.0001650443,2,1
-0.0005066779,-0.0001060525,2,1
-0.0005753936,-3.944364e-05,2,1
-0.000643461,2.34377e-05,2,1
-0.0007152559,6.087479e-05,2,1
-0.000787537,6.249545e-05,2,1
-0.000849446,2.992031e-05,2,1
-0.0008805625,-1.67545e-05,2,1
-0.0008646801,-5.240886e-05,2,1
-0.0007935334,-5.743289e-05,2,1
-0.0006702017,-3.004385e-05,2,1
-0.0005211017,2.068259e-05,2,1
-0.0003961493,7.870197e-05,2,1
-0.0003514194,0.000130725,2,1
-0.0004178661,0.0001712413,2,1
-0.0005762039,0.0002044647,2,1
-0.0007653341,0.000242388,2,1
-0.0009158928,0.0002942489,2,1
-0.0009768293,0.0003618301,2,1
-0.0009353406,0.0004350837,2,1
-0.0008186536,0.0004971547,2,1
-0.0006810602,0.0005386435,2,1
-0.000576528,0.0005545259,2,1
-0.0005311498,0.0005493398,2,1
-0.0005439529,0.0005238955,2,1
-0.0005966241,0.0004820827,2,1
-0.0006627468,0.000428277,2,1
-0.0007103939,0.0003731747,2,1
-0.0007168766,0.0003230965,2,1
-0.0006706879,0.0002749631,2,1
-0.0005703696,0.000217592,2,1
-0.0004253211,0.0001393144,2,1
-0.0002509389,3.915804e-05,2,1
-7.23429e-05,-6.991193e-05,2,1
7.108491e-05,-0.0001637477,2,1
0.0001501728,-0.000221443,2,1
0.0001678379,-0.0002274394,2,1
0.0001540623,-0.0001864369,2,1
0.0001466074,-0.0001156143,2,1
0.000162976,-4.041603e-05,2,1
0.000202682,1.873781e-05,2,1
0.0002547049,5.471631e-05,2,1
0.0003107795,7.059871e-05,2,1
0.0003741471,7.481241e-05,2,1
0.0004709002,7.513654e-05,2,1
0.0006234037,7.594687e-05,2,1
0.0008219338,7.367795e-05,2,1
0.001024678,6.055066e-05,2,1
0.001174426,3.18651e-05,2,1
0.001227098,-1.221667e-05,2,1
0.001169078,-6.116039e-05,2,1
0.001008309,-0.0001075111,2,1
0.0007729901,-0.0001442999,2,1
0.0005059062,-0.0001736337,2,1
0.0002508154,-0.000204102,2,1
4.580272e-05,-0.0002431597,2,1
-9.713889e-05,-0.0002912931,2,1
-0.0001982676,-0.0003425058,2,1
-0.0002903207,-0.000387722,2,1
-0.0003909633,-0.0004211074,2,1
-0.0004933886,-0.0004439586,2,1
-0.0005749074,-0.0004570859,2,1
-0.0006240131,-0.0004638926,2,1
-0.0006411921,-0.0004643789,2,1
-0.0006128307,-0.0004553032,2,1
-0.000489661,-0.0004355313,2,1
-0.0002344082,-0.0004061974,2,1
0.0001295905,-0.0003687603,2,1
0.0005240576,-0.0003290543,2,1
0.000871688,-0.0002867553,2,1
0.001128238,-0.0002407288,2,1
0.001271504,-0.0001896782,2,1
0.001295652,-0.0001327933,2,1
0.001216239,-6.991193e-05,2,1
0.001060008,-7.678839e-06,2,1
0.0008559676,4.515445e-05,2,1
0.0006337758,8.340187e-05,2,1
0.0004239012,0.0001104668,2,1
0.0002504913,0.0001313732,2,1
0.0001271595,0.00015309,2,1
6.395404e-05,0.0001799928,2,1
6.654708e-05,0.0002135403,2,1
0.0001373696,0.0002493568,2,1
0.0002611876,0.0002816078,2,1
0.0004115842,0.0003083486,2,1
0.000557281,0.0003324963,2,1
0.0006631098,0.0003556717,2,1
0.0007023296,0.0003772264,2,1
0.0006668373,0.000398619,2,1
0.000562143,0.0004180668,2,1
0.0004054258,0.0004279528,2,1
0.0002179161,0.0004250357,2,1
2.76514e-05,0.0004114222,2,1
-0.0001329553,0.0003880847,2,1
-0.0002459149,0.0003595612,2,1
-0.0003138202,0.0003313618,2,1
-0.0003606571,0.0003047831,2,1
-0.0004141386,0.0002824181,2,1
-0.0004925782,0.0002679943,2,1
-0.0005927345,0.0002602152,2,1
-0.0006966184,0.0002551911,2,1
-0.0007810544,0.0002470879,2,1
-0.0008342119,0.0002326641,2,1
-0.0008612768,0.0002122438,2,1
-0.000876673,0.0001939304,2,1
-0.0008940139,0.0001858272,2,1
-0.0009089239,0.0001885823,2,1
-0.0008998482,0.000195389,2,1
-0.0008538218,0.0001994406,2,1
-0.0007779752,0.0001987924,2,1
-0.0006919185,0.0001918236,2,1
-0.000613803,0.0001752929,2,1
-0.0005523803,0.0001500107,2,1
-0.0004995471,0.0001205148,2,1
-0.0004425001,8.664318e-05,2,1
-0.0003674638,4.82337e-05,2,1
-0.0002758969,2.855407e-06,2,1
-0.0001835197,-4.722278e-05,2,1
-0.0001070249,-9.827335e-05,2,1
-6.261898e-05,-0.0001421931,2,1
-5.872941e-05,-0.0001786577,2,1
-9.324933e-05,-0.0002120432,2,1
-0.0001559686,-0.0002467252,2,1
-0.0002256567,-0.0002822175,2,1
-0.0002789762,-0.000310903,2,1
-0.0003019894,-0.000328082,2,1
-0.0002856209,-0.0003327818,2,1
-0.0002143121,-0.0003261372,2,1
-7.023606e-05,-0.0003096065,2,1
0.0001584381,-0.0002857829,2,1
0.0004616624,-0.0002600145,2,1
0.0007827141,-0.0002357047,2,1
0.001032943,-0.0002159328,2,1
0.001136989,-0.000201509,2,1
0.001057901,-0.0001935677,2,1
0.0008135065,-0.0001888679,2,1
0.000465552,-0.0001864369,2,1
9.717743e-05,-0.0001797922,2,1
-0.0002128535,-0.0001681235,2,1
-0.0004215936,-0.0001509446,2,1
-0.0005227224,-0.0001336036,2,1
-0.0005206155,-0.0001219349,2,1
-0.0004287245,-0.0001167488,2,1
-0.0002702246,-0.0001182074,2,1
-7.23429e-05,-0.000119828,2,1
0.0001435281,-0.0001102662,2,1
0.0003636129,-8.773911e-05,2,1
0.0005859666,-5.354332e-05,2,1
0.0008089686,-1.416145e-05,2,1
0.001018843,2.165498e-05,2,1
0.001192416,4.402e-05,2,1
0.001304403,4.936815e-05,2,1
0.001343461,4.142696e-05,2,1
0.001324013,3.267542e-05,2,1
0.001281228,3.364782e-05,2,1
0.001250597,4.953022e-05,2,1
0.001250921,7.837785e-05,2,1
0.001277986,0.0001124116,2,1
0.00130732,0.0001404489,2,1
0.001296462,0.000155521,2,1
0.00119825,0.0001574657,2,1
0.0009904819,0.0001539003,2,1
0.0006775336,0.000150659,2,1
0.0002991108,0.0001487142,2,1
-8.725291e-05,0.0001474177,2,1
-0.0004288866,0.0001495245,2,1
-0.0007022907,0.0001543865,2,1
-0.0009100584,0.0001600588,2,1
-0.001062238,0.000162976,2,1
-0.001162718,0.0001623277,2,1
-0.001205179,0.0001564933,2,1
-0.001183787,0.0001428799,2,1
-0.001106644,0.0001197045,2,1
-0.0009946565,8.729144e-05,2,1
-0.0008674352,5.163707e-05,2,1
-0.0007369727,1.59827e-05,2,1
-0.0005977586,-1.480971e-05,2,1
-0.0004446069,-3.976777e-05,2,1
-0.000285945,-5.710876e-05,2,1
-0.0001496481,-6.44017e-05,2,1
-7.315322e-05,-5.370539e-05,2,1
-7.526008e-05,-1.967167e-05,2,1
-0.0001352242,3.251336e-05,2,1
-0.0002049123,8.858796e-05,2,1
-0.0002404046,0.0001344524,2,1
-0.0002250084,0.0001577899,2,1
-0.0001723372,0.0001545486,2,1
-0.000104918,0.0001318594,2,1
-5.532604e-05,0.0001002567,2,1
-4.446767e-05,7.124698e-05,2,1
-6.748094e-05,5.358185e-05,2,1
-0.0001026491,4.742337e-05,2,1
-0.0001284175,5.082674e-05,2,1
-0.0001402483,6.525056e-05,2,1
-0.0001512687,9.053275e-05,2,1
-0.0001700683,0.0001218114,2,1
-0.0001968091,0.0001498487,2,1
-0.0002233878,0.0001650828,2,1
-0.0002300324,0.0001618415,2,1
-0.0002057227,0.0001363972,2,1
-0.0001549962,9.085688e-05,2,1
-9.762509e-05,3.073064e-05,2,1
-5.824322e-05,-3.571614e-05,2,1
-5.905355e-05,-0.0001058904,2,1
-0.000104756,-0.0001830335,2,1
-0.0001857886,-0.0002674695,2,1
-0.0002791382,-0.0003525538,2,1
-0.00035304,-0.0004279142,2,1
-0.0003742705,-0.0004817198,2,1
-0.0003253268,-0.0005084606,2,1
-0.0002193361,-0.0005110537,2,1
-9.357346e-05,-0.000496954,2,1
6.096713e-06,-0.0004710235,2,1
4.191315e-05,-0.000444931,2,1
5.934648e-06,-0.0004222419,2,1
-7.493595e-05,-0.0004060354,2,1
-0.0001558065,-0.0003987424,2,1
-0.000209126,-0.0003990665,2,1
-0.0002198223,-0.0004044147,2,1
-0.0001911368,-0.0004061974,2,1
-0.0001365208,-0.0003963114,2,1
-7.088431e-05,-0.000372974,2,1
-8.489166e-06,-0.0003389403,2,1
3.105477e-05,-0.0002961551,2,1
3.332369e-05,-0.0002478596,2,1
-2.492749e-06,-0.0001950263,2,1
-5.678463e-05,-0.0001400862,2,1
-9.66527e-05,-8.174268e-05,2,1
-8.968389e-05,-2.064406e-05,2,1
-1.659243e-05,3.786152e-05,2,1
0.0001218114,9.280167e-05,2,1
0.0002965178,0.0001466074,2,1
0.000458259,0.0001981441,2,1
0.0005590637,0.0002488706,2,1
0.0005725152,0.0002948972,2,1
0.0005005581,0.0003315239,2,1
0.0003678266,0.0003555096,2,1
0.0002124059,0.0003650715,2,1
7.400208e-05,0.0003558337,2,1
-2.080613e-05,0.0003273102,2,1
-6.423963e-05,0.0002848491,2,1
-6.958779e-05,0.000239957,2,1
-5.548811e-05,0.0002020337,2,1
-3.458168e-05,0.0001811273,2,1
-6.058186e-06,0.0001837203,2,1
4.693717e-05,0.000207706,2,1
0.0001294284,0.0002419018,2,1
0.0002240746,0.000274639,2,1
0.0002934386,0.0002976523,2,1
0.0003000832,0.000309321,2,1
0.0002292607,0.0003128864,2,1
9.426025e-05,0.0003156415,2,1
-7.363943e-05,0.000319369,2,1
-0.0002350565,0.0003206656,2,1
-0.0003645466,0.0003162898,2,1
-0.0004530343,0.0003054314,2,1
-0.0005073262,0.0002906835,2,1
-0.0005376324,0.0002739907,2,1
-0.0005486528,0.0002576221,2,1
-0.0005389289,0.000244981,2,1
-0.0005099192,0.0002370398,2,1
-0.0004789647,0.0002315296,2,1
-0.0004682684,0.0002235884,2,1
-0.0004937127,0.0002104611,2,1
-0.0005484907,0.0001931201,2,1
-0.0006102377,0.000175455,2,1
-0.0006551297,0.0001574657,2,1
-0.0006714982,0.0001399627,2,1
-0.0006705259,0.0001216493,2,1
-0.000675874,0.0001047945,2,1
-0.0006949978,9.296373e-05,2,1
-0.0007172007,8.939829e-05,2,1
-0.0007266005,9.426025e-05,2,1
-0.0007052079,0.0001033359,2,1
-0.0006397335,0.0001125736,2,1
-0.0005311498,0.0001182459,2,1
-0.0003920977,0.0001158149,2,1
-0.0002331117,0.0001018773,2,1
-5.743289e-05,8.064677e-05,2,1
0.0001414213,5.974033e-05,2,1
0.0003705817,4.207521e-05,2,1
0.0006229175,2.586868e-05,2,1
0.0008781706,4.47606e-06,2,1
0.001113328,-2.615429e-05,2,1
0.001308293,-6.472583e-05,2,1
0.001438755,-0.0001007043,2,1
0.001480244,-0.0001180453,2,1
0.001424656,-0.0001058904,2,1
0.001302782,-6.829127e-05,2,1
0.001171995,-2.550602e-05,2,1
0.001085614,3.665733e-06,2,1
0.001061629,8.365628e-06,2,1
0.001087073,-2.161646e-05,2,1
0.001130507,-9.227693e-05,2,1
0.001165837,-0.0001921092,2,1
0.001177181,-0.0002958309,2,1
0.001168916,-0.000375405,2,1
0.001159678,-0.0004173799,2,1
0.001169564,-0.0004167317,2,1
0.001195171,-0.0003810773,2,1
0.001199384,-0.0003253268,2,1
0.001141689,-0.0002656868,2,1
0.001003123,-0.0002159328,2,1
0.0007885484,-0.0001818991,2,1
0.0005185474,-0.0001665028,2,1
0.000232502,-0.0001723372,2,1
-2.09682e-05,-0.0002021572,2,1
-0.0001982676,-0.0002506147,2,1
-0.0002797865,-0.0003018274,2,1
-0.0002789762,-0.0003391024,2,1
-0.0002460769,-0.0003557951,2,1
-0.0002407288,-0.0003588744,2,1
-0.0003027998,-0.0003598467,2,1
-0.0004378002,-0.0003616295,2,1
-0.0006219063,-0.000358064,2,1
-0.0008193018,-0.0003394265,2,1
-0.001000167,-0.0002971275,2,1
-0.001150887,-0.0002348944,2,1
-0.001265468,-0.0001687718,2,1
-0.001341152,-0.0001141558,2,1
-0.001371944,-7.396356e-05,2,1
-0.001351362,-4.106429e-05,2,1
-0.001269681,-5.89612e-06,2,1
-0.001118799,3.899597e-05,2,1
-0.0008974173,9.490851e-05,2,1
-0.0006189891,0.0001550348,2,1
-0.0003118754,0.0002130541,2,1
-1.010982e-05,0.0002641047,2,1
0.0002584324,0.00030689,2,1
0.0004739794,0.0003423823,2,1
0.0006295622,0.0003705817,2,1
0.0007136742,0.0003945674,2,1
0.0007049226,0.000411098,2,1
0.0005989318,0.0004102877,2,1
0.0004245494,0.0003859779,2,1
0.0002401191,0.0003446512,2,1
0.0001140322,0.0003000832,2,1
0.0001023635,0.0002666978,2,1
0.0002417397,0.0002511395,2,1
0.0005446399,0.0002496809,2,1
0.0009713583,0.0002587566,2,1
0.001417687,0.000274801,2,1
0.001763535,0.0002958695,2,1
0.001924629,0.0003188828,2,1
0.001884274,0.0003380065,2,1
0.001684123,0.0003483787,2,1
0.001408287,0.0003487029,2,1
0.001133586,0.0003431926,2,1
0.0008932427,0.0003375204,2,1
0.0006804507,0.0003360618,2,1
0.0004747897,0.0003357376,2,1
0.0002626462,0.0003313618,2,1
4.661304e-05,0.0003177483,2,1
-0.000159372,0.0002882525,2,1
-0.0003400748,0.0002391467,2,1
-0.0004951713,0.000173024,2,1
-0.0006361681,9.896015e-05,2,1
-0.0007742477,2.457216e-05,2,1
-0.0009137859,-4.80331e-05,2,1
-0.001046679,-0.0001175591,2,1
-0.001158829,-0.0001833576,2,1
-0.001237106,-0.0002481838,2,1
-0.001280216,-0.0003139823,2,1
-0.001300636,-0.0003849669,2,1
-0.00131198,-0.0004591928,2,1
-0.001314087,-0.0005249913,2,1
-0.001297719,-0.0005703696,2,1
-0.001260606,-0.0005875485,2,1
-0.001212958,-0.0005723144,2,1
-0.001165311,-0.0005232086,2,1
-0.00112674,-0.0004426621,2,1
-0.001094651,-0.0003378059,2,1
-0.001057376,-0.0002159328,2,1
-0.001006001,-8.417367e-05,2,1
-0.0009376095,4.45062e-05,2,1
-0.0008672731,0.0001534141,2,1
-0.0008178432,0.0002278021,2,1
-0.0008039057,0.0002581083,2,1
-0.0008244879,0.0002466017,2,1
-0.0008663007,0.0002062474,2,1
-0.0009098963,0.0001563313,2,1
-0.0009299924,0.0001125736,2,1
-0.0008988759,8.372601e-05,2,1
-0.0007980713,6.557468e-05,2,1
-0.0006314681,4.677511e-05,2,1
-0.0004290486,2.084466e-05,2,1
-0.0002386219,-1.3027e-05,2,1
-0.000102325,-5.013995e-05,2,1
-4.122636e-05,-8.709085e-05,2,1
-5.046408e-05,-0.0001267968,2,1
-0.0001110765,-0.0001697442,2,1
-0.0001974573,-0.0002125294,2,1
-0.0002801106,-0.0002483458,2,1
-0.0003463953,-0.0002708729,2,1
-0.0003989045,-0.0002763831,2,1
-0.0004355313,-0.0002645523,2,1
-0.0004502792,-0.0002371633,2,1
-0.0004376381,-0.0001968091,2,1
-0.0004024699,-0.0001558065,2,1
-0.0003575778,-0.0001255003,2,1
-0.0003099306,-0.0001084835,2,1
-0.0002515871,-9.875954e-05,2,1
-0.0001606685,-8.984595e-05,2,1
-1.140634e-05,-7.65566e-05,2,1
0.0002067336,-5.662256e-05,2,1
0.0004788414,-2.291298e-05,2,1
0.0007660213,2.619281e-05,2,1
0.001012361,8.631905e-05,2,1
0.001166971,0.0001438522,2,1
0.00121235,0.0001885823,2,1
0.00117313,0.0002132162,2,1
0.001102956,0.000217592,2,1
0.001054498,0.0002049509,2,1
0.001063898,0.000185341,2,1
0.001143148,0.0001670276,2,1
0.00128139,0.0001517934,2,1
0.001444266,0.0001415833,2,1
0.001589314,0.0001394765,2,1
0.00169644,0.000145635,2,1
0.00176548,0.0001566554,2,1
0.001801945,0.0001686482,2,1
0.001793193,0.000180479,2,1
0.001708595,0.0001882582,2,1
0.001513468,0.0001871237,2,1
0.001198412,0.0001743205,2,1
0.0007935724,0.0001521176,2,1
0.0003592371,0.000130887,2,1
-3.717473e-05,0.0001187321,2,1
-0.0003402368,0.0001143563,2,1
-0.0005240189,0.0001172735,2,1
-0.0005935449,0.0001292664,2,1
-0.0005778245,0.0001467694,2,1
-0.0005201293,0.000165569,2,1
-0.0004632444,0.0001814514,2,1
-0.0004402311,0.0001874478,2,1
-0.0004588687,0.0001835583,2,1
-0.0005084606,0.0001738343,2,1
-0.0005646973,0.0001598967,2,1
-0.000601162,0.0001414213,2,1
-0.0005987309,0.0001151667,2,1
-0.0005468701,7.724339e-05,2,1
-0.0004533584,2.992031e-05,2,1
-0.0003379679,-1.983374e-05,2,1
-0.0002113949,-6.472583e-05,2,1
-6.504996e-05,-0.0001020008,2,1
0.0001190562,-0.000134738,2,1
0.0003561579,-0.0001656925,2,1
0.0006405826,-0.0001968091,2,1
0.0009300316,-0.0002251705,2,1
0.001153682,-0.0002452666,2,1
0.001237308,-0.0002507768,2,1
0.001138772,-0.0002300324,2,1
0.0008687708,-0.0001806025,2,1
0.0004976409,-0.0001078352,2,1
0.0001141943,-2.615429e-05,2,1
-0.0002070192,4.888196e-05,2,1
-0.0004308313,0.0001047945,2,1
-0.000554001,0.0001352628,2,1
-0.0005831727,0.0001401247,2,1
-0.0005340669,0.0001242423,2,1
-0.0004371519,9.63671e-05,2,1
-0.0003347266,6.249545e-05,2,1
-0.0002596904,2.732727e-05,2,1
-0.0002331117,-8.489166e-06,2,1
-0.0002567732,-4.835724e-05,2,1
-0.0003196545,-9.19528e-05,2,1
-0.0004032803,-0.0001349001,2,1
-0.0004890127,-0.0001677994,2,1
-0.0005593491,-0.0001859507,2,1
-0.0005907898,-0.000191785,2,1
-0.0005656697,-0.0001888679,2,1
-0.0004794509,-0.0001827094,2,1
-0.0003433161,-0.0001846542,2,1
-0.0001840059,-0.0002079916,2,1
-2.809907e-05,-0.0002525595,2,1
9.750156e-05,-0.0003002067,2,1
0.0001793446,-0.000328082,2,1
0.0002153231,-0.0003245165,2,1
0.0002070577,-0.0002930758,2,1
0.0001665414,-0.0002395943,2,1
0.0001164632,-0.0001716889,2,1
8.210535e-05,-0.0001000561,2,1
8.437427e-05,-3.279896e-05,2,1
0.0001289422,2.943412e-05,2,1
0.0002020337,8.972242e-05,2,1
0.0002866318,0.0001504969,2,1
0.000363937,0.0002114335,2,1
0.0004217943,0.0002709115,2,1
0.0004470765,0.0003261758,2,1
0.0004345975,0.0003673404,2,1
0.0003794953,0.0003875985,2,1
0.0002791768,0.0003867882,2,1
0.0001355869,0.0003691231,2,1
-3.928157e-05,0.0003431926,2,1
-0.0002229016,0.0003205035,2,1
-0.0003937184,0.0003038107,2,1
-0.0005314739,0.0002927903,2,1
-0.0006275786,0.0002859836,2,1
-0.0006818705,0.0002777182,2,1
-0.0007034251,0.0002652392,2,1
-0.0007175248,0.0002483844,2,1
-0.0007564205,0.0002261814,2,1
-0.000852039,0.000200413,2,1
-0.001024314,0.0001712413,2,1
-0.001260768,0.0001412592,2,1
-0.001499976,0.0001112771,2,1
-0.0016541,8.064677e-05,2,1
-0.001650373,5.131294e-05,2,1
-0.001472263,2.829966e-05,2,1
-0.001181356,1.160693e-05,2,1
-0.0008846141,7.485573e-07,2,1
-0.000668257,-7.678839e-06,2,1
-0.0005642111,-1.756482e-05,2,1
-0.0005371462,-2.923353e-05,2,1
-0.000511864,-4.236082e-05,2,1
-0.0004096008,-5.986387e-05,2,1
-0.0001925954,-8.352541e-05,2,1
0.0001352628,-0.0001138316,2,1
0.0005407503,-0.0001481895,2,1
0.0009854579,-0.0001781716,2,1
0.001422063,-0.000191785,2,1
0.001794814,-0.0001830335,2,1
0.002054605,-0.0001582375,2,1
0.002185717,-0.0001305243,2,1
0.002204841,-0.0001131834,2,1
0.002152493,-0.0001114006,2,1
0.002073405,-0.000127121,2,1
0.002003879,-0.0001522411,2,1
0.001949749,-0.0001754164,2,1
0.001908584,-0.0001909747,2,1
0.001890595,-0.0001972953,2,1
0.001911501,-0.0001953505,2,1
0.001961255,-0.0001875713,2,1
0.001997234,-0.0001733096,2,1
0.001966279,-0.0001561307,2,1
0.001820744,-0.0001381414,2,1
0.001535509,-0.0001237176,2,1
0.001118676,-0.0001157764,2,1
0.0006118971,-0.0001185315,2,1
7.367795e-05,-0.000127121,2,1
-0.000432452,-0.000132145,2,1
-0.0008510666,-0.0001282554,2,1
-0.001159153,-0.0001225832,2,1
-0.001359303,-0.0001233935,2,1
-0.001468697,-0.0001350622,2,1
-0.001508079,-0.0001491618,2,1
-0.001488307,-0.000156941,2,1
-0.001416675,-0.0001525652,2,1
-0.001298043,-0.0001353863,2,1
-0.001146674,-0.0001052422,2,1
-0.0009880118,-7.072225e-05,2,1
-0.0008543079,-3.944364e-05,2,1
-0.0007643617,-1.399939e-05,2,1
-0.0007097457,6.744974e-06,2,1
-0.0006632329,2.586868e-05,2,1
-0.0005975965,4.936815e-05,2,1
-0.0005112157,8.032264e-05,2,1
-0.0004292107,0.0001203528,2,1
-0.0003801049,0.0001662173,2,1
-0.000380267,0.0002114335,2,1
-0.0004339106,0.0002555152,2,1
-0.0005232086,0.0002940868,2,1
-0.0006152617,0.000319369,2,1
-0.0006734431,0.0003310377,2,1
-0.0006680949,0.0003323342,2,1
-0.0005836589,0.0003211517,2,1
-0.0004262935,0.0002955454,2,1
-0.000228898,0.0002611876,2,1
-3.587821e-05,0.0002321778,2,1
0.0001124116,0.000215161,2,1
0.0001902029,0.0002093267,2,1
0.0001932822,0.0002099749,2,1
0.0001312112,0.0002141886,2,1
2.586868e-05,0.0002185644,2,1
-8.595638e-05,0.000222616,2,1
-0.0001759026,0.0002255332,2,1
-0.0002321393,0.0002245608,2,1
-0.0002551526,0.0002234263,2,1
-0.000253694,0.0002231022,2,1
-0.0002368392,0.0002214815,2,1
-0.0002146363,0.0002159713,2,1
-0.00019924,0.0002043026,2,1
-0.0001997262,0.000185341,2,1
-0.0002217671,0.0001647587,2,1
-0.000266173,0.0001496866,2,1
-0.0003334301,0.0001461212,2,1
-0.0004185144,0.0001560072,2,1
-0.0005086227,0.0001791825,2,1
-0.0005820383,0.0002075439,2,1
-0.000618503,0.0002308813,2,1
-0.0006206098,0.0002383363,2,1
-0.0006069963,0.0002227781,2,1
-0.0005967862,0.0001859892,2,1
-0.0005953276,0.0001372076,2,1
-0.0005935449,8.42122e-05,2,1
-0.0005783107,3.13789e-05,2,1
-0.0005478425,-2.242678e-05,2,1
-0.0005071641,-8.40116e-05,2,1
-0.0004650271,-0.0001585616,2,1
-0.0004230522,-0.0002429977,2,1
-0.0003791325,-0.0003251648,2,1
-0.0003264613,-0.0003972838,2,1
-0.0002494803,-0.0004527101,2,1
-0.0001337657,-0.0004883645,2,1
2.700314e-05,-0.0005026262,2,1
0.0002265056,-0.000496954,2,1
0.000448211,-0.0004768579,2,1
0.000661327,-0.0004496309,2,1
0.0008227442,-0.0004177041,2,1
0.0008981046,-0.0003841565,2,1
0.0008789809,-0.0003579019,2,1
0.0007861174,-0.0003517435,2,1
0.0006546823,-0.0003742705,2,1
0.0005263265,-0.0004154351,2,1
0.0004378388,-0.0004595169,2,1
0.0004055878,-0.0004909576,2,1
0.0004216323,-0.0005016539,2,1
0.0004627969,-0.000489661,2,1
0.0004969927,-0.0004570859,2,1
0.0005000719,-0.0004110594,2,1
0.000463121,-0.0003593606,2,1
0.0003973225,-0.0003066893,2,1
0.0003171001,-0.0002553146,2,1
0.0002384984,-0.0002018331,2,1
0.0001623277,-0.0001460826,2,1
8.04847e-05,-9.033215e-05,2,1
-1.399939e-05,-4.284701e-05,2,1
-0.0001115627,-2.654814e-06,2,1
-0.0001906506,3.251336e-05,2,1
-0.0002185258,6.41161e-05,2,1
-0.0001686097,9.101894e-05,2,1
-3.652646e-05,0.0001158149,2,1
0.0001608691,0.0001423936,2,1
0.00040105,0.0001748067,2,1
0.0006543582,0.000217592,2,1
0.0008723363,0.0002681563,2,1
0.001005554,0.0003224483,2,1
0.001018519,0.0003777126,2,1
0.0009026425,0.00043087,2,1
0.0006752646,0.0004726828,2,1
0.0003770643,0.0004939134,2,1
6.46023e-05,0.0004913204,2,1
-0.0002063709,0.0004739794,2,1
-0.0004005251,0.0004503179,2,1
-0.0005052193,0.000428277,2,1
-0.0005222362,0.0004138531,2,1
-0.000467134,0.0004078567,2,1
-0.0003645466,0.0004078567,2,1
-0.0002504527,0.0004132049,2,1
-0.0001549962,0.0004195254,2,1
-8.741498e-05,0.0004266563,2,1
-3.733679e-05,0.0004360561,2,1
1.436204e-05,0.0004509661,2,1
7.513654e-05,0.0004709002,2,1
0.000133318,0.0004900239,2,1
0.0001551968,0.0004986133,2,1
0.0001104668,0.0004880791,2,1
-7.192643e-06,0.0004577728,2,1
-0.0001729855,0.0004136911,2,1
-0.000338292,0.0003624784,2,1
-0.0004402311,0.0003049452,2,1
-0.0004240246,0.0002388225,2,1
-0.0002595283,0.0001668655,2,1
6.508849e-05,9.199134e-05,2,1
0.0005389676,1.59827e-05,2,1
0.001111869,-6.326724e-05,2,1
0.001706164,-0.0001530514,2,1
0.002228826,-0.000263742,2,1
0.00258602,-0.0003998769,2,1
0.00271308,-0.0005528665,2,1
0.002600282,-0.0006940254,2,1
0.002294625,-0.0007919128,2,1
0.00186985,-0.0008233535,2,1
0.00140537,-0.0007932093,2,1
0.0009686031,-0.0007342176,2,1
0.0005979594,-0.0006839773,2,1
0.000299435,-0.0006646916,2,1
5.066468e-05,-0.000673281,2,1
-0.0001780095,-0.0006851118,2,1
-0.0004118697,-0.000673281,2,1
-0.0006601537,-0.0006259579,2,1
-0.0009111929,-0.0005447632,2,1
-0.001140515,-0.0004389346,2,1
-0.001318301,-0.0003228959,2,1
-0.001431747,-0.0002096122,2,1
-0.001489118,-0.0001128592,2,1
-0.001503866,-3.539201e-05,2,1
-0.00148928,2.700314e-05,2,1
-0.001456056,7.967438e-05,2,1
-0.001411975,0.0001211631,2,1
-0.00136611,0.0001425557,2,1
-0.001321056,0.0001316974,2,1
-0.001267899,9.101894e-05,2,1
-0.001192862,4.402e-05,2,1
-0.001090275,2.052053e-05,2,1
-0.0009646744,3.575467e-05,2,1
-0.0008165467,8.680524e-05,2,1
-0.0006321164,0.0001571416,2,1
-0.0003950149,0.0002260194,2,1
-0.0001104282,0.0002843629,2,1
0.0001911753,0.0003290929,2,1
0.0004627969,0.0003618301,2,1
0.0006475514,0.0003819262,2,1
0.0007033019,0.0003869503,2,1
0.0006394482,0.0003811159,2,1
0.0005136854,0.0003679886,2,1
0.0004042913,0.000349027,2,1
0.0003670162,0.0003213138,2,1
0.0004114222,0.0002773941,2,1
0.0005091476,0.0002140265,2,1
0.0006271312,0.0001406109,2,1
0.0007402529,7.351589e-05,2,1
0.0008300372,2.927205e-05,2,1
0.0008778464,1.760335e-05,2,1
0.0008571021,3.397195e-05,2,1
0.0007468975,6.492643e-05,2,1
0.0005514466,9.669123e-05,2,1
0.0003007315,0.0001229458,2,1
3.332369e-05,0.0001445005,2,1
-0.0002126914,0.0001673517,2,1
-0.000417542,0.0002005751,2,1
-0.0005776625,0.0002461155,2,1
-0.0006969426,0.0003002453,2,1
-0.0007773269,0.0003480546,2,1
-0.0008134675,0.0003757678,2,1
-0.0008013126,0.0003832228,2,1
-0.0007455621,0.0003765781,2,1
-0.0006549676,0.0003606957,2,1
-0.0005478425,0.0003354135,2,1
-0.0004489826,0.0003033245,2,1
-0.0003818876,0.0002670219,2,1
-0.0003577399,0.0002269918,2,1
-0.0003689224,0.0001889064,2,1
-0.0004029561,0.0001527658,2,1
-0.0004504412,0.0001166253,2,1
-0.0005060296,8.226741e-05,2,1
-0.0005651835,5.066468e-05,2,1
-0.0006202856,2.635488e-05,2,1
-0.0006575607,1.355172e-05,2,1
-0.000663395,9.986281e-06,2,1
-0.0006204477,1.209313e-05,2,1
-0.0005102433,2.01964e-05,2,1
-0.0003459091,3.267542e-05,2,1
-0.0001726613,4.82337e-05,2,1
-4.219875e-05,6.233338e-05,2,1
2.424803e-05,6.735741e-05,2,1
4.418206e-05,6.346784e-05,2,1
5.341979e-05,5.909208e-05,2,1
8.437427e-05,5.860588e-05,2,1
0.0001438522,5.844381e-05,2,1
0.000210137,4.515445e-05,2,1
0.0002514636,7.717366e-06,2,1
0.0002472499,-5.516398e-05,2,1
0.000190365,-0.000129714,2,1
9.101894e-05,-0.0001974573,2,1
-2.809907e-05,-0.0002439701,2,1
-0.0001386276,-0.0002681178,2,1
-0.0002201465,-0.0002780038,2,1
-0.000261149,-0.000286107,2,1
-0.000261149,-0.0002976137,2,1
-0.0002256567,-0.000310741,2,1
-0.0001634236,-0.0003251648,2,1
-8.692878e-05,-0.0003376438,2,1
-1.335113e-05,-0.000348016,2,1
3.867184e-05,-0.0003572537,2,1
6.346784e-05,-0.0003689224,2,1
6.217132e-05,-0.00038286,2,1
5.082674e-05,-0.0003942046,2,1
4.628891e-05,-0.0003987424,2,1
5.471631e-05,-0.0003943667,2,1
7.140904e-05,-0.0003801049,2,1
8.502253e-05,-0.0003522297,2,1
9.150514e-05,-0.0003121996,2,1
9.782569e-05,-0.0002669833,2,1
0.0001072255,-0.0002206326,2,1
0.0001167873,-0.0001789819,2,1
0.0001169494,-0.0001459206,2,1
0.0001007429,-0.0001188556,2,1
7.465034e-05,-9.2439e-05,2,1
5.228533e-05,-6.602235e-05,2,1
4.337174e-05,-4.252288e-05,2,1
4.709924e-05,-2.194059e-05,2,1
5.828175e-05,4.244267e-07,2,1
6.670914e-05,2.246531e-05,2,1
5.909208e-05,3.964424e-05,2,1
2.667901e-05,4.758544e-05,2,1
-2.907146e-05,4.77475e-05,2,1
-9.875954e-05,4.369587e-05,2,1
-0.0001624512,3.753739e-05,2,1
-0.0001985918,3.413401e-05,2,1
-0.0002028055,3.786152e-05,2,1
-0.0001878955,5.131294e-05,2,1
-0.000169258,7.659513e-05,2,1
-0.0001493239,0.0001104668,2,1
-0.0001114006,0.0001445005,2,1
-3.166451e-05,0.0001688103,2,1
9.037068e-05,0.0001825859,2,1
0.0002227781,0.0001874478,2,1
0.0003201794,0.0001892305,2,1
0.0003530786,0.000192958,2,1
0.0003250413,0.0002046267,2,1
0.0002662116,0.0002162954,2,1
0.000217592,0.0002240746,2,1
0.0002180782,0.0002312055,2,1
0.0002913317,0.0002362295,2,1
0.000433301,0.0002346088,2,1
0.0006109247,0.0002219677,2,1
0.0007744487,0.0001997648,2,1
0.0008759017,0.0001726999,2,1
0.0009010218,0.0001500107,2,1
0.0008771982,0.0001399627,2,1
0.0008515919,0.0001466074,2,1
0.0008608295,0.0001647587,2,1
0.0009203076,0.0001882582,2,1
0.001019816,0.0002086784,2,1
0.001120134,0.0002256952,2,1
0.001166161,0.0002404432,2,1
0.001117217,0.0002525981,2,1
0.000970548,0.000257298,2,1
0.0007572698,0.0002503292,2,1
0.0005308643,0.0002305572,2,1
0.0003354135,0.0002067336,2,1
0.0001960373,0.0001843686,2,1
0.0001231079,0.000170431,2,1
0.0001166253,0.0001696206,2,1
0.0001665414,0.0001799928,2,1
0.0002451431,0.0001949028,2,1
0.0003062417,0.0002021958,2,1
0.0002929524,0.0001944166,2,1
0.0001735102,0.0001676758,2,1
-3.571614e-05,0.0001260251,2,1
-0.0002804347,7.481241e-05,2,1
-0.0005055434,2.100672e-05,2,1
-0.0006771705,-3.053005e-05,2,1
-0.0007896438,-7.785312e-05,2,1
-0.0008531735,-0.0001227452,2,1
-0.0008800763,-0.0001679614,2,1
-0.0008692179,-0.0002185258,2,1
-0.000814764,-0.0002721694,2,1
-0.000720442,-0.0003238683,2,1
-0.0006044033,-0.0003689224,2,1
-0.00048723,-0.0004032803,2,1
-0.0003836704,-0.0004288866,2,1
-0.0002951827,-0.000447362,2,1
-0.0002162569,-0.0004601652,2,1
-0.0001384655,-0.0004695649,2,1
-6.0188e-05,-0.0004757234,2,1
2.084466e-05,-0.000474589,2,1
0.0001023635,-0.0004608134,2,1
0.0001744826,-0.0004284004,2,1
0.0002205092,-0.0003779981,2,1
0.0002282883,-0.0003162512,2,1
0.0002034923,-0.0002543422,2,1
0.0001568175,-0.0002002124,2,1
9.814982e-05,-0.0001587237,2,1
3.786152e-05,-0.0001336036,2,1
-1.497178e-05,-0.0001243659,2,1
-5.532604e-05,-0.0001235555,2,1
-7.493595e-05,-0.0001224211,2,1
-6.91016e-05,-0.0001131834,2,1
-4.05781e-05,-9.66527e-05,2,1
2.531276e-06,-7.574627e-05,2,1
5.131294e-05,-5.516398e-05,2,1
8.74535e-05,-3.717473e-05,2,1
9.63671e-05,-2.113026e-05,2,1
7.286763e-05,-5.57199e-06,2,1
1.938607e-05,1.095867e-05,2,1
-6.683268e-05,2.781346e-05,2,1
-0.000191623,4.693717e-05,2,1
-0.0003557951,6.622294e-05,2,1
-0.0005369841,8.46984e-05,2,1
-0.0006922426,0.0001007429,2,1
-0.0007855922,0.0001177597,2,1
-0.0008013126,0.0001380179,2,1
-0.0007507482,0.0001621656,2,1
-0.0006575607,0.0001872858,2,1
-0.00053666,0.0002060853,2,1
-0.000380267,0.0002159713,2,1
-0.0001652063,0.0002187264,2,1
0.0001326697,0.0002195368,2,1
0.0005000719,0.0002214815,2,1
0.0008854635,0.0002284504,2,1
0.00121705,0.000237526,2,1
0.001434218,0.0002478982,2,1
0.00150034,0.0002584324,2,1
0.001415094,0.0002654013,2,1
0.001217212,0.000262322,2,1
0.0009653618,0.0002469258,2,1
0.0007115673,0.0002218057,2,1
0.000490348,0.0001958752,2,1
0.0003120761,0.0001761032,2,1
0.0001637863,0.000163138,2,1
2.684107e-05,0.0001470936,2,1
-0.0001115627,0.000125863,2,1
-0.0002455907,0.0001022015,2,1
-0.0003614674,8.46984e-05,2,1
-0.0004481723,8.032264e-05,2,1
-0.0005003574,8.939829e-05,2,1
-0.0005254775,0.000108522,2,1
-0.0005386047,0.0001286181,2,1
-0.0005484907,0.0001451488,2,1
-0.0005535148,0.0001558451,2,1
-0.0005546492,0.0001610312,2,1
-0.0005559457,0.0001602208,2,1
-0.0005627525,0.0001535762,2,1
-0.0005779866,0.0001462832,2,1
-0.000603593,0.0001443384,2,1
-0.0006381128,0.0001519555,2,1
-0.000678305,0.0001654069,2,1
-0.0007194696,0.0001728619,2,1
-0.0007543136,0.0001649207,2,1
-0.0007698719,0.0001445005,2,1
-0.0007523688,0.0001180839,2,1
-0.0006946736,8.79397e-05,2,1
-0.0006113721,5.61749e-05,2,1
-0.000534229,2.424803e-05,2,1
-0.0004912817,-5.409925e-06,2,1
-0.0004980884,-2.761287e-05,2,1
-0.000549139,-3.814712e-05,2,1
-0.0006189891,-3.490581e-05,2,1
-0.000675874,-2.031993e-05,2,1
-0.0006834911,9.106227e-07,2,1
-0.0006066722,2.181705e-05,2,1
-0.0004288866,4.077869e-05,2,1
-0.0001807646,5.277153e-05,2,1
6.476436e-05,5.001642e-05,2,1
0.0002397949,2.862379e-05,2,1
0.000309483,-8.489166e-06,2,1
0.0002760976,-5.095028e-05,2,1
0.0001723757,-9.098041e-05,2,1
4.645098e-05,-0.0001238797,2,1
-6.213279e-05,-0.0001496481,2,1
-0.0001305243,-0.0001689338,2,1
-0.0001454344,-0.0001807646,2,1
-0.0001083214,-0.0001846542,2,1
-3.069211e-05,-0.0001856265,2,1
6.508849e-05,-0.0001900023,2,1
0.0001508211,-0.0002036158,2,1
0.0001984683,-0.0002303566,2,1
0.0001973338,-0.0002668213,2,1
0.0001576278,-0.0003071755,2,1
0.0001025256,-0.0003454229,2,1
6.881599e-05,-0.0003762153,2,1
8.583286e-05,-0.0003955011,2,1
0.0001526038,-0.0004078181,2,1
0.000250005,-0.0004186764,2,1
0.0003521062,-0.0004309934,2,1
0.000435894,-0.0004363416,2,1
0.0004827309,-0.0004198109,2,1
0.0004832171,-0.0003664914,2,1
0.0004394595,-0.0002746004,2,1
0.0003621543,-0.0001517549,2,1
0.0002650771,-1.432352e-05,2,1
0.0001667035,0.0001161391,2,1
8.113296e-05,0.0002195368,2,1
1.630683e-05,0.0002864697,2,1
-2.615429e-05,0.0003158036,2,1
-5.030202e-05,0.0003185587,2,1
-4.90055e-05,0.0003091589,2,1
-2.978945e-06,0.0002960316,2,1
0.0001127357,0.0002798251,2,1
0.0002953834,0.0002564877,2,1
0.00051012,0.0002192126,2,1
0.0007144845,0.0001616794,2,1
0.0008674743,9.085688e-05,2,1
0.0009418624,1.873781e-05,2,1
0.000926304,-3.895745e-05,2,1
0.0008318199,-6.942573e-05,2,1
0.0006940642,-6.504996e-05,2,1
0.0005576051,-3.134038e-05,2,1
0.0004569625,1.711715e-05,2,1
0.0004086671,7.173317e-05,2,1
0.0004067223,0.0001292664,2,1
0.0004365423,0.0001869616,2,1
0.0004846757,0.0002396328,2,1
0.0005511225,0.000279663,2,1
0.0006493342,0.0003007315,2,1
0.0007909794,0.000302028,2,1
0.000958231,0.0002911697,2,1
0.001097121,0.0002678322,2,1
0.001147199,0.0002239125,2,1
0.00107038,0.0001566554,2,1
0.0008755776,7.610894e-05,2,1
0.0006031455,-8.975362e-06,2,1
0.0003021901,-9.179074e-05,2,1
1.257933e-05,-0.0001700683,2,1
-0.0002399184,-0.0002384598,2,1
-0.0004400691,-0.0002882139,2,1
-0.0005797693,-0.0003151167,2,1
-0.000653347,-0.000318196,2,1
-0.0006548056,-0.0003040963,2,1
-0.000583983,-0.0002883759,2,1
-0.0004689167,-0.0002848105,2,1
-0.0003609812,-0.0002966413,2,1
-0.0003112272,-0.0003190063,2,1
-0.0003391024,-0.0003434782,2,1
-0.0004340726,-0.0003608192,2,1
-0.0005587008,-0.0003611433,2,1
-0.0006650157,-0.0003335922,2,1
-0.0007240074,-0.0002731418,2,1
-0.000730328,-0.0001840059,2,1
-0.0006977529,-7.769106e-05,2,1
-0.0006471885,3.040651e-05,2,1
-0.0006040792,0.0001279698,2,1
-0.0005831727,0.0002060853,2,1
-0.0005851175,0.0002576221,2,1
-0.0005932208,0.0002718839,2,1
-0.0005894933,0.0002491947,2,1
-0.0005642111,0.0002047888,2,1
-0.0005238568,0.0001568175,2,1
-0.0004875542,0.0001193804,2,1
-0.0004703753,9.717743e-05,2,1
-0.0004762096,9.101894e-05,2,1
-0.0004964678,9.377406e-05,2,1
-0.0005117019,9.912221e-05,2,1
-0.0005058676,0.0001086841,2,1
-0.0004705373,0.0001252147,2,1
-0.000405063,0.0001498487,2,1
-0.0003151167,0.0001803169,2,1
-0.0002078295,0.0002114335,2,1
-9.130454e-05,0.000237526,2,1
2.197911e-05,0.0002547049,2,1
0.0001150046,0.000264753,2,1
0.0001720516,0.0002705873,2,1
0.0001979821,0.0002730183,2,1
0.0002065715,0.0002699391,2,1
0.0002190506,0.0002553532,2,1
0.0002537325,0.0002213195,2,1
0.0003146691,0.0001644345,2,1
0.0003872744,8.761557e-05,2,1
0.0004590694,1.720949e-06,2,1
0.0005319988,-8.547019e-05,2,1
0.0006209727,-0.0001733096,2,1
0.0007255049,-0.0002601766,2,1
0.0008160995,-0.0003361852,2,1
0.0008499712,-0.0003859393,2,1
0.0008019998,-0.0003979321,2,1
0.0006833679,-0.000370543,2,1
0.0005311884,-0.0003102548,2,1
0.00038614,-0.0002277635,2,1
0.0002728562,-0.000122097,2,1
0.0001924718,1.501031e-05,2,1
0.0001321835,0.0001798307,2,1
7.30297e-05,0.0003493511,2,1
-3.303076e-06,0.0004919686,2,1
-0.0001003802,0.0005802943,2,1
-0.0002019951,0.0006031455,2,1
-0.0002877277,0.0005684635,2,1
-0.0003535262,0.0004976409,2,1
-0.0004060354,0.0004166082,2,1
-0.0004557894,0.0003452995,2,1
-0.0005076503,0.0002884145,2,1
-0.0005562698,0.0002457913,2,1
-0.0005885208,0.0002115956,2,1
-0.0006008379,0.0001811273,2,1
-0.0006006758,0.0001547106,2,1
-0.0005964621,0.0001368834,2,1
-0.0005930586,0.000130725,2,1
-0.000591276,0.0001326697,2,1
-0.0005893312,0.0001368834,2,1
-0.0005846313,0.0001352628,2,1
-0.000574097,0.0001239182,2,1
-0.0005577285,0.0001020394,2,1
-0.0005296912,7.351589e-05,2,1
-0.0004788027,4.677511e-05,2,1
-0.0003909633,2.76514e-05,2,1
-0.0002634179,1.630683e-05,2,1
-0.0001057284,5.286387e-06,2,1
6.735741e-05,-1.140634e-05,2,1
0.0002380122,-3.279896e-05,2,1
0.0003981328,-5.370539e-05,2,1
0.000562143,-6.650855e-05,2,1
0.0007606731,-6.91016e-05,2,1
0.00100053,-6.245691e-05,2,1
0.001246059,-4.981582e-05,2,1
0.001436486,-3.63644e-05,2,1
0.001508606,-2.388537e-05,2,1
0.001429031,-1.20546e-05,2,1
0.001215105,-1.358292e-06,2,1
0.0009280868,6.096713e-06,2,1
0.000648848,6.582909e-06,2,1
0.0004402698,-1.520357e-06,2,1
0.0003295791,-2.129233e-05,2,1
0.0003023522,-5.192267e-05,2,1
0.0003211517,-9.000802e-05,2,1
0.0003436788,-0.0001285796,2,1
0.0003355756,-0.0001608306,2,1
0.0002890628,-0.0001862748,2,1
0.000210137,-0.0002084778,2,1
0.0001279698,-0.0002297083,2,1
7.805372e-05,-0.0002489941,2,1
7.708133e-05,-0.0002645523,2,1
0.0001098185,-0.0002771934,2,1
0.000145797,-0.0002898345,2,1
0.000170431,-0.0003039342,2,1
0.0002057612,-0.0003147926,2,1
0.000289387,-0.000318358,2,1
0.0004313562,-0.0003112272,2,1
0.0006015248,-0.0002887001,2,1
0.0007464114,-0.0002528836,2,1
0.0008183684,-0.0002113949,2,1
0.0007947069,-0.0001710407,2,1
0.0006838542,-0.0001374932,2,1
0.0005096338,-0.0001136696,2,1
0.0002953834,-9.66527e-05,2,1
5.925414e-05,-8.093236e-05,2,1
-0.0001754164,-6.035007e-05,2,1
-0.0003734602,-3.377136e-05,2,1
-0.0005027883,-7.192643e-06,2,1
-0.0005512458,1.484824e-05,2,1
-0.0005261258,2.992031e-05,2,1
-0.0004394208,4.094075e-05,2,1
-0.0003096065,5.082674e-05,2,1
-0.0001687718,6.087479e-05,2,1
-5.581224e-05,7.076078e-05,2,1
-5.085794e-06,7.108491e-05,2,1
-3.63644e-05,5.585077e-05,2,1
-0.0001407345,2.846173e-05,2,1
-0.0002898345,-2.492749e-06,2,1
-0.0004386105,-2.275091e-05,2,1
-0.000551732,-2.145439e-05,2,1
-0.0006176926,1.720949e-06,2,1
-0.0006452437,3.996837e-05,2,1
-0.0006528608,8.04847e-05,2,1
-0.0006575607,0.0001161391,2,1
-0.0006729569,0.0001414213,2,1
-0.0007069906,0.0001561692,2,1
-0.0007525309,0.0001633001,2,1
-0.0007959644,0.0001696206,2,1
-0.0008290258,0.0001785342,2,1
-0.0008450702,0.0001885823,2,1
-0.000844422,0.0001989545,2,1
-0.0008236776,0.0002047888,2,1
-0.000777651,0.000202844,2,1
-0.0006987253,0.0001942546,2,1
-0.0005854416,0.0001835583,2,1
-0.0004459034,0.0001752929,2,1
-0.0003074997,0.000170593,2,1
-0.0002078295,0.0001671896,2,1
-0.0001716889,0.000160707,2,1
-0.0001995642,0.0001490383,2,1
-0.0002668213,0.0001321835,2,1
-0.0003342404,0.0001122495,2,1
-0.0003731361,8.923623e-05,2,1
-0.0003788084,6.508849e-05,2,1
-0.000362926,4.207521e-05,2,1
-0.0003514194,2.473423e-05,2,1
-0.0003613053,1.484824e-05,2,1
-0.0003995528,1.12828e-05,2,1
-0.0004527101,7.555301e-06,2,1
-0.0005003574,-2.238346e-07,2,1
-0.0005248293,-1.464765e-05,2,1
-0.000514457,-3.312309e-05,2,1
-0.0004742648,-5.338126e-05,2,1
-0.000417542,-7.396356e-05,2,1
-0.0003559572,-9.130454e-05,2,1
-0.0002916173,-0.0001055663,2,1
-0.0002222533,-0.0001159385,2,1
-0.0001504584,-0.0001217728,2,1
-8.935975e-05,-0.0001285796,2,1
-5.354332e-05,-0.0001394379,2,1
-3.571614e-05,-0.0001530514,2,1
-8.327101e-06,-0.0001598582,2,1
6.346784e-05,-0.0001564548,2,1
0.0002109473,-0.000144624,2,1
0.0004451317,-0.000129714,2,1
0.0007337703,-0.0001152902,2,1
0.001010578,-0.0001076731,2,1
0.001200195,-0.000107349,2,1
0.00124687,-0.0001120489,2,1
0.001137638,-0.0001177212,2,1
0.000903939,-0.0001237176,2,1
0.0006055765,-0.0001267968,2,1
0.0003085106,-0.0001274451,2,1
6.103686e-05,-0.000129714,2,1
-0.0001125351,-0.0001365208,2,1
-0.0002117191,-0.0001442999,2,1
-0.0002525595,-0.0001498101,2,1
-0.0002635799,-0.0001553203,2,1
-0.0002624455,-0.0001618029,2,1
-0.0002566112,-0.0001684476,2,1
-0.000246401,-0.0001721751,2,1
-0.0002310048,-0.0001700683,2,1
-0.0002057227,-0.0001613168,2,1
-0.0001773612,-0.0001472171,2,1
-0.0001493239,-0.000129714,2,1
-0.0001206384,-0.0001125351,2,1
-8.271508e-05,-9.940781e-05,2,1
-2.42095e-05,-8.757704e-05,2,1
6.800567e-05,-7.461182e-05,2,1
0.000195389,-5.565017e-05,2,1
0.0003438409,-2.46957e-05,2,1
0.0004934272,1.452411e-05,2,1
0.0006243761,5.61749e-05,2,1
0.0007250187,9.571884e-05,2,1
0.0007844968,0.0001287802,2,1
0.0007935724,0.0001514693,2,1
0.0007538663,0.0001623277,2,1
0.0006798024,0.0001654069,2,1
0.0005906665,0.0001668655,2,1
0.0005063924,0.0001720516,2,1
0.0004376768,0.0001822617,2,1
0.0003869503,0.0001965235,2,1
0.0003478926,0.0002109473,2,1
0.0003145071,0.0002206712,2,1
0.0002775562,0.0002255332,2,1
0.0002266676,0.0002240746,2,1
0.0001610312,0.0002164575,2,1
8.696731e-05,0.0002078681,2,1
1.079661e-05,0.0002010613,2,1
-5.581224e-05,0.0001963614,2,1
-0.0001067007,0.0001966855,2,1
-0.0001517549,0.0002057612,2,1
-0.0002078295,0.0002211574,2,1
-0.0002807589,0.000237526,2,1
-0.0003600088,0.0002478982,2,1
-0.0004267797,0.000250005,2,1
-0.0004585445,0.000247412,2,1
-0.0004387725,0.0002435224,2,1
-0.0003601709,0.000237526,2,1
-0.0002379736,0.0002279642,2,1
-9.308726e-05,0.0002133783,2,1
6.217132e-05,0.000192958,2,1
0.0002174299,0.0001673517,2,1
0.0003577785,0.0001396385,2,1
0.0004744656,0.0001124116,2,1
0.0005733255,8.486046e-05,2,1
0.0006652166,5.56887e-05,2,1
0.0007613214,2.586868e-05,2,1
0.0008606675,-5.085794e-06,2,1
0.0009366762,-3.21507e-05,2,1
0.0009504518,-5.208474e-05,2,1
0.0008828705,-5.629844e-05,2,1
0.0007533802,-4.106429e-05,2,1
0.0006101143,-1.140634e-05,2,1
0.0004965065,2.165498e-05,2,1
0.0004307079,4.855783e-05,2,1
0.000398619,6.719535e-05,2,1
0.0003781987,8.275361e-05,2,1
0.000356482,0.000101067,2,1
0.0003266619,0.0001224596,2,1
0.0002817699,0.0001461212,2,1
0.0002162954,0.000170593,2,1
0.000130887,0.0001936063,2,1
3.737532e-05,0.0002125679,2,1
-4.106429e-05,0.0002213195,2,1
-8.628052e-05,0.0002143507,2,1
-8.952183e-05,0.0001893926,2,1
-4.560212e-05,0.0001480659,2,1
3.883391e-05,8.729144e-05,2,1
0.0001495245,6.420843e-06,2,1
0.0002713977,-8.838737e-05,2,1
0.0003901916,-0.0001893541,2,1
0.0004929411,-0.0002875656,2,1
0.0005610085,-0.000375405,2,1
0.0005760806,-0.0004480103,2,1
0.0005310264,-0.0005045711,2,1
0.0004365423,-0.000546546,2,1
0.0003179104,-0.0005766901,2,1
0.0001994406,-0.0005969483,2,1
8.502253e-05,-0.000608617,2,1
-4.106429e-05,-0.0006149375,2,1
-0.0001982676,-0.0006197995,2,1
-0.0003784843,-0.0006197995,2,1
-0.0005559457,-0.0006107238,2,1
-0.0006967805,-0.0005886829,2,1
-0.0007885094,-0.0005463839,2,1
-0.000842153,-0.0004753993,2,1
-0.0008747282,-0.0003713534,2,1
-0.0008964449,-0.0002433218,2,1
-0.0008977414,-0.0001165867,2,1
-0.0008641939,-1.010982e-05,2,1
-0.0007881853,6.719535e-05,2,1
-0.0006656639,0.0001171115,2,1
-0.000504409,0.0001472556,2,1
-0.000333106,0.0001650828,2,1
-0.0002021572,0.0001783722,2,1
-0.0001514308,0.0001906891,2,1
-0.0001869231,0.0002007372,2,1
-0.0002747625,0.0002073819,2,1
-0.0003634122,0.0002098128,2,1
-0.0004188385,0.0002067336,2,1
-0.0004356933,0.0001981441,2,1
-0.0004331002,0.0001832341,2,1
-0.0004363416,0.0001618415,2,1
-0.0004585445,0.0001362352,2,1
-0.0004948471,0.0001154908,2,1
-0.0005339049,0.000103498,2,1
-0.0005646973,9.993253e-05,2,1
-0.0005809038,0.0001072255,2,1
-0.0005818762,0.0001281319,2,1
-0.0005653456,0.0001616794,2,1
-0.0005368221,0.0002017096,2,1
-0.0005035987,0.000232502,2,1
-0.0004728062,0.0002467637,2,1
-0.0004489826,0.000254867,2,1
-0.0004280762,0.0002678322,2,1
-0.000400039,0.0002986247,2,1
-0.0003617915,0.000351458,2,1
-0.0003227338,0.000418391,2,1
-0.0002912931,0.0004837033,2,1
-0.0002723315,0.0005334574,2,1
-0.0002652006,0.0005593878,2,1
-0.000263742,0.0005540397,2,1
-0.0002617972,0.0005068787,2,1
-0.0002577456,0.0004157979,2,1
-0.0002509389,0.0002913317,2,1
-0.0002402425,0.0001561692,2,1
-0.0002246843,2.910999e-05,2,1
-0.0002037779,-8.125649e-05,2,1
-0.0001853024,-0.0001731475,2,1
-0.000186761,-0.0002523975,2,1
-0.0002292221,-0.0003201407,2,1
-0.0003277578,-0.0003723258,2,1
-0.0004742648,-0.00039777,2,1
-0.0006304958,-0.0003848048,2,1
-0.0007441035,-0.0003303509,2,1
-0.0007697099,-0.0002467252,2,1
-0.0006890013,-0.0001501342,2,1
-0.0005165638,-5.840528e-05,2,1
-0.0002896725,2.068259e-05,2,1
-4.770897e-05,8.340187e-05,2,1
0.0001759412,0.0001310491,2,1
0.0003561579,0.0001652449,2,1
0.0004700898,0.0001872858,2,1
0.0005063924,0.0001949028,2,1
0.0004756001,0.0001793446,2,1
0.0004125566,0.0001325077,2,1
0.0003519442,5.860588e-05,2,1
0.0003200173,-3.231277e-05,2,1
0.0003381686,-0.0001242038,2,1
0.0004052637,-0.0002110708,2,1
0.0005037994,-0.0002893484,2,1
0.0006075213,-0.0003525538,2,1
0.0006866092,-0.0003982562,2,1
0.0007253428,-0.0004269418,2,1
0.0007316634,-0.0004471999,2,1
0.0007323117,-0.0004728062,2,1
0.0007551629,-0.0005162397,2,1
0.0008115617,-0.0005744212,2,1
0.0008776844,-0.0006251476,2,1
0.0009199835,-0.0006411921,2,1
0.0009177146,-0.0006016482,2,1
0.0008677984,-0.0005040849,2,1
0.0007796348,-0.0003660052,2,1
0.0006734819,-0.0002151224,2,1
0.0005681394,-8.109443e-05,2,1
0.0004738173,1.857574e-05,2,1
0.0003875985,8.42122e-05,2,1
0.000304297,0.000125863,2,1
0.0002239125,0.0001524417,2,1
0.0001470936,0.0001757791,2,1
7.270556e-05,0.0002094887,2,1
-9.623623e-06,0.0002577842,2,1
-0.0001070249,0.0003132105,2,1
-0.000219012,0.000363937,2,1
-0.0003322956,0.0004020224,2,1
-0.000430021,0.0004224426,2,1
-0.0005001953,0.0004250357,2,1
-0.0005253154,0.0004140152,2,1
-0.0004951713,0.0003952156,2,1
-0.0004134903,0.0003770643,2,1
-0.0003050687,0.0003637749,2,1
-0.0002028055,0.0003587509,2,1
-0.0001248521,0.0003624784,2,1
-6.926366e-05,0.0003760919,2,1
-1.140634e-05,0.0003973225,2,1
7.708133e-05,0.0004192013,2,1
0.0001997648,0.000440756,2,1
0.0003250413,0.0004576108,2,1
0.0004119083,0.0004670106,2,1
0.0004349216,0.0004678209,2,1
0.0003958639,0.0004624728,2,1
0.0003256896,0.000450642,2,1
0.0002600531,0.0004305459,2,1
0.0002224539,0.000401212,2,1
0.0002162954,0.0003658818,2,1
0.0002308813,0.0003323342,2,1
0.000252436,0.0003028383,2,1
0.0002757735,0.0002728562,2,1
0.0003125623,0.000237526,2,1
0.0003940812,0.000192958,2,1
0.0005554983,0.0001438522,2,1
0.0008164236,9.328786e-05,2,1
0.001150603,4.564065e-05,2,1
0.001493372,4.962256e-06,2,1
0.001765966,-2.534396e-05,2,1
0.001910043,-4.608832e-05,2,1
0.001921387,-5.856735e-05,2,1
0.00183533,-6.229485e-05,2,1
0.00169644,-5.613637e-05,2,1
0.001540046,-4.43056e-05,2,1
0.001379926,-3.604027e-05,2,1
0.001205867,-3.879538e-05,2,1
0.000992913,-5.2733e-05,2,1
0.0007222636,-7.509801e-05,2,1
0.0004005638,-0.0001002181,2,1
5.94162e-05,-0.0001253383,2,1
-0.0002436459,-0.0001509446,2,1
-0.0004491447,-0.000176713,2,1
-0.000544115,-0.0002002124,2,1
-0.0005640491,-0.0002183637,2,1
-0.0005766901,-0.0002298704,2,1
-0.0006442713,-0.0002360289,2,1
-0.0007891576,-0.0002376495,2,1
-0.0009880118,-0.0002379736,2,1
-0.001192862,-0.0002439701,2,1
-0.001354603,-0.0002579077,2,1
-0.001444226,-0.0002757348,2,1
-0.001468211,-0.0002890242,2,1
-0.001455246,-0.0002934,2,1
-0.001430612,-0.0002916173,2,1
-0.001404358,-0.0002898345,2,1
-0.001376969,-0.0002908069,2,1
-0.001337425,-0.0002963172,2,1
-0.001270168,-0.0003027998,2,1
-0.001167904,-0.0003063652,2,1
-0.00103728,-0.0003060411,2,1
-0.0009021172,-0.0002992343,2,1
-0.0007946679,-0.0002877277,2,1
-0.0007382692,-0.0002765452,2,1
-0.0007342176,-0.000273628,2,1
-0.0007517206,-0.0002767073,2,1
-0.0007426449,-0.0002815692,2,1
-0.0006740913,-0.0002802727,2,1
-0.0005457356,-0.0002677937,2,1
-0.0003911253,-0.0002420253,2,1
-0.0002603387,-0.0002032917,2,1
-0.0001865989,-0.0001598582,2,1
-0.0001728234,-0.0001193418,2,1
-0.0001977815,-8.741498e-05,2,1
-0.0002298704,-6.504996e-05,2,1
-0.0002355427,-4.819517e-05,2,1
-0.0002003745,-2.874733e-05,2,1
-0.000137169,-4.113403e-06,2,1
-7.850138e-05,2.278944e-05,2,1
-4.997789e-05,4.645098e-05,2,1
-5.078821e-05,6.703327e-05,2,1
-5.613637e-05,8.275361e-05,2,1
-3.085418e-05,9.733949e-05,2,1
5.066468e-05,0.0001171115,2,1
0.0001921477,0.0001469315,2,1
0.0003762539,0.0001837203,2,1
0.000574622,0.000220185,2,1
0.0007446287,0.0002495189,2,1
0.0008511057,0.0002676702,2,1
0.0008911358,0.0002728562,2,1
0.0008818981,0.0002683184,2,1
0.0008541849,0.0002611876,2,1
0.0008436506,0.0002589186,2,1
0.0008794671,0.0002628082,2,1
0.0009499656,0.0002696149,2,1
0.001008633,0.0002712356,2,1
0.001004582,0.0002594049,2,1
0.0009076665,0.0002363916,2,1
0.0007251808,0.0002070577,2,1
0.0004952099,0.0001791825,2,1
0.0002655633,0.000158114,2,1
6.865393e-05,0.0001493625,2,1
-8.676672e-05,0.0001519555,2,1
-0.0002088019,0.0001589243,2,1
-0.0003071755,0.0001621656,2,1
-0.0003724878,0.0001526038,2,1
-0.0003891806,0.0001302388,2,1
-0.0003591985,0.0001022015,2,1
-0.0003139823,7.999851e-05,2,1
-0.0002934,6.525056e-05,2,1
-0.0003113892,5.844381e-05,2,1
-0.0003608192,6.087479e-05,2,1
-0.0004292107,7.189524e-05,2,1
-0.0005073262,8.275361e-05,2,1
-0.0005901415,8.712937e-05,2,1
-0.0006706879,8.080883e-05,2,1
-0.0007382692,6.233338e-05,2,1
-0.0007854302,3.348575e-05,2,1
-0.0008113607,-7.100305e-07,2,1
-0.0008350222,-3.668853e-05,2,1
-0.0008786177,-6.877746e-05,2,1
-0.0009483058,-9.227693e-05,2,1
-0.001031931,-0.0001052422,2,1
-0.001109885,-0.0001133454,2,1
-0.001160935,-0.0001253383,2,1
-0.001168877,-0.0001496481,2,1
-0.001126254,-0.000186761,2,1
-0.00103809,-0.0002297083,2,1
-0.0009210788,-0.0002681178,2,1
-0.0007919128,-0.0002950206,2,1
-0.0006614503,-0.0003065273,2,1
-0.0005374703,-0.00030831,2,1
-0.0004136524,-0.0003078238,2,1
-0.0002823795,-0.000305879,2,1
-0.0001410586,-0.0002934,2,1
5.448452e-06,-0.0002619593,2,1
0.0001480659,-0.000221443,2,1
0.0002718839,-0.0001904885,2,1
0.000371392,-0.00018433,2,1
0.0004501558,-0.0002018331,2,1
0.0005185474,-0.0002331117,2,1
0.0005757565,-0.000263742,2,1
0.0006178935,-0.0002797865,2,1
0.0006537099,-0.0002733039,2,1
0.0007060571,-0.0002425115,2,1
0.0007859553,-0.0001877334,2,1
0.000889029,-0.0001115627,2,1
0.001001827,-2.518189e-05,2,1
0.001108142,5.552663e-05,2,1
0.001183502,0.0001188942,2,1
0.001193712,0.0001654069,2,1
0.001122727,0.000200251,2,1
0.0009810822,0.000225047,2,1
0.0008086445,0.0002367157,2,1
0.0006520892,0.0002321778,2,1
0.000539778,0.0002112714,2,1
0.000478031,0.0001791825,2,1
0.0004584211,0.000143204,2,1
0.0004627969,0.0001069013,2,1
0.0004696036,7.286763e-05,2,1
0.0004676588,4.531652e-05,2,1
0.0004503179,2.684107e-05,2,1
0.0004229288,1.906194e-05,2,1
0.0003950536,2.003433e-05,2,1
0.0003725265,2.943412e-05,2,1
0.0003534027,4.385793e-05,2,1
0.0003277964,6.168512e-05,2,1
0.0002863077,8.178122e-05,2,1
0.0002282883,0.0001065772,2,1
0.0001571416,0.0001349386,2,1
7.772959e-05,0.0001663793,2,1
-6.176923e-08,0.000200251,2,1
-6.586029e-05,0.0002344468,2,1
-0.0001143178,0.0002666978,2,1
-0.0001387897,0.0002931144,2,1
-0.0001350622,0.0003023522,2,1
-0.0001042698,0.0002908455,2,1
-5.32192e-05,0.0002654013,2,1
3.989864e-06,0.0002384984,2,1
5.179914e-05,0.0002218057,2,1
7.691926e-05,0.0002180782,2,1
7.497447e-05,0.000220185,2,1
4.693717e-05,0.0002235884,2,1
-4.599598e-06,0.0002235884,2,1
-7.299116e-05,0.0002167816,2,1
-0.0001535376,0.0002049509,2,1
-0.0002374874,0.0001947408,2,1
-0.00030831,0.0001876099,2,1
-0.0003481781,0.0001817755,2,1
-0.0003447747,0.0001757791,2,1
-0.0003045825,0.0001696206,2,1
-0.0002498044,0.0001623277,2,1
-0.0002097743,0.0001547106,2,1
-0.0002078295,0.000145797,2,1
-0.0002496423,0.0001373696,2,1
-0.0003180339,0.0001299146,2,1
-0.0003841565,0.0001211631,2,1
-0.0004296969,0.0001090082,2,1
-0.000457248,8.858796e-05,2,1
-0.0004776682,5.163707e-05,2,1
-0.0004979264,-1.156841e-05,2,1
-0.00051705,-0.0001060525,2,1
-0.0005251534,-0.0002248464,2,1
-0.0005138087,-0.0003507711,2,1
-0.0004802613,-0.0004587066,2,1
-0.0004415277,-0.0005269361,2,1
-0.0004172179,-0.0005460597,2,1
-0.0004164075,-0.0005212637,2,1
-0.0004379622,-0.0004663236,2,1
-0.0004718339,-0.0003993907,2,1
-0.0004980884,-0.0003339163,2,1
-0.0004954954,-0.000278652,2,1
-0.0004412035,-0.0002344082,2,1
-0.0003081479,-0.0001977815,2,1
-7.882551e-05,-0.0001639098,2,1
0.0002229401,-0.0001313347,2,1
0.0005277851,-9.875954e-05,2,1
0.0007473837,-6.91016e-05,2,1
0.0008195029,-4.38194e-05,2,1
0.0007319876,-2.453363e-05,2,1
0.0005292437,-9.461558e-06,2,1
0.0002851732,6.420843e-06,2,1
6.930219e-05,2.927205e-05,2,1
-5.64605e-05,5.860588e-05,2,1
-3.150244e-05,8.923623e-05,2,1
0.0001911753,0.0001114392,2,1
0.0006169211,0.0001203528,2,1
0.001181719,0.0001161391,2,1
0.001757215,9.426025e-05,2,1
0.002197548,5.552663e-05,2,1
0.002407261,1.274139e-05,2,1
0.00237112,-1.886135e-05,2,1
0.002138231,-2.809907e-05,2,1
0.001797569,-1.092015e-05,2,1
0.001456907,2.538249e-05,2,1
0.001210729,7.076078e-05,2,1
0.001106521,0.0001158149,2,1
0.001117055,0.0001566554,2,1
0.001171509,0.0001950649,2,1
0.001205543,0.0002318537,2,1
0.001185123,0.0002657254,2,1
0.001110248,0.0002984626,2,1
0.0009980991,0.0003274723,2,1
0.0008613158,0.0003488649,2,1
0.0006981159,0.0003603715,2,1
0.0005049339,0.000363937,2,1
0.0002989488,0.0003569682,2,1
0.0001197045,0.0003363859,2,1
1.274139e-05,0.0003007315,2,1
-3.858999e-07,0.000242388,2,1
5.034055e-05,0.0001560072,2,1
9.523264e-05,3.98063e-05,2,1
7.027458e-05,-9.632857e-05,2,1
-4.625038e-05,-0.0002376495,2,1
-0.0002274394,-0.0003674638,2,1
-0.0004215936,-0.0004632444,2,1
-0.0005946793,-0.0005023021,2,1
-0.0007426449,-0.0004668098,2,1
-0.0008795901,-0.0003614674,2,1
-0.001013618,-0.0002123673,2,1
-0.001135653,-5.889148e-05,2,1
-0.001230948,7.059871e-05,2,1
-0.001297719,0.0001610312,2,1
-0.001344231,0.0002119197,2,1
-0.001378265,0.0002297469,2,1
-0.001398685,0.0002188885,2,1
-0.001403709,0.0001788584,2,1
-0.001395606,0.000121001,2,1
-0.001385396,7.027458e-05,2,1
-0.001388961,4.207521e-05,2,1
-0.001415864,4.223728e-05,2,1
-0.001462377,6.46023e-05,2,1
-0.001514886,9.944634e-05,2,1
-0.001556537,0.0001370455,2,1
-0.001572905,0.0001675138,2,1
-0.001553458,0.0001914995,2,1
-0.001496411,0.0002111094,2,1
-0.001412623,0.0002237505,2,1
-0.001317004,0.0002218057,2,1
-0.001219117,0.0001989545,2,1
-0.001119933,0.0001595726,2,1
-0.001022208,0.0001103047,2,1
-0.0009319372,5.714729e-05,2,1
-0.0008515528,2.04508e-06,2,1
-0.0007854302,-4.932962e-05,2,1
-0.0007343796,-9.632857e-05,2,1
-0.0006896496,-0.0001394379,2,1
-0.0006371404,-0.0001814128,2,1
-0.00056648,-0.000219012,2,1
-0.0004792889,-0.000251101,2,1
-0.0003861013,-0.0002797865,2,1
-0.0003000446,-0.0003081479,2,1
-0.0002329496,-0.0003366714,2,1
-0.0001822232,-0.000367788,2,1
-0.0001383035,-0.0004044147,2,1
-9.308726e-05,-0.0004454172,2,1
-4.446767e-05,-0.0004817198,2,1
1.306552e-05,-0.0005021401,2,1
9.069481e-05,-0.0005011677,2,1
0.000187772,-0.0004852853,2,1
0.0002906835,-0.000462272,2,1
0.0003709058,-0.0004347209,2,1
0.0003973225,-0.0003956632,2,1
0.0003572923,-0.0003365093,2,1
0.0002631324,-0.0002561249,2,1
0.0001445005,-0.0001626133,2,1
3.251336e-05,-7.023606e-05,2,1
-4.43056e-05,7.069105e-06,2,1
-7.201877e-05,6.03886e-05,2,1
-4.916756e-05,9.16672e-05,2,1
1.355172e-05,0.0001099806,2,1
9.717743e-05,0.0001239182,2,1
0.0001833962,0.0001399627,2,1
0.0002683184,0.0001611932,2,1
0.0003657197,0.0001871237,2,1
0.0004882411,0.0002140265,2,1
0.000631669,0.0002378501,2,1
0.0007734763,0.0002574601,2,1
0.0008814119,0.0002739907,2,1
0.0009203076,0.0002890628,2,1
0.0008665019,0.0003034866,2,1
0.0007274497,0.0003211517,2,1
0.0005435055,0.0003418961,2,1
0.0003655576,0.0003611819,2,1
0.0002401191,0.0003769022,2,1
0.0001921477,0.0003905157,2,1
0.000225209,0.00040105,2,1
0.000331848,0.0004021844,2,1
0.0004976409,0.0003921364,2,1
0.0007005468,0.0003736609,2,1
0.0009147974,0.0003508097,2,1
0.001108628,0.0003248792,2,1
0.001248652,0.0002976523,2,1
0.001315748,0.0002692908,2,1
0.001313479,0.0002381743,2,1
0.001279121,0.0002012234,2,1
0.001252542,0.000155683,2,1
0.001251408,0.0001046324,2,1
0.001265183,6.233338e-05,2,1
0.001255945,3.850978e-05,2,1
0.001192254,3.170304e-05,2,1
0.001074594,3.429608e-05,2,1
0.0009306798,3.834771e-05,2,1
0.0007895208,4.175109e-05,2,1
0.0006678096,4.304761e-05,2,1
0.0005658705,4.337174e-05,2,1
0.0004749518,4.272347e-05,2,1
0.0003803056,4.045456e-05,2,1
0.0002754493,3.543054e-05,2,1
0.0001628139,2.797553e-05,2,1
5.439218e-05,2.230325e-05,2,1
-4.657452e-05,2.327564e-05,2,1
-0.0001488377,3.478228e-05,2,1
-0.0002577456,5.325772e-05,2,1
-0.0003561192,7.027458e-05,2,1
-0.0004160834,7.691926e-05,2,1
-0.0004152731,6.735741e-05,2,1
-0.0003632501,3.883391e-05,2,1
-0.0003029619,-4.275467e-06,2,1
-0.0002765452,-4.884343e-05,2,1
-0.0002914552,-8.563225e-05,2,1
-0.0003228959,-0.0001115627,2,1
-0.0003374817,-0.0001337657,2,1
-0.0003224097,-0.0001533756,2,1
-0.0002778417,-0.0001705545,2,1
-0.0002123673,-0.0001853024,2,1
-0.0001426792,-0.0001961608,2,1
-0.0001013526,-0.0002028055,2,1
-0.0001208004,-0.0002049123,2,1
-0.0002112329,-0.0002052365,2,1
-0.0003499608,-0.0002045882,2,1
-0.0004924161,-0.0002045882,2,1
-0.0005930586,-0.0002078295,2,1
-0.0006306578,-0.0002131776,2,1
-0.0006120203,-0.0002170672,2,1
-0.0005535148,-0.0002149604,2,1
-0.0004807475,-0.0002088019,2,1
-0.0004143007,-0.0002008607,2,1
-0.0003606571,-0.0001911368,2,1
-0.0003185201,-0.0001823853,2,1
-0.0002895104,-0.0001749302,2,1
-0.0002815692,-0.0001689338,2,1
-0.0002974516,-0.0001596961,2,1
-0.000333268,-0.0001475412,2,1
-0.0003846427,-0.0001316588,2,1
-0.000434883,-0.0001165867,2,1
-0.000459841,-0.0001000561,2,1
-0.000439907,-8.40116e-05,2,1
-0.0003630881,-7.137051e-05,2,1
-0.0002308428,-6.553616e-05,2,1
-5.937768e-05,-6.81292e-05,2,1
0.0001141943,-7.493595e-05,2,1
0.0002483844,-7.60704e-05,2,1
0.0003250413,-6.683268e-05,2,1
0.0003462718,-4.47918e-05,2,1
0.0003141829,-1.140634e-05,2,1
0.000225047,3.121684e-05,2,1
7.805372e-05,7.465034e-05,2,1
-0.0001110765,0.0001096565,2,1
-0.0003063652,0.0001339663,2,1
-0.0004724821,0.0001498487,2,1
-0.0005881967,0.0001594105,2,1
-0.0006523746,0.0001592484,2,1
-0.0006727948,0.0001514693,2,1
-0.0006627468,0.0001373696,2,1
-0.0006376266,0.0001226217,2,1
-0.0006068342,0.0001145184,2,1
-0.0005731247,0.0001141943,2,1
-0.0005407116,0.0001219734,2,1
-0.0005164018,0.0001331559,2,1
-0.0004927403,0.0001448246,2,1
-0.0004530343,0.0001590864,2,1
-0.0003893426,0.0001762653,2,1
-0.000303448,0.0002007372,2,1
-0.000201509,0.0002302331,2,1
-8.725291e-05,0.0002571359,2,1
2.943412e-05,0.0002730183,2,1
0.0001273216,0.0002718839,2,1
0.0001871237,0.0002525981,2,1
0.0002054371,0.0002219677,2,1
0.0001744826,0.0001884202,2,1
9.31258e-05,0.0001602208,2,1
-1.059602e-05,0.0001412592,2,1
-8.336335e-05,0.0001321835,2,1
-6.731888e-05,0.0001315353,2,1
7.238143e-05,0.0001318594,2,1
0.0003339549,0.0001274836,2,1
0.0006951987,0.000113546,2,1
0.001129048,8.988449e-05,2,1
0.001596607,5.957827e-05,2,1
0.002039857,2.651694e-05,2,1
0.002397537,-1.010982e-05,2,1
0.002615354,-4.949169e-05,2,1
0.002647119,-8.790117e-05,2,1
0.00246366,-0.0001255003,2,1
0.00205736,-0.0001655305,2,1
0.001462579,-0.0002096122,2,1
0.0007572698,-0.0002520733,2,1
5.666109e-05,-0.0002875656,2,1
-0.0005259637,-0.0003117133,2,1
-0.0009304786,-0.0003240303,2,1
-0.001155911,-0.0003177098,2,1
-0.00124602,-0.0002946965,2,1
-0.001260119,-0.0002632558,2,1
-0.00124132,-0.0002282497,2,1
-0.001207448,-0.0001833576,2,1
-0.001155911,-0.0001233935,2,1
-0.001080389,-5.159854e-05,2,1
-0.0009833119,1.727922e-05,2,1
-0.0008773212,7.092284e-05,2,1
-0.0007677651,9.896015e-05,2,1
-0.0006546435,9.652917e-05,2,1
-0.0005415219,6.897806e-05,2,1
-0.0004382863,2.76514e-05,2,1
-0.0003543365,-1.67545e-05,2,1
-0.0002852967,-6.06742e-05,2,1
-0.0002211189,-0.0001079973,2,1
-0.000144462,-0.0001574272,2,1
-4.106429e-05,-0.0002050744,2,1
0.0001039842,-0.0002444563,2,1
0.00029198,-0.0002681178,2,1
0.0004995857,-0.0002749245,2,1
0.0007003848,-0.0002666592,2,1
0.0008843291,-0.0002475355,2,1
0.001054822,-0.000216581,2,1
0.00121397,-0.0001763888,2,1
0.001353671,-0.000134576,2,1
0.001457879,-9.600444e-05,2,1
0.001502447,-5.905355e-05,2,1
0.001449452,-2.372331e-05,2,1
0.001261618,7.555301e-06,2,1
0.0009339211,3.429608e-05,2,1
0.0005102821,6.379197e-05,2,1
6.314371e-05,0.0001078737,2,1
-0.0003395886,0.0001668655,2,1
-0.0006562641,0.0002299089,2,1
-0.00086938,0.0002811216,2,1
-0.0009823395,0.0003099692,2,1
-0.001022208,0.0003158036,2,1
-0.00102788,0.0003051073,2,1
-0.001031283,0.0002885766,2,1
-0.001043438,0.0002723701,2,1
-0.001060131,0.0002607014,2,1
-0.001067424,0.0002576221,2,1
-0.001053162,0.0002615117,2,1
-0.001015563,0.0002675081,2,1
-0.0009614331,0.0002699391,2,1
-0.0008980656,0.0002641047,2,1
-0.0008277292,0.0002482223,2,1
-0.0007394037,0.0002278021,2,1
-0.000616072,0.0002054371,2,1
-0.0004437966,0.0001765894,2,1
-0.0002254946,0.000133318,2,1
1.387585e-05,7.059871e-05,2,1
0.000239957,-1.043395e-05,2,1
0.0004240633,-0.0001020008,2,1
0.0005538776,-0.0001930815,2,1
0.0006276174,-0.0002689281,2,1
0.0006608408,-0.0003175477,2,1
0.0006820714,-0.0003374817,2,1
0.0007047605,-0.0003292164,2,1
0.0007324737,-0.0002911311,2,1
0.000765373,-0.0002256567,2,1
0.0007955172,-0.000144624,2,1
0.0008079963,-6.261898e-05,2,1
0.0007934103,9.500085e-06,2,1
0.0007468975,6.525056e-05,2,1
0.0006647304,0.0001041462,2,1
0.0005438296,0.0001292664,2,1
0.0003840331,0.0001474177,2,1
0.0001914995,0.0001657311,2,1
-2.145439e-05,0.0001832341,2,1
-0.0002350565,0.0001987924,2,1
-0.0004217557,0.0002133783,2,1
-0.000561456,0.0002273159,2,1
-0.000653185,0.0002365536,2,1
-0.0007128249,0.0002336365,2,1
-0.0007557723,0.0002125679,2,1
-0.0007771649,0.0001722137,2,1
-0.0007449139,0.0001104668,2,1
-0.0006267683,2.278944e-05,2,1
-0.0004217557,-8.465986e-05,2,1
-0.0001739578,-0.0001925954,2,1
4.434413e-05,-0.0002783279,2,1
0.0001710792,-0.0003245165,2,1
0.0001824238,-0.0003267854,2,1
0.0001044704,-0.0002956689,2,1
-1.853722e-05,-0.0002447804,2,1
-0.0001426792,-0.0001848162,2,1
-0.0002410529,-0.0001206384,2,1
-0.0002995585,-5.791909e-05,2,1
-0.0003175477,-2.978945e-06,2,1
-0.0003003688,3.55926e-05,2,1
-0.0002630937,5.131294e-05,2,1
-0.0002203085,4.191315e-05,2,1
-0.0001794681,1.484824e-05,2,1
-0.0001498101,-1.853722e-05,2,1
-0.0001426792,-5.289507e-05,2,1
-0.0001598582,-8.595638e-05,2,1
-0.0001940539,-0.0001120489,2,1
-0.0002279256,-0.0001287416,2,1
-0.0002407288,-0.0001381414,2,1
-0.0002198223,-0.0001442999,2,1
-0.0001650443,-0.0001498101,2,1
-9.422172e-05,-0.0001507825,2,1
-3.393342e-05,-0.0001501342,2,1
-5.57199e-06,-0.0001481895,2,1
-8.975362e-06,-0.0001436516,2,1
-3.68506e-05,-0.0001353863,2,1
-8.40116e-05,-0.0001251762,2,1
-0.0001462447,-0.000114804,2,1
-0.0002021572,-0.0001065387,2,1
-0.0002125294,-0.0001062146,2,1
-0.0001421931,-0.0001261486,2,1
7.23117e-06,-0.0001716889,2,1
0.000190365,-0.0002220912,2,1
0.0003418961,-0.0002412149,2,1
0.0004169324,-0.0002063709,2,1
0.0004062361,-0.0001135075,2,1
0.0003323342,2.684107e-05,2,1
0.0002346088,0.0001799928,2,1
0.0001534141,0.000309483,2,1
0.0001187321,0.0003973225,2,1
0.0001436902,0.0004498317,2,1
0.0002253711,0.0004843516,2,1
0.0003407616,0.0005193577,2,1
0.0004589073,0.0005611706,2,1
0.0005509604,0.0006086557,2,1
0.0006003904,0.0006522514,2,1
0.0005977973,0.0006822334,2,1
0.0005341057,0.000693578,2,1
0.0004059119,0.0006828817,2,1
0.0002255332,0.0006498204,2,1
2.732727e-05,0.0006050903,2,1
-0.0001423551,0.0005608465,2,1
-0.0002532078,0.0005224369,2,1
-0.0003015032,0.0004867825,2,1
-0.0003039342,0.0004405939,2,1
-0.0002830278,0.0003696093,2,1
-0.0002523975,0.0002632944,2,1
-0.0002172293,0.0001205148,2,1
-0.0001780095,-4.495386e-05,2,1
-0.0001394379,-0.000201509,2,1
-0.0001152902,-0.0003172236,2,1
-0.0001230693,-0.0003728119,2,1
-0.000164396,-0.0003681121,2,1
-0.0002282497,-0.0003204649,2,1
-0.0002971275,-0.0002582318,2,1
-0.0003566054,-0.0002086398,2,1
-0.0003942046,-0.0001865989,2,1
-0.000402794,-0.0001950263,2,1
-0.0003805911,-0.0002220912,2,1
-0.0003290543,-0.0002489941,2,1
-0.0002580697,-0.0002575835,2,1
-0.0001720131,-0.000238784,2,1
-6.035007e-05,-0.0001979435,2,1
9.620504e-05,-0.0001472171,2,1
0.000302028,-9.746302e-05,2,1
0.0005379952,-6.116039e-05,2,1
0.0007655351,-4.317115e-05,2,1
0.0009512621,-3.830919e-05,2,1
0.001066815,-3.766092e-05,2,1
0.001098256,-3.166451e-05,2,1
0.001058712,-2.210265e-05,2,1
0.0009666584,-1.318906e-05,2,1
0.0008340888,-1.221667e-05,2,1
0.0006731578,-2.177852e-05,2,1
0.0004971547,-4.041603e-05,2,1
0.0003289309,-6.083626e-05,2,1
0.0002036544,-7.477388e-05,2,1
0.0001521176,-7.65566e-05,2,1
0.0001795066,-7.023606e-05,2,1
0.0002571359,-6.132246e-05,2,1
0.0003397893,-5.451572e-05,2,1
0.0003794953,-5.743289e-05,2,1
0.0003399513,-7.072225e-05,2,1
0.0002094887,-9.341139e-05,2,1
1.355172e-05,-0.0001217728,2,1
-0.0001974573,-0.0001536997,2,1
-0.0003750809,-0.0001878955,2,1
-0.0004860956,-0.000221443,2,1
-0.0005222362,-0.0002476975,2,1
-0.0004967919,-0.0002592042,2,1
-0.000434883,-0.0002545043,2,1
-0.0003661673,-0.0002368392,2,1
-0.000303448,-0.0002143121,2,1
-0.0002284118,-0.0001885437,2,1
-0.0001083214,-0.0001575893,2,1
6.249545e-05,-0.0001182074,2,1
0.0002560015,-7.671866e-05,2,1
0.0004247115,-3.409549e-05,2,1
0.0005243817,1.014835e-05,2,1
0.0005272989,5.844381e-05,2,1
0.0004355699,0.0001090082,2,1
0.0002757735,0.0001564933,2,1
8.891209e-05,0.0001965235,2,1
-8.206682e-05,0.0002237505,2,1
-0.0002070192,0.0002359054,2,1
-0.0002648765,0.0002363916,2,1
-0.0002441321,0.0002292607,2,1
-0.0001447861,0.0002180782,2,1
1.938607e-05,0.0002059233,2,1
0.000222616,0.0001963614,2,1
0.0004268184,0.0001944166,2,1
0.0005947181,0.0001997648,2,1
0.0006994124,0.0002096508,2,1
0.0007297186,0.0002135403,2,1
0.0006869333,0.0002047888,2,1
0.0005789978,0.00018291,2,1
0.0004157979,0.0001517934,2,1
0.0002060853,0.0001190562,2,1
-3.992984e-05,9.182927e-05,2,1
-0.0002891863,7.708133e-05,2,1
-0.0004878783,7.67572e-05,2,1
-0.0005885208,9.085688e-05,2,1
-0.0005809038,0.0001127357,2,1
-0.0005032745,0.0001315353,2,1
-0.000417542,0.0001393144,2,1
-0.0003689224,0.0001346145,2,1
-0.0003737844,0.0001169494,2,1
-0.0004219178,9.507057e-05,2,1
-0.0004924161,7.90261e-05,2,1
-0.0005672903,7.286763e-05,2,1
-0.000633575,7.610894e-05,2,1
-0.0006851118,8.696731e-05,2,1
-0.0007217386,0.0001023635,2,1
-0.0007499378,0.0001175977,2,1
-0.0007768407,0.0001273216,2,1
-0.0007914266,0.0001226217,2,1
-0.0007706822,9.879808e-05,2,1
-0.0007008321,6.071273e-05,2,1
-0.000583983,1.54965e-05,2,1
-0.000437314,-2.453363e-05,2,1
-0.0002856209,-5.176061e-05,2,1
-0.000152079,-6.521203e-05,2,1
-6.342931e-05,-7.363943e-05,2,1
-3.798505e-05,-8.579432e-05,2,1
-6.974985e-05,-0.0001034594,2,1
-0.0001308485,-0.0001199901,2,1
-0.0001857886,-0.0001326312,2,1
-0.0002050744,-0.0001430034,2,1
-0.0001729855,-0.0001511067,2,1
-9.227693e-05,-0.0001583996,2,1
1.776542e-05,-0.0001671511,2,1
0.0001271595,-0.0001807646,2,1
0.0002172679,-0.00019924,2,1
0.0002914938,-0.0002225774,2,1
0.0003697714,-0.0002506147,2,1
0.0004689553,-0.0002765452,2,1
0.0005853184,-0.0002917793,2,1
0.0007039502,-0.0002927517,2,1
0.0008105893,-0.0002823795,2,1
0.0008997253,-0.0002645523,2,1
0.000968279,-0.0002452666,2,1
0.001006364,-0.000224036,2,1
0.001001178,-0.0002037779,2,1
0.0009566103,-0.0001930815,2,1
0.0008749293,-0.0001964849,2,1
0.000748032,-0.0002117191,2,1
0.0005741358,-0.0002287359,2,1
0.000361506,-0.0002410529,2,1
0.0001273216,-0.0002404046,2,1
-9.454585e-05,-0.0002263049,2,1
-0.0002669833,-0.0002002124,2,1
-0.0003783222,-0.0001650443,2,1
-0.0004402311,-0.0001261486,2,1
-0.0004752372,-9.033215e-05,2,1
-0.0005037607,-6.553616e-05,2,1
-0.0005428185,-5.159854e-05,2,1
-0.0006073205,-4.398147e-05,2,1
-0.0006927288,-3.863332e-05,2,1
-0.0007787855,-3.312309e-05,2,1
-0.00083956,-2.064406e-05,2,1
-0.0008593319,-1.358292e-06,2,1
-0.0008368049,1.792748e-05,2,1
-0.0007891576,3.462021e-05,2,1
-0.0007432932,5.001642e-05,2,1
-0.000717849,6.865393e-05,2,1
-0.0007095836,9.21534e-05,2,1
-0.0007014804,0.0001172735,2,1
-0.0006774947,0.0001414213,2,1
-0.0006296854,0.0001660552,2,1
-0.0005527044,0.0001949028,2,1
-0.0004442827,0.0002278021,2,1
-0.0003074997,0.0002615117,2,1
-0.0001478653,0.000292142,2,1
1.954813e-05,0.000311914,2,1
0.000168162,0.0003182346,2,1
0.0002749631,0.0003081865,2,1
0.0003380065,0.0002877662,2,1
0.0003730126,0.0002668598,2,1
0.0003982949,0.0002516257,2,1
0.0004229288,0.000239957,2,1
0.0004422146,0.0002278021,2,1
0.0004589073,0.0002138645,2,1
0.0004699278,0.0001984683,2,1
0.000477869,0.0001812893,2,1
0.0004969927,0.0001641104,2,1
0.0005363746,0.0001503349,2,1
0.0005817529,0.0001412592,2,1
0.0005966629,0.0001346145,2,1
0.0005436675,0.0001268354,2,1
0.0004170944,0.0001125736,2,1
0.0002451431,9.458438e-05,2,1
7.562274e-05,7.837785e-05,2,1
-4.949169e-05,7.351589e-05,2,1
-0.0001152902,8.080883e-05,2,1
-0.0001413827,9.280167e-05,2,1
-0.0001635857,9.620504e-05,2,1
-0.0001995642,8.486046e-05,2,1
-0.0002452666,6.541262e-05,2,1
-0.0002895104,4.888196e-05,2,1
-0.0003235441,4.628891e-05,2,1
-0.0003463953,6.379197e-05,2,1
-0.0003593606,0.0001007429,2,1
-0.000360333,0.0001495245,2,1
-0.0003478539,0.0001996027,2,1
-0.0003172236,0.0002378501,2,1
-0.0002598524,0.0002569738,2,1
-0.0001682856,0.0002569738,2,1
-5.046408e-05,0.0002394708,2,1
6.768154e-05,0.0002020337,2,1
0.0001642725,0.0001435281,2,1
0.0002290986,6.83298e-05,2,1
0.0002632944,-1.075808e-05,2,1
0.0002681563,-8.158062e-05,2,1
0.0002433604,-0.0001329553,2,1
0.0001924718,-0.0001609926,2,1
0.0001255389,-0.0001697442,2,1
5.228533e-05,-0.0001660166,2,1
-1.853722e-05,-0.0001580754,2,1
-8.125649e-05,-0.0001540238,2,1
-0.0001319829,-0.0001622891,2,1
-0.000174444,-0.0001870851,2,1
-0.0002149604,-0.0002290601,2,1
-0.0002540181,-0.0002896725,2,1
-0.0002880518,-0.000370381,2,1
-0.0002987481,-0.0004676201,2,1
-0.0002676316,-0.0005736109,2,1
-0.0001935677,-0.0006768464,2,1
-8.644259e-05,-0.0007614446,2,1
3.60788e-05,-0.0008186536,2,1
0.0001534141,-0.0008416669,2,1
0.0002513016,-0.0008252983,2,1
0.0003237448,-0.0007705202,2,1
0.0003734989,-0.000688029,2,1
0.0004130428,-0.0005909518,2,1
0.0004587452,-0.0004885266,2,1
0.0005234093,-0.0003838324,2,1
0.0006055765,-0.0002752487,2,1
0.0006917953,-0.0001611547,2,1
0.0007558112,-4.041603e-05,2,1
0.0007715315,8.631905e-05,2,1
0.0007209671,0.0002149989,2,1
0.0005824011,0.0003388169,2,1
0.0003503235,0.0004522626,2,1
5.163707e-05,0.0005488536,2,1
-0.0002593663,0.0006200004,2,1
-0.0005300153,0.0006584098,2,1
-0.000730328,0.0006600305,2,1
-0.0008549562,0.000631669,2,1
-0.0009102205,0.0005824011,2,1
-0.0009011448,0.0005185474,2,1
-0.0008170329,0.0004454559,2,1
-0.0006439472,0.000371392,2,1
-0.000377836,0.0003030004,2,1
-3.911951e-05,0.0002404432,2,1
0.0003226103,0.0001840444,2,1
0.0006496583,0.0001334801,2,1
0.0009175525,8.680524e-05,2,1
0.00114412,4.256141e-05,2,1
0.00136145,-1.034161e-06,2,1
0.001580725,-4.203669e-05,2,1
0.0017765,-7.60704e-05,2,1
0.001901453,-9.973194e-05,2,1
0.001910205,-0.0001118868,2,1
0.001784442,-0.0001094559,2,1
0.001538102,-8.741498e-05,2,1
0.001216887,-4.187462e-05,2,1
0.0008950254,2.068259e-05,2,1
0.0006575995,8.761557e-05,2,1
0.0005624671,0.0001498487,2,1
0.0006162729,0.0002047888,2,1
0.0007700729,0.0002514636,2,1
0.0009551517,0.0002939248,2,1
0.001106683,0.0003354135,2,1
0.001160975,0.0003791712,2,1
0.001064708,0.0004203358,2,1
0.0007963275,0.0004503179,2,1
0.0003756057,0.0004610142,2,1
-0.0001451102,0.0004512903,2,1
-0.0006885151,0.0004274666,2,1
-0.001175521,0.0003926226,2,1
-0.001545841,0.0003508097,2,1
-0.001762846,0.0003077003,2,1
-0.001814383,0.0002686426,2,1
-0.001725733,0.0002388225,2,1
-0.001548434,0.0002109473,2,1
-0.001340342,0.0001791825,2,1
-0.001152022,0.0001386662,2,1
-0.001011187,9.020862e-05,2,1
-0.0009121653,4.45062e-05,2,1
-0.0008282154,1.241726e-05,2,1
-0.0007343796,9.106227e-07,2,1
-0.0006306578,4.80019e-06,2,1
-0.0005352014,1.095867e-05,2,1
-0.0004731304,8.689758e-06,2,1
-0.0004684305,-6.706447e-06,2,1
-0.0005319601,-3.587821e-05,2,1
-0.0006535091,-7.18567e-05,2,1
-0.0008039057,-0.0001039456,2,1
-0.0009449024,-0.0001253383,2,1
-0.001032094,-0.0001430034,2,1
-0.001029501,-0.0001716889,2,1
-0.0009196203,-0.0002198223,2,1
-0.0007162283,-0.0002882139,2,1
-0.0004634065,-0.000365357,2,1
-0.0002135018,-0.0004355313,2,1
-4.113403e-06,-0.0004802613,2,1
0.0001462832,-0.0004904714,2,1
0.0002299089,-0.0004642168,2,1
0.0002527602,-0.00041268,2,1
0.0002292607,-0.0003468815,2,1
0.0001811273,-0.0002788141,2,1
0.0001211631,-0.0002173914,2,1
5.714729e-05,-0.0001665028,2,1
-3.951337e-06,-0.0001298761,2,1
-5.208474e-05,-0.0001067007,2,1
-7.639453e-05,-9.357346e-05,2,1
-7.801519e-05,-8.644259e-05,2,1
-6.845333e-05,-8.579432e-05,2,1
-6.278104e-05,-8.871149e-05,2,1
-7.850138e-05,-9.114248e-05,2,1
-0.0001211246,-8.968389e-05,2,1
-0.0001830335,-8.190475e-05,2,1
-0.000251101,-6.667062e-05,2,1
-0.0003060411,-4.608832e-05,2,1
-0.0003347266,-3.63644e-05,2,1
-0.0003251648,-5.127441e-05,2,1
-0.0002724935,-8.806324e-05,2,1
-0.0001726613,-0.0001311726,2,1
-9.137427e-06,-0.0001585616,2,1
0.0002329882,-0.0001525652,2,1
0.0005426951,-0.0001131834,2,1
0.0008721742,-5.338126e-05,2,1
0.001153034,9.500085e-06,2,1
0.001315099,6.346784e-05,2,1
0.001324175,0.0001091703,2,1
0.00120376,0.0001490383,2,1
0.001004582,0.0001822617,2,1
0.0007666696,0.0002070577,2,1
0.000517575,0.0002192126,2,1
0.0002786906,0.000215161,2,1
6.78436e-05,0.0001983062,2,1
-9.778715e-05,0.0001725378,2,1
-0.0002110708,0.0001328318,2,1
-0.0002721694,7.481241e-05,2,1
-0.0002870794,6.258778e-06,2,1
-0.0002741142,-5.532604e-05,2,1
-0.0002541802,-8.871149e-05,2,1
-0.000233922,-8.141856e-05,2,1
-0.000206533,-3.879538e-05,2,1
-0.0001663408,1.906194e-05,2,1
-0.0001188556,7.90261e-05,2,1
-8.692878e-05,0.0001410971,2,1
-9.065628e-05,0.0002072198,2,1
-0.0001384655,0.0002759355,2,1
-0.0002224154,0.0003355756,2,1
-0.0003316474,0.0003757678,2,1
-0.0004530343,0.0003840331,2,1
-0.0005611319,0.0003558337,2,1
-0.00062612,0.0002952213,2,1
-0.000623689,0.000217754,2,1
-0.0005522182,0.0001402868,2,1
-0.0004334244,7.57848e-05,2,1
-0.0003073376,3.494434e-05,2,1
-0.0002130156,2.424803e-05,2,1
-0.0001697442,3.753739e-05,2,1
-0.0001686097,6.119892e-05,2,1
-0.0001836818,7.870197e-05,2,1
-0.0001963229,7.837785e-05,2,1
-0.0002049123,6.379197e-05,2,1
-0.0002144742,3.705119e-05,2,1
-0.0002182017,1.002961e-07,2,1
-0.0002049123,-4.787104e-05,2,1
-0.000166989,-0.0001065387,2,1
-0.0001126972,-0.000171851,2,1
-5.791909e-05,-0.0002334358,2,1
-1.562004e-05,-0.0002768693,2,1
3.503668e-06,-0.0002904828,2,1
-3.627206e-06,-0.0002742763,2,1
-2.777494e-05,-0.0002400805,2,1
-5.32192e-05,-0.0001985918,2,1
-6.310517e-05,-0.0001647201,2,1
-5.64605e-05,-0.0001465688,2,1
-4.300908e-05,-0.0001462447,2,1
-3.134038e-05,-0.0001575893,2,1
-2.404744e-05,-0.0001731475,2,1
-1.62683e-05,-0.0001849783,2,1
4.638125e-06,-0.000186761,2,1
4.402e-05,-0.0001757406,2,1
9.474644e-05,-0.0001481895,2,1
0.0001451488,-0.000102325,2,1
0.0001859892,-4.511593e-05,2,1
0.0002143507,1.079661e-05,2,1
0.0002342847,5.423012e-05,2,1
0.0002538946,8.178122e-05,2,1
0.0002869559,9.280167e-05,2,1
0.0003425444,9.344993e-05,2,1
0.0004169324,8.567078e-05,2,1
0.0004924549,7.254349e-05,2,1
0.0005465847,5.860588e-05,2,1
0.0005668429,4.288554e-05,2,1
0.0005550121,2.586868e-05,2,1
0.0005237334,1.063454e-05,2,1
0.0004911583,9.106227e-07,2,1
0.0004731691,-1.196227e-06,2,1
0.0004747897,2.531276e-06,2,1
0.0004952099,5.448452e-06,2,1
0.0005242196,6.744974e-06,2,1
0.000547395,9.338019e-06,2,1
0.00055485,1.808955e-05,2,1
0.0005404262,3.462021e-05,2,1
0.0005008822,5.860588e-05,2,1
0.0004425387,8.696731e-05,2,1
0.0003762539,0.0001164632,2,1
0.0003161277,0.0001454729,2,1
0.0002712356,0.0001718896,2,1
0.0002393087,0.000195389,2,1
0.0002091646,0.0002162954,2,1
0.000170431,0.0002404432,2,1
0.0001175977,0.0002670219,2,1
4.596478e-05,0.0002914938,2,1
-4.576419e-05,0.0003052694,2,1
-0.0001562927,0.000304297,2,1
-0.0002770314,0.0002866318,2,1
-0.0003987424,0.0002618358,2,1
-0.0005117019,0.0002370398,2,1
-0.0006069963,0.0002154851,2,1
-0.0006716604,0.0001945787,2,1
-0.0006932151,0.0001717275,2,1
-0.0006651777,0.0001449867,2,1
-0.0005977586,0.000115977,2,1
-0.0005136467,8.405014e-05,2,1
-0.0004384484,5.050261e-05,2,1
-0.0003836704,1.825161e-05,2,1
-0.0003421817,-9.785688e-06,2,1
-0.0002953447,-3.166451e-05,2,1
-0.0002182017,-4.738484e-05,2,1
-9.827335e-05,-5.613637e-05,2,1
5.050261e-05,-6.261898e-05,2,1
0.0001970097,-7.315322e-05,2,1
0.0003046211,-8.919769e-05,2,1
0.0003508097,-0.0001070249,2,1
0.0003358997,-0.000119666,2,1
0.0002889007,-0.0001209625,2,1
0.0002558394,-0.0001071869,2,1
0.0002778803,-7.833932e-05,2,1
0.0003543751,-4.122636e-05,2,1
0.0004517764,-5.57199e-06,2,1
0.0005355643,1.533444e-05,2,1
0.0005963388,1.452411e-05,2,1
0.0006519272,-1.092015e-05,2,1
0.0007190223,-5.727083e-05,2,1
0.0007916276,-0.0001167488,2,1
0.0008624502,-0.0001749302,2,1
0.0009442933,-0.0002185258,2,1
0.001062601,-0.0002418632,2,1
0.001217698,-0.0002470493,2,1
0.001366636,-0.0002370013,2,1
0.001435838,-0.0002191741,2,1
0.001363395,-0.0002036158,2,1
0.001133586,-0.0001935677,2,1
0.0007948689,-0.0001861127,2,1
0.0004266563,-0.0001827094,2,1
9.101894e-05,-0.0001835197,2,1
-0.0001844921,-0.000189192,2,1
-0.0004008493,-0.0001998883,2,1
-0.0005655076,-0.0002126914,2,1
-0.000673281,-0.0002203085,2,1
-0.00071558,-0.00021415,2,1
-0.0006818705,-0.0001919471,2,1
-0.0005810658,-0.0001548341,2,1
-0.0004363416,-0.0001120489,2,1
-0.0002840002,-7.752899e-05,2,1
-0.0001585616,-5.921561e-05,2,1
-8.40116e-05,-5.59743e-05,2,1
-7.315322e-05,-6.06742e-05,2,1
-0.0001255003,-6.861539e-05,2,1
-0.0002310048,-7.266703e-05,2,1
-0.0003721637,-6.748094e-05,2,1
-0.0005256396,-4.949169e-05,2,1
-0.0006656639,-2.09682e-05,2,1
-0.0007680892,1.517237e-05,2,1
-0.0008139537,5.358185e-05,2,1
-0.0008019609,9.069481e-05,2,1
-0.000745238,0.0001253768,2,1
-0.000665826,0.0001568175,2,1
-0.0005964621,0.0001801549,2,1
-0.0005731247,0.0001900409,2,1
-0.0006193133,0.0001906891,2,1
-0.0007207661,0.0001861513,2,1
-0.0008277292,0.0001795066,2,1
-0.0008807246,0.0001728619,2,1
-0.0008440978,0.0001726999,2,1
-0.0007152559,0.0001796687,2,1
-0.0005189948,0.0001926339,2,1
-0.0002929138,0.0002049509,2,1
-7.671866e-05,0.0002130541,2,1
9.26396e-05,0.000220023,2,1
0.000187934,0.0002281262,2,1
0.0002007372,0.0002346088,2,1
0.0001378558,0.0002346088,2,1
3.170304e-05,0.000225047,2,1
-7.023606e-05,0.000205275,2,1
-0.0001253383,0.000178048,2,1
-0.0001211246,0.0001524417,2,1
-7.380149e-05,0.0001380179,2,1
-1.318906e-05,0.000135911,2,1
3.18651e-05,0.0001422316,2,1
4.580272e-05,0.000148228,2,1
2.181705e-05,0.0001470936,2,1
-3.928157e-05,0.0001378558,2,1
-0.0001277692,0.0001235941,2,1
-0.0002224154,0.0001127357,2,1
-0.0002955068,0.0001083599,2,1
-0.0003230579,0.0001091703,2,1
-0.0002938862,0.0001103047,2,1
-0.0002233878,0.0001080358,2,1
-0.000149486,0.0001028497,2,1
-0.000112211,9.21534e-05,2,1
-0.0001287416,7.594687e-05,2,1
-0.0001804405,5.714729e-05,2,1
-0.0002348944,3.753739e-05,2,1
-0.0002679557,1.906194e-05,2,1
-0.0002715212,2.369211e-06,2,1
-0.0002561249,-1.416145e-05,2,1
-0.0002412149,-3.490581e-05,2,1
-0.0002423494,-5.824322e-05,2,1
-0.0002554767,-7.769106e-05,2,1
-0.0002666592,-9.29252e-05,2,1
-0.0002692523,-0.0001068628,2,1
-0.000263742,-0.00012469,2,1
-0.0002533699,-0.0001452723,2,1
-0.0002481838,-0.0001656925,2,1
-0.0002579077,-0.00018433,2,1
-0.0002896725,-0.0001961608,2,1
-0.000340561,-0.0002000504,2,1
-0.0004008493,-0.0002005366,2,1
-0.0004583824,-0.0002018331,2,1
-0.0004967919,-0.0002047502,2,1
-0.0004974402,-0.0002070192,2,1
-0.0004510895,-0.0002079916,2,1
-0.0003663294,-0.0002060468,2,1
-0.0002635799,-0.0001984297,2,1
-0.0001661787,-0.0001831956,2,1
-9.146661e-05,-0.0001639098,2,1
-4.446767e-05,-0.0001451102,2,1
-1.075808e-05,-0.0001290658,2,1
2.732727e-05,-0.0001141558,2,1
7.432621e-05,-9.681477e-05,2,1
0.0001305629,-7.461182e-05,2,1
0.0001914995,-5.078821e-05,2,1
0.0002491947,-2.858527e-05,2,1
0.0002923041,-8.327101e-06,2,1
0.0003088348,1.031041e-05,2,1
0.0002991108,2.424803e-05,2,1
0.0002803113,2.943412e-05,2,1
0.0002825802,2.570662e-05,2,1
0.0003282826,1.517237e-05,2,1
0.000423415,9.106227e-07,2,1
0.0005486915,-1.043395e-05,2,1
0.0006702406,-1.643037e-05,2,1
0.0007556491,-1.643037e-05,2,1
0.0007940586,-9.947754e-06,2,1
0.0007995688,2.623614e-07,2,1
0.0008188546,9.986281e-06,2,1
0.0009128526,1.338965e-05,2,1
0.001109438,4.80019e-06,2,1
0.001392405,-1.059602e-05,2,1
0.001700329,-2.194059e-05,2,1
0.001936621,-2.064406e-05,2,1
0.001999179,-1.196227e-06,2,1
0.001822527,3.915804e-05,2,1
0.00141477,9.328786e-05,2,1
0.0008609917,0.0001524417,2,1
0.0002851732,0.0002075439,2,1
-0.0001977815,0.0002480603,2,1
-0.0005275843,0.0002689667,2,1
-0.0007047217,0.0002709115,2,1
-0.0007663065,0.0002641047,2,1
-0.0007609584,0.0002594049,2,1
-0.0007248178,0.0002595669,2,1
-0.0006619364,0.0002603772,2,1
-0.0005627525,0.0002560015,2,1
-0.0004096008,0.0002456293,2,1
-0.0001981056,0.0002321778,2,1
4.839576e-05,0.0002148369,2,1
0.0002952213,0.0001934442,2,1
0.0005159543,0.0001660552,2,1
0.0006919574,0.0001352628,2,1
0.0008102651,0.0001067393,2,1
0.0008601813,8.372601e-05,2,1
0.0008472161,6.087479e-05,2,1
0.0007947069,3.802358e-05,2,1
0.0007313393,1.711715e-05,2,1
0.0006725095,6.420843e-06,2,1
0.0006146522,1.663096e-05,2,1
0.0005477191,4.969229e-05,2,1
0.0004767345,0.0001009049,2,1
0.0004350837,0.0001571416,2,1
0.0004649037,0.0002023578,2,1
0.0005880735,0.0002222919,2,1
0.0007926,0.0002083542,2,1
0.001043802,0.0001584381,2,1
0.001278959,8.129502e-05,2,1
0.001409908,-6.382317e-06,2,1
0.001371012,-9.098041e-05,2,1
0.001149792,-0.000169258,2,1
0.0007864416,-0.0002498044,2,1
0.0003598854,-0.000343154,2,1
-4.544006e-05,-0.000449955,2,1
-0.0003758912,-0.0005538389,2,1
-0.0006142893,-0.0006317923,2,1
-0.0007580412,-0.0006685811,2,1
-0.0008076332,-0.0006635571,2,1
-0.0007671168,-0.0006230408,2,1
-0.0006599916,-0.0005583767,2,1
-0.0005160777,-0.0004833405,2,1
-0.0003613053,-0.0004063595,2,1
-0.0002178775,-0.0003292164,2,1
-0.00010978,-0.0002514251,2,1
-6.569822e-05,-0.0001731475,2,1
-0.000107349,-9.179074e-05,2,1
-0.0002481838,-7.192643e-06,2,1
-0.0004919299,7.335383e-05,2,1
-0.0008223811,0.0001448246,2,1
-0.001195131,0.0001950649,2,1
-0.001549244,0.000215161,2,1
-0.001830914,0.0002047888,2,1
-0.002009186,0.0001739964,2,1
-0.002081143,0.0001355869,2,1
-0.002065098,9.717743e-05,2,1
-0.001985686,5.99024e-05,2,1
-0.001869971,2.522042e-05,2,1
-0.001738374,-5.247859e-06,2,1
-0.001598674,-2.7937e-05,2,1
-0.001449736,-4.106429e-05,2,1
-0.001289453,-4.333321e-05,2,1
-0.001120095,-3.782299e-05,2,1
-0.0009460369,-2.858527e-05,2,1
-0.0007781372,-1.659243e-05,2,1
-0.0006319543,-1.196227e-06,2,1
-0.0005258016,1.54965e-05,2,1
-0.0004668098,2.716521e-05,2,1
-0.0004459034,3.218923e-05,2,1
-0.0004376381,3.55926e-05,2,1
-0.0004123559,3.818565e-05,2,1
-0.0003352128,3.93201e-05,2,1
-0.0001710407,4.288554e-05,2,1
9.652917e-05,5.471631e-05,2,1
0.0004478869,7.772959e-05,2,1
0.0008368439,0.0001086841,2,1
0.001207002,0.0001410971,2,1
0.001495316,0.0001759412,2,1
0.001645389,0.0002148369,2,1
0.001628534,0.0002566497,2,1
0.001463389,0.0002947351,2,1
0.001202464,0.0003229345,2,1
0.0009008598,0.0003329825,2,1
0.0005901803,0.0003200173,2,1
0.0002911697,0.0002848491,2,1
1.338965e-05,0.0002286124,2,1
-0.0002374874,0.0001566554,2,1
-0.0004567618,8.307774e-05,2,1
-0.0006470265,2.149292e-05,2,1
-0.0008108745,-2.226472e-05,2,1
-0.0009497644,-4.868137e-05,2,1
-0.001059645,-5.69467e-05,2,1
-0.001126091,-4.560212e-05,2,1
-0.001127226,-1.62683e-05,2,1
-0.001059158,2.246531e-05,2,1
-0.0009470092,6.168512e-05,2,1
-0.0008303223,9.53947e-05,2,1
-0.0007304901,0.0001229458,2,1
-0.0006309819,0.000145797,2,1
-0.000487068,0.000163138,2,1
-0.0002653627,0.0001756171,2,1
3.073064e-05,0.0001820997,2,1
0.0003629646,0.0001791825,2,1
0.0006804507,0.0001634622,2,1
0.0009305178,0.000135749,2,1
0.00107897,0.0001025256,2,1
0.001125483,7.740546e-05,2,1
0.001091125,7.562274e-05,2,1
0.001005068,9.442231e-05,2,1
0.000901346,0.000123432,2,1
0.0008152892,0.0001472556,2,1
0.0007691005,0.000155521,2,1
0.0007682902,0.0001493625,2,1
0.0007924379,0.0001372076,2,1
0.0008216097,0.0001261871,2,1
0.0008326302,0.0001197045,2,1
0.0008054032,0.0001137081,2,1
0.0007339324,0.0001052807,2,1
0.0006253485,9.199134e-05,2,1
0.0004987754,7.6271e-05,2,1
0.0003803056,5.860588e-05,2,1
0.0002866318,3.98063e-05,2,1
0.0002174299,2.003433e-05,2,1
0.0001696206,1.720949e-06,2,1
0.0001586002,-1.173047e-05,2,1
0.0002164575,-2.226472e-05,2,1
0.0003619922,-3.425755e-05,2,1
0.0005799701,-5.013995e-05,2,1
0.0008159374,-6.861539e-05,2,1
0.001008147,-8.40116e-05,2,1
0.001103604,-9.162867e-05,2,1
0.001077997,-8.547019e-05,2,1
0.0009376486,-6.667062e-05,2,1
0.0007169155,-4.090223e-05,2,1
0.0004697657,-1.62683e-05,2,1
0.0002511395,3.989864e-06,2,1
8.79397e-05,1.9224e-05,2,1
-2.339918e-05,2.603075e-05,2,1
-0.0001054042,1.711715e-05,2,1
-0.0001776853,-9.785688e-06,2,1
-0.0002483458,-5.240886e-05,2,1
-0.000320789,-0.0001037836,2,1
-0.0003919357,-0.0001532135,2,1
-0.0004565997,-0.0001919471,2,1
-0.0005100812,-0.0002196603,2,1
-0.0005509217,-0.0002434839,2,1
-0.0005809038,-0.0002614731,2,1
-0.0005992171,-0.0002692523,2,1
-0.0005997034,-0.0002606628,2,1
-0.0005737729,-0.000236353,2,1
-0.0005206155,-0.0002008607,2,1
-0.0004514136,-0.0001582375,2,1
-0.000382698,-0.0001078352,2,1
-0.0003238683,-4.787104e-05,2,1
-0.0002690902,1.630683e-05,2,1
-0.0002024813,7.594687e-05,2,1
-0.0001173971,0.0001235941,2,1
-2.566809e-05,0.0001561692,2,1
4.580272e-05,0.0001723757,2,1
7.011252e-05,0.0001720516,2,1
3.834771e-05,0.0001569795,2,1
-3.26369e-05,0.0001389903,2,1
-0.0001099421,0.000128456,2,1
-0.0001608306,0.0001244044,2,1
-0.0001731475,0.0001206769,2,1
-0.00015451,0.0001119254,2,1
-0.0001204763,0.0001002567,2,1
-8.320128e-05,9.101894e-05,2,1
-4.511593e-05,8.956036e-05,2,1
-1.20546e-05,9.150514e-05,2,1
1.290346e-05,8.972242e-05,2,1
2.570662e-05,7.821578e-05,2,1
1.97102e-05,5.585077e-05,2,1
-8.975362e-06,2.667901e-05,2,1
-5.840528e-05,2.623614e-07,2,1
-0.0001274451,-1.691656e-05,2,1
-0.0002152845,-1.837515e-05,2,1
-0.000315765,-5.085794e-06,2,1
-0.0004096008,3.665733e-06,2,1
-0.0004679443,-1.367526e-05,2,1
-0.0004726442,-6.278104e-05,2,1
-0.0004329382,-0.0001327933,2,1
-0.0003786463,-0.0002018331,2,1
-0.0003389403,-0.0002480217,2,1
-0.0003277578,-0.0002554767,2,1
-0.0003395886,-0.0002230636,2,1
-0.000355633,-0.0001582375,2,1
-0.0003548227,-7.412562e-05,2,1
-0.0003211132,1.484824e-05,2,1
-0.0002493182,9.782569e-05,2,1
-0.000144624,0.0001670276,2,1
-3.474375e-05,0.0002130541,2,1
4.256141e-05,0.0002328261,2,1
5.536457e-05,0.0002302331,2,1
-1.196227e-06,0.0002091646,2,1
-0.000104756,0.0001726999,2,1
-0.0002224154,0.0001245665,2,1
-0.0003219235,6.508849e-05,2,1
-0.000387884,7.485573e-07,2,1
-0.0004214316,-6.164659e-05,2,1
-0.0004180282,-0.0001131834,2,1
-0.0003582261,-0.0001515928,2,1
-0.0002254946,-0.0001799543,2,1
-2.7937e-05,-0.000206695,2,1
0.0001934442,-0.000236353,2,1
0.000378847,-0.0002652006,2,1
0.0004807861,-0.0002901587,2,1
0.0004848378,-0.0003036101,2,1
0.000413529,-0.0003053928,2,1
0.000319369,-0.0002956689,2,1
0.0002634565,-0.0002758969,2,1
0.0002890628,-0.0002494803,2,1
0.0004005638,-0.0002204706,2,1
0.0005634395,-0.0001964849,2,1
0.0007217774,-0.0001762268,2,1
0.0008186926,-0.0001567789,2,1
0.0008167478,-0.0001339277,2,1
0.000715781,-0.0001045939,2,1
0.0005551741,-6.877746e-05,2,1
0.0003922984,-3.101625e-05,2,1
0.0002790148,-2.238346e-07,2,1
0.0002401191,1.954813e-05,2,1
0.0002733424,3.040651e-05,2,1
0.0003556717,3.899597e-05,2,1
0.0004543695,5.341979e-05,2,1
0.0005402642,7.691926e-05,2,1
0.0005930975,0.0001077117,2,1
0.0006039558,0.0001396385,2,1
0.0005710566,0.0001673517,2,1
0.0005050959,0.0001859892,2,1
0.0004245494,0.0001898788,2,1
0.0003446512,0.0001773998,2,1
0.0002720459,0.0001509831,2,1
0.0002036544,0.0001163011,2,1
0.0001349386,8.064677e-05,2,1
6.281957e-05,4.790957e-05,2,1
-9.299493e-06,2.100672e-05,2,1
-7.931171e-05,1.720949e-06,2,1
-0.000144462,-8.813297e-06,2,1
-0.0002018331,-1.20546e-05,2,1
-0.0002532078,-8.002969e-06,2,1
-0.0002950206,3.341602e-06,2,1
-0.0003254889,2.39239e-05,2,1
-0.0003447747,5.730935e-05,2,1
-0.0003522297,0.0001031738,2,1
-0.0003519055,0.0001574657,2,1
-0.0003525538,0.0002111094,2,1
-0.0003647087,0.0002603772,2,1
-0.0003972838,0.0002997591,2,1
-0.0004502792,0.0003284447,2,1
-0.0005125122,0.000346596,2,1
-0.0005624284,0.000356482,2,1
-0.0005726385,0.0003603715,2,1
-0.0005223983,0.0003572923,2,1
-0.0004173799,0.000349027,2,1
-0.0002828657,0.000339141,2,1
-0.000152079,0.0003269861,2,1
-5.856735e-05,0.0003124002,2,1
-3.198864e-05,0.0002966799,2,1
-8.060823e-05,0.0002809595,2,1
-0.0001815749,0.0002636185,2,1
-0.000290969,0.0002409294,2,1
-0.0003616295,0.00021273,2,1
-0.0003626019,0.0001777239,2,1
-0.0002823795,0.0001368834,2,1
-0.0001279313,9.069481e-05,2,1
6.978839e-05,4.126489e-05,2,1
0.000262322,-9.623623e-06,2,1
0.0003997535,-6.504996e-05,2,1
0.0004511282,-0.0001323071,2,1
0.0004127187,-0.0002159328,2,1
0.0003028383,-0.0003078238,2,1
0.0001511452,-0.0003885323,2,1
-1.189254e-05,-0.000437476,2,1
-0.0001603444,-0.0004450931,2,1
-0.0002767073,-0.0004165696,2,1
-0.0003499608,-0.0003627639,2,1
-0.000370381,-0.0003019894,2,1
-0.0003335922,-0.0002493182,2,1
-0.0002470493,-0.0002128535,2,1
-0.0001310105,-0.0001921092,2,1
-1.432352e-05,-0.0001780095,2,1
7.432621e-05,-0.0001601823,2,1
0.000125863,-0.0001353863,2,1
0.0001349386,-0.0001036215,2,1
9.409818e-05,-7.023606e-05,2,1
9.106227e-07,-4.300908e-05,2,1
-0.0001327933,-2.534396e-05,2,1
-0.0002820554,-1.967167e-05,2,1
-0.0004206212,-2.712668e-05,2,1
-0.0005321222,-4.835724e-05,2,1
-0.0006150996,-8.044617e-05,2,1
-0.0006703638,-0.0001253383,2,1
-0.0007026148,-0.0001862748,2,1
-0.0007115284,-0.0002572594,2,1
-0.0006998597,-0.0003215994,2,1
-0.0006640433,-0.0003630881,2,1
-0.0005967862,-0.0003674638,2,1
-0.0004932265,-0.000333268,2,1
-0.0003512573,-0.0002747625,2,1
-0.000166827,-0.0002131776,2,1
6.103686e-05,-0.0001621271,2,1
0.0003127243,-0.0001251762,2,1
0.0005546879,-9.989401e-05,2,1
0.0007524078,-8.433573e-05,2,1
0.0008885428,-7.769106e-05,2,1
0.0009609861,-7.639453e-05,2,1
0.0009801098,-6.748094e-05,2,1
0.0009575827,-3.895745e-05,2,1
0.0009045873,1.371378e-05,2,1
0.0008384645,8.42122e-05,2,1
0.0007872519,0.000160545,2,1
0.0007729901,0.000232502,2,1
0.0008092928,0.0002940868,2,1
0.0008883807,0.0003414099,2,1
0.000992751,0.0003697714,2,1
0.001100849,0.0003723644,2,1
0.001190633,0.0003495132,2,1
0.001248004,0.0003140208,2,1
0.001265993,0.0002803113,2,1
0.001241684,0.000259891,2,1
0.001184636,0.0002587566,2,1
0.001114786,0.00027707,2,1
0.001044936,0.0003086727,2,1
0.0009718445,0.0003472443,2,1
0.0008818981,0.0003816021,2,1
0.0007493285,0.0004044533,2,1
0.000547233,0.0004136911,2,1
0.0002696149,0.0004140152,2,1
-6.051213e-05,0.0004073705,2,1
-0.000397608,0.0003879227,2,1
-0.0006979149,0.0003509718,2,1
-0.0009291821,0.0003008936,2,1
-0.001066938,0.0002490327,2,1
-0.001104861,0.000205275,2,1
-0.001045059,0.0001786963,2,1
-0.0009123273,0.0001749688,2,1
-0.0007559343,0.0001900409,2,1
-0.0006269303,0.0002067336,2,1
-0.0005561078,0.0002106232,2,1
-0.0005548113,0.0001890685,2,1
-0.0006121824,0.0001325077,2,1
-0.0007061802,3.672706e-05,2,1
-0.0008144398,-8.725291e-05,2,1
-0.0009111929,-0.0002120432,2,1
-0.0009682399,-0.0003102548,2,1
-0.0009598124,-0.0003635742,2,1
-0.0008667869,-0.0003737844,2,1
-0.0006927288,-0.000360333,2,1
-0.0004674581,-0.0003410472,2,1
-0.0002371633,-0.0003219235,2,1
-5.192267e-05,-0.0003050687,2,1
5.260946e-05,-0.0002888622,2,1
7.481241e-05,-0.0002707109,2,1
4.936815e-05,-0.000253856,2,1
3.056858e-05,-0.0002420253,2,1
5.358185e-05,-0.0002337599,2,1
0.0001257009,-0.0002271153,2,1
0.0002337985,-0.0002207947,2,1
0.000359075,-0.0002194982,2,1
0.0004846757,-0.0002241981,2,1
0.0005956905,-0.0002335979,2,1
0.0006705648,-0.0002421874,2,1
0.0006807749,-0.0002402425,2,1
0.0006047662,-0.0002211189,2,1
0.0004388112,-0.0001823853,2,1
0.0002018716,-0.0001258245,2,1
-6.180866e-05,-5.208474e-05,2,1
-0.000305879,3.154097e-05,2,1
-0.0005005194,0.0001150046,2,1
-0.0006316302,0.0001890685,2,1
-0.0006998597,0.0002472499,2,1
-0.000707963,0.0002832284,2,1
-0.0006596675,0.0002934386,2,1
-0.0005661559,0.0002782044,2,1
-0.0004470379,0.0002493568,2,1
-0.0003303509,0.0002185644,2,1
-0.0002382978,0.0001884202,2,1
-0.0001804405,0.0001571416,2,1
-0.0001530514,0.0001205148,2,1
-0.0001561307,8.145709e-05,2,1
-0.0001947022,4.191315e-05,2,1
-0.000268766,4.638125e-06,2,1
-0.0003776739,-2.680255e-05,2,1
-0.000516888,-4.511593e-05,2,1
-0.0006648536,-4.819517e-05,2,1
-0.0007940196,-3.863332e-05,2,1
-0.0008823453,-2.42095e-05,2,1
-0.000909248,-1.545797e-05,2,1
-0.0008708386,-2.242678e-05,2,1
-0.0007857543,-4.932962e-05,2,1
-0.0006794395,-9.049421e-05,2,1
-0.0005760419,-0.0001368449,2,1
-0.0004885266,-0.0001783336,2,1
-0.0004147869,-0.0002053985,2,1
-0.000335537,-0.0002088019,2,1
-0.0002237119,-0.0001825473,2,1
-6.877746e-05,-0.000132145,2,1
0.000110953,-6.764301e-05,2,1
0.0002793389,-2.006553e-06,2,1
0.0003960259,5.714729e-05,2,1
0.0004422146,0.0001051186,2,1
0.0004303838,0.0001409351,2,1
0.000408505,0.0001657311,2,1
0.0004397836,0.0001869616,2,1
0.0005589016,0.0002124059,2,1
0.0007519216,0.0002461155,2,1
0.0009770306,0.0002830664,2,1
0.001189498,0.0003151553,2,1
0.001344919,0.0003405996,2,1
0.001414121,0.0003572923,2,1
0.001393053,0.0003647473,2,1
0.001298082,0.0003649094,2,1
0.001157896,0.0003675024,2,1
0.0009948577,0.0003772264,2,1
0.0008196649,0.0003872744,2,1
0.0006306967,0.00038614,2,1
0.0004331389,0.000371392,2,1
0.0002419018,0.000344165,2,1
7.691926e-05,0.000304297,2,1
-4.171256e-05,0.0002501671,2,1
-0.0001099421,0.0001884202,2,1
-0.0001386276,0.0001232699,2,1
-0.0001527273,5.374392e-05,2,1
-0.0001799543,-2.291298e-05,2,1
-0.0002378116,-0.0001101041,2,1
-0.0003217614,-0.0002070192,2,1
-0.0004180282,-0.0003104168,2,1
-0.0005107295,-0.0004110594,2,1
-0.0005809038,-0.0004963057,2,1
-0.0006121824,-0.0005583767,2,1
-0.0005933828,-0.0005987309,2,1
-0.0005317981,-0.0006193133,2,1
-0.0004460655,-0.0006274165,2,1
-0.0003502849,-0.0006296854,2,1
-0.0002473734,-0.0006282268,2,1
-0.0001357104,-0.0006215822,2,1
-3.020592e-05,-0.0006042412,2,1
4.596478e-05,-0.0005698834,2,1
8.550872e-05,-0.0005176983,2,1
0.0001146805,-0.0004540067,2,1
0.0001785342,-0.0003890185,2,1
0.0002889007,-0.0003274337,2,1
0.0004213082,-0.0002707109,2,1
0.0005238955,-0.0002169052,2,1
0.000544964,-0.0001665028,2,1
0.0004639314,-0.000119828,2,1
0.0003028383,-7.574627e-05,2,1
0.0001130598,-3.069211e-05,2,1
-5.516398e-05,1.614476e-05,2,1
-0.000174444,6.217132e-05,2,1
-0.0002428356,0.0001080358,2,1
-0.0002728177,0.0001501728,2,1
-0.0002869174,0.0001806411,2,1
-0.0002945344,0.0001989545,2,1
-0.0002888622,0.0002094887,2,1
-0.0002601766,0.0002185644,2,1
-0.0002104225,0.0002303951,2,1
-0.0001536997,0.0002453052,2,1
-0.0001045939,0.0002619979,2,1
-6.472583e-05,0.0002778803,2,1
-2.518189e-05,0.000289387,2,1
1.436204e-05,0.0002929524,2,1
4.612685e-05,0.00029198,2,1
6.881599e-05,0.000289387,2,1
9.101894e-05,0.0002833905,2,1
0.0001222976,0.0002710735,2,1
0.0001662173,0.0002514636,2,1
0.0002195368,0.0002256952,2,1
0.0002715597,0.0001921477,2,1
0.0003083486,0.0001524417,2,1
0.0003177483,0.0001130598,2,1
0.0002924662,7.886404e-05,2,1
0.0002391467,4.580272e-05,2,1
0.0001791825,1.1769e-05,2,1
0.000130887,-2.226472e-05,2,1
0.0001015532,-5.467778e-05,2,1
8.74535e-05,-7.801519e-05,2,1
8.810177e-05,-8.547019e-05,2,1
9.53947e-05,-7.007399e-05,2,1
8.907416e-05,-3.766092e-05,2,1
5.017848e-05,-8.720959e-07,2,1
-2.09682e-05,2.943412e-05,2,1
-0.0001091317,4.790957e-05,2,1
-0.0001925954,5.860588e-05,2,1
-0.0002527216,7.124698e-05,2,1
-0.0002778417,9.426025e-05,2,1
-0.0002652006,0.0001310491,2,1
-0.0002188499,0.0001773998,2,1
-0.0001473791,0.0002240746,2,1
-6.342931e-05,0.0002650771,2,1
2.684107e-05,0.0002947351,2,1
0.0001156529,0.0003098072,2,1
0.0001837203,0.0003114278,2,1
0.0002117576,0.0003002453,2,1
0.0001913374,0.0002777182,2,1
0.0001313732,0.0002467637,2,1
4.888196e-05,0.0002148369,2,1
-4.025397e-05,0.0001889064,2,1
-0.0001261486,0.000170593,2,1
-0.0001974573,0.0001571416,2,1
-0.0002370013,0.0001521176,2,1
-0.0002342462,0.0001561692,2,1
-0.0002000504,0.0001633001,2,1
-0.0001592099,0.0001647587,2,1
-0.0001329553,0.0001509831,2,1
-0.0001267968,0.0001177597,2,1
-0.0001151281,6.978839e-05,2,1
-6.035007e-05,1.857574e-05,2,1
5.730935e-05,-2.809907e-05,2,1
0.0002253711,-6.958779e-05,2,1
0.0003999155,-0.0001079973,2,1
0.0005311884,-0.0001426792,2,1
0.0005909906,-0.0001736337,2,1
0.00057446,-0.0001974573,2,1
0.000490348,-0.0002092881,2,1
0.0003587509,-0.0002071812,2,1
0.00021273,-0.000196647,2,1
9.393612e-05,-0.0001849783,2,1
4.045456e-05,-0.0001789819,2,1
6.249545e-05,-0.0001754164,2,1
0.0001316974,-0.0001712027,2,1
0.0002038164,-0.0001626133,2,1
0.0002440086,-0.000149486,2,1
0.0002412535,-0.000134738,2,1
0.0002017096,-0.0001204763,2,1
0.0001339663,-0.00010978,2,1
5.471631e-05,-0.0001021629,2,1
-1.237873e-05,-9.649064e-05,2,1
-4.90055e-05,-9.438378e-05,2,1
-5.775702e-05,-9.616651e-05,2,1
-6.667062e-05,-0.0001010285,2,1
-0.0001070249,-0.0001057284,2,1
-0.0001969711,-0.0001089697,2,1
-0.0003243544,-0.0001078352,2,1
-0.0004553032,-9.924574e-05,2,1
-0.0005509217,-8.514606e-05,2,1
-0.0005894933,-7.039812e-05,2,1
-0.0005784728,-6.44017e-05,2,1
-0.0005457356,-6.91016e-05,2,1
-0.0005189948,-8.222889e-05,2,1
-0.000514457,-9.503204e-05,2,1
-0.0005369841,-9.762509e-05,2,1
-0.000583821,-8.303922e-05,2,1
-0.0006431369,-5.32192e-05,2,1
-0.0006958081,-1.950961e-05,2,1
-0.0007116905,1.1769e-05,2,1
-0.0006601537,4.223728e-05,2,1
-0.0005126743,6.978839e-05,2,1
-0.0002666592,9.247754e-05,2,1
4.985435e-05,0.0001096565,2,1
0.0003856538,0.0001213252,2,1
0.000683692,0.000133318,2,1
0.0008937289,0.0001466074,2,1
0.0009974508,0.0001603829,2,1
0.0009964785,0.0001752929,2,1
0.0009094492,0.0001939304,2,1
0.0007695867,0.0002162954,2,1
0.000601849,0.0002402811,2,1
0.0004193634,0.0002610255,2,1
0.0002346088,0.0002709115,2,1
6.087479e-05,0.0002610255,2,1
-8.07703e-05,0.0002180782,2,1
-0.0001712027,0.0001399627,2,1
-0.000206695,4.434413e-05,2,1
-0.0002024813,-4.398147e-05,2,1
-0.0001825473,-0.0001024871,2,1
-0.0001501342,-0.0001159385,2,1
-8.482193e-05,-7.995997e-05,2,1
4.418206e-05,-7.678839e-06,2,1
0.0002381743,8.016057e-05,2,1
0.000463121,0.0001642725,2,1
0.0006608408,0.000234933,2,1
0.0007773659,0.0002927903,2,1
0.0007794728,0.0003357376,2,1
0.0006694303,0.0003543751,2,1
0.0004697657,0.0003396272,2,1
0.0002172679,0.0002948972,2,1
-3.668853e-05,0.000227478,2,1
-0.0002376495,0.0001470936,2,1
-0.0003588744,6.265751e-05,2,1
-0.0004113835,-2.226472e-05,2,1
-0.0004237005,-0.0001084835,2,1
-0.000419973,-0.0001908126,2,1
-0.000410249,-0.0002561249,2,1
-0.0003980942,-0.0002968033,2,1
-0.0003862634,-0.0003160891,2,1
-0.0003760533,-0.0003230579,2,1
-0.0003651949,-0.0003233821,2,1
-0.0003575778,-0.0003180339,2,1
-0.0003664914,-0.0003065273,2,1
-0.0004010113,-0.0002922655,2,1
-0.0004463896,-0.0002752487,2,1
-0.0004763717,-0.0002522354,2,1
-0.000472158,-0.0002198223,2,1
-0.0004319658,-0.0001784957,2,1
-0.000372974,-0.0001357104,2,1
-0.0003191683,-9.713889e-05,2,1
-0.0002908069,-6.278104e-05,2,1
-0.0002917793,-3.166451e-05,2,1
-0.0003138202,-3.789272e-06,2,1
-0.0003373197,1.355172e-05,2,1
-0.0003441264,5.448452e-06,2,1
-0.0003248407,-3.085418e-05,2,1
-0.0002823795,-8.514606e-05,2,1
-0.0002250084,-0.0001379794,2,1
-0.000159534,-0.000176713,2,1
-9.892161e-05,-0.0001947022,2,1
-5.402952e-05,-0.0001955125,2,1
-2.291298e-05,-0.0001820611,2,1
-2.978945e-06,-0.0001575893,2,1
5.286387e-06,-0.0001284175,2,1
3.827799e-06,-0.0001011905,2,1
-6.176923e-08,-7.866345e-05,2,1
-4.437533e-06,-5.532604e-05,2,1
-1.513384e-05,-2.275091e-05,2,1
-4.317115e-05,2.181705e-05,2,1
-8.303922e-05,7.562274e-05,2,1
-0.0001180453,0.0001261871,2,1
-0.0001238797,0.0001594105,2,1
-7.461182e-05,0.0001650828,2,1
2.81376e-05,0.0001496866,2,1
0.0001477418,0.0001235941,2,1
0.0002337985,9.960841e-05,2,1
0.0002584324,8.372601e-05,2,1
0.0002258573,7.497447e-05,2,1
0.0001654069,7.027458e-05,2,1
0.0001096565,6.719535e-05,2,1
7.659513e-05,6.735741e-05,2,1
6.735741e-05,7.52986e-05,2,1
7.384002e-05,9.21534e-05,2,1
8.567078e-05,0.0001151667,2,1
9.344993e-05,0.0001367214,2,1
0.000103498,0.0001566554,2,1
0.0001320215,0.0001757791,2,1
0.0001908512,0.0001939304,2,1
0.0002757735,0.000207706,2,1
0.0003647473,0.0002115956,2,1
0.0004300596,0.000200251,2,1
0.000458259,0.0001694586,2,1
0.0004542074,0.0001177597,2,1
0.000448211,5.098881e-05,2,1
0.0004911583,-1.691656e-05,2,1
0.0006294001,-7.380149e-05,2,1
0.0008609917,-0.0001070249,2,1
0.001120134,-0.000112373,2,1
0.001317044,-9.276313e-05,2,1
0.001396942,-5.775702e-05,2,1
0.001357723,-1.416145e-05,2,1
0.001229691,3.267542e-05,2,1
0.001058225,7.886404e-05,2,1
0.0008942151,0.0001239182,2,1
0.0007738004,0.0001673517,2,1
0.0007018434,0.0002080301,2,1
0.0006507927,0.0002438466,2,1
0.0005768909,0.0002678322,2,1
0.0004511282,0.0002699391,2,1
0.0002725321,0.0002435224,2,1
7.011252e-05,0.0001923098,2,1
-0.0001159385,0.0001292664,2,1
-0.0002494803,7.140904e-05,2,1
-0.0003228959,2.846173e-05,2,1
-0.0003570916,4.244267e-07,2,1
-0.0003788084,-1.740276e-05,2,1
-0.000407656,-3.036798e-05,2,1
-0.0004450931,-4.187462e-05,2,1
-0.000482044,-5.581224e-05,2,1
-0.0005178604,-7.65566e-05,2,1
-0.0005531906,-0.0001021629,2,1
-0.000583821,-0.0001251762,2,1
-0.0006048895,-0.000134738,2,1
-0.0006155858,-0.0001280934,2,1
-0.0006204477,-0.0001118868,2,1
-0.000623689,-0.0001008664,2,1
-0.0006262821,-0.0001060525,2,1
-0.0006259579,-0.0001326312,2,1
-0.0006133168,-0.0001762268,2,1
-0.0005800935,-0.0002256567,2,1
-0.000526774,-0.0002658489,2,1
-0.0004643789,-0.0002888622,2,1
-0.0004011734,-0.0002924276,2,1
-0.0003403989,-0.000281083,2,1
-0.0002867553,-0.0002627696,2,1
-0.0002504527,-0.0002472114,2,1
-0.0002350565,-0.0002425115,2,1
-0.0002347323,-0.0002459149,2,1
-0.0002350565,-0.0002451045,2,1
-0.0002329496,-0.0002230636,2,1
-0.0002397564,-0.0001737958,2,1
-0.0002718453,-0.0001062146,2,1
-0.0003292164,-3.814712e-05,2,1
-0.000405225,1.808955e-05,2,1
-0.0004956574,5.277153e-05,2,1
-0.0005964621,6.362991e-05,2,1
-0.0006967805,5.244739e-05,2,1
-0.0007828371,2.894792e-05,2,1
-0.0008389117,-3.858999e-07,2,1
-0.0008541459,-3.036798e-05,2,1
-0.0008256224,-5.840528e-05,2,1
-0.0007531792,-8.352541e-05,2,1
-0.0006441093,-0.0001026491,2,1
-0.0005136467,-0.0001081593,2,1
-0.0003851289,-9.422172e-05,2,1
-0.0002747625,-6.0188e-05,2,1
-0.0001775233,-1.3027e-05,2,1
-7.039812e-05,3.640293e-05,2,1
7.708133e-05,7.983644e-05,2,1
0.0002814457,0.0001128978,2,1
0.0005430193,0.000135749,2,1
0.000834737,0.0001479039,2,1
0.001106035,0.0001496866,2,1
0.001289979,0.0001454729,2,1
0.001341678,0.0001409351,2,1
0.001277662,0.0001412592,2,1
0.001167458,0.0001448246,2,1
0.001087073,0.0001485521,2,1
0.001074756,0.0001563313,2,1
0.001119324,0.0001765894,2,1
0.001175237,0.0002156472,2,1
0.00118253,0.0002691288,2,1
0.001094042,0.0003234207,2,1
0.0008930806,0.0003696093,2,1
0.0006010387,0.0004039671,2,1
0.0002631324,0.0004248736,2,1
-7.250496e-05,0.000435732,2,1
-0.000360495,0.0004373526,2,1
-0.0005692351,0.0004315182,2,1
-0.0006894876,0.0004187151,2,1
-0.0007382692,0.0003952156,2,1
-0.000742807,0.0003556717,2,1
-0.0007421587,0.0002997591,2,1
-0.0007651721,0.0002386605,2,1
-0.0008116848,0.0001846927,2,1
-0.0008578734,0.0001427178,2,1
-0.0008802384,0.000113384,2,1
-0.0008588458,9.426025e-05,2,1
-0.0007718167,8.46984e-05,2,1
-0.0006039171,8.307774e-05,2,1
-0.0003626019,8.016057e-05,2,1
-8.644259e-05,6.978839e-05,2,1
0.0001657311,5.179914e-05,2,1
0.0003412479,3.494434e-05,2,1
0.0004120704,2.359977e-05,2,1
0.000383709,1.695509e-05,2,1
0.0002950592,7.555301e-06,2,1
0.0002018716,-1.059602e-05,2,1
0.0001522796,-3.425755e-05,2,1
0.0001590864,-5.69467e-05,2,1
0.0001999268,-7.023606e-05,2,1
0.0002487085,-6.91016e-05,2,1
0.0002953834,-6.148453e-05,2,1
0.0003388169,-5.613637e-05,2,1
0.0003720403,-5.111234e-05,2,1
0.0003874365,-4.706071e-05,2,1
0.0003843572,-4.252288e-05,2,1
0.0003697714,-3.522994e-05,2,1
0.0003487029,-2.777494e-05,2,1
0.0003299033,-2.550602e-05,2,1
0.0003203414,-3.198864e-05,2,1
0.0003156415,-4.85193e-05,2,1
0.0003059176,-7.623246e-05,2,1
0.0002842008,-0.0001105903,2,1
0.000244981,-0.0001438137,2,1
0.0001892305,-0.0001665028,2,1
0.0001271595,-0.0001762268,2,1
7.935024e-05,-0.0001771992,2,1
5.763349e-05,-0.0001747682,2,1
6.233338e-05,-0.000174444,2,1
8.453633e-05,-0.0001789819,2,1
0.0001044704,-0.0001922712,2,1
9.782569e-05,-0.0002126914,2,1
5.163707e-05,-0.0002365151,2,1
-3.053005e-05,-0.0002601766,2,1
-0.0001339277,-0.0002831898,2,1
-0.0002429977,-0.0003011791,2,1
-0.0003438023,-0.0003115513,2,1
-0.0004224039,-0.000310903,2,1
-0.000467134,-0.0003026377,2,1
-0.0004732924,-0.000288538,2,1
-0.0004506033,-0.0002682799,2,1
-0.0004147869,-0.0002434839,2,1
-0.0003804291,-0.00021415,2,1
-0.0003525538,-0.0001861127,2,1
-0.0003201407,-0.0001627754,2,1
-0.0002656868,-0.0001408965,2,1
-0.0001754164,-0.0001180453,2,1
-5.354332e-05,-9.778715e-05,2,1
7.724339e-05,-7.785312e-05,2,1
0.0001992786,-5.483985e-05,2,1
0.0003065659,-3.134038e-05,2,1
0.000396188,-9.785688e-06,2,1
0.0004597176,1.12828e-05,2,1
0.0004861343,3.769945e-05,2,1
0.0004634451,7.918817e-05,2,1
0.0003913261,0.0001389903,2,1
0.0002812837,0.0002104611,2,1
0.0001621656,0.0002752873,2,1
6.330578e-05,0.0003183966,2,1
-3.858999e-07,0.0003360618,2,1
-3.312309e-05,0.0003354135,2,1
-5.808115e-05,0.0003256896,2,1
-9.892161e-05,0.0003154794,2,1
-0.0001609926,0.0003114278,2,1
-0.0002332737,0.0003132105,2,1
-0.0002953447,0.0003145071,2,1
-0.0003337542,0.0003111037,2,1
-0.0003438023,0.0003052694,2,1
-0.0003238683,0.0003028383,2,1
-0.0002697385,0.000307052,2,1
-0.000179306,0.000314345,2,1
-5.937768e-05,0.0003133726,2,1
6.687121e-05,0.0002966799,2,1
0.0001743205,0.0002624841,2,1
0.0002469258,0.0002149989,2,1
0.00027707,0.0001628139,2,1
0.0002595669,0.0001179218,2,1
0.0001923098,9.069481e-05,2,1
8.486046e-05,8.826383e-05,2,1
-4.625038e-05,0.0001015532,2,1
-0.0001831956,0.0001174356,2,1
-0.0003141443,0.0001250527,2,1
-0.0004287245,0.000113546,2,1
-0.0005100812,6.719535e-05,2,1
-0.0005446012,-1.707863e-05,2,1
-0.0005324463,-0.0001259865,2,1
-0.0004924161,-0.0002306807,2,1
-0.0004507654,-0.0003065273,2,1
-0.0004311555,-0.0003468815,2,1
-0.0004442827,-0.0003549848,2,1
-0.0004878783,-0.0003403989,2,1
-0.000549139,-0.0003120375,2,1
-0.0006215822,-0.0002755728,2,1
-0.0006984011,-0.0002371633,2,1
-0.0007729512,-0.0001995642,2,1
-0.0008418289,-0.0001614788,2,1
-0.0009003344,-0.0001190177,2,1
-0.0009392301,-7.088431e-05,2,1
-0.0009517092,-2.777494e-05,2,1
-0.0009269132,-6.176923e-08,2,1
-0.0008580354,1.031041e-05,2,1
-0.0007439415,7.23117e-06,2,1
-0.0005852795,1.396819e-06,2,1
-0.0003859393,-5.479652e-07,2,1
-0.0001608306,2.623614e-07,2,1
7.238143e-05,-2.81688e-06,2,1
0.0002973281,-1.545797e-05,2,1
