EMG1,EMG2,class,user
-6.991193e-05,-9.892161e-05,2,1
-0.000119666,-9.827335e-05,2,1
-0.0001741199,-9.551824e-05,2,1
-0.0002368392,-8.611845e-05,2,1
-0.0003065273,-6.893953e-05,2,1
-0.0003700569,-5.208474e-05,2,1
-0.000415111,-4.05781e-05,2,1
-0.0004361795,-3.749886e-05,2,1
-0.0004347209,-4.657452e-05,2,1
-0.0004084663,-6.148453e-05,2,1
-0.0003591985,-7.072225e-05,2,1
-0.0002972895,-6.586029e-05,2,1
-0.0002407288,-4.673658e-05,2,1
-0.0002031296,-2.226472e-05,2,1
-0.000191785,-1.196227e-06,2,1
-0.0001961608,9.66215e-06,2,1
-0.0001953505,7.069105e-06,2,1
-0.0001755785,-5.247859e-06,2,1
-0.000137169,-1.918548e-05,2,1
-9.065628e-05,-3.150244e-05,2,1
-6.504996e-05,-4.38194e-05,2,1
-8.676672e-05,-5.953974e-05,2,1
-0.0001624512,-8.02841e-05,2,1
-0.0002737901,-0.0001060525,2,1
-0.0003964735,-0.0001334415,2,1
-0.000514457,-0.000159534,2,1
-0.0006144513,-0.0001783336,2,1
-0.0006911082,-0.0001893541,2,1
-0.0007475069,-0.0001937298,2,1
-0.0007834854,-0.0001901644,2,1
-0.0007949921,-0.0001784957,2,1
-0.0007710064,-0.000164396,2,1
-0.0007066664,-0.0001540238,2,1
-0.0006089411,-0.0001533756,2,1
-0.000494523,-0.0001639098,2,1
-0.0003762153,-0.0001788198,2,1
-0.0002585559,-0.0001906506,2,1
-0.0001342519,-0.000191623,2,1
8.689758e-06,-0.0001822232,2,1
0.0001735102,-0.0001666649,2,1
0.0003522683,-0.000149486,2,1
0.0005251921,-0.0001323071,2,1
0.0006645683,-0.0001143178,2,1
0.0007475458,-9.503204e-05,2,1
0.0007650489,-7.072225e-05,2,1
0.0007287462,-3.717473e-05,2,1
0.0006746164,6.258778e-06,2,1
0.0006456067,5.666109e-05,2,1
0.0006798024,0.0001088461,2,1
0.0007947069,0.000160545,2,1
0.0009805959,0.0002073819,2,1
0.00119436,0.0002490327,2,1
0.001383653,0.0002837146,2,1
0.001496289,0.0003104554,2,1
0.001511361,0.0003311998,2,1
0.0014313,0.0003470822,2,1
0.001278635,0.0003545372,2,1
0.001079618,0.0003501615,2,1
0.000864395,0.0003378445,2,1
0.0006610029,0.0003235827,2,1
0.0004895377,0.0003102934,2,1
0.0003572923,0.0003004074,2,1
0.0002644289,0.0002999212,2,1
0.0002051129,0.0003086727,2,1
0.0001658931,0.0003252034,2,1
0.0001376938,0.000341572,2,1
0.0001253768,0.0003542131,2,1
0.0001493625,0.0003624784,2,1
0.0002344468,0.0003725265,2,1
0.0003913261,0.0003869503,2,1
0.0005914768,0.0004002396,2,1
0.0007707212,0.0004042913,2,1
0.0008603434,0.0003974845,2,1
0.0008209614,0.0003799815,2,1
0.0006533858,0.0003559958,2,1
0.000393595,0.0003266619,2,1
9.620504e-05,0.0002963557,2,1
-0.0001869231,0.0002683184,2,1
-0.0004293727,0.000239957,2,1
-0.0006280648,0.0002125679,2,1
-0.0007922369,0.0001876099,2,1
-0.0009356647,0.000165569,2,1
-0.001064669,0.0001443384,2,1
-0.001171146,0.0001201907,2,1
-0.001235972,9.134307e-05,2,1
-0.001246506,5.876794e-05,2,1
-0.001203397,2.619281e-05,2,1
-0.00112836,5.86492e-07,2,1
-0.001053972,-1.756482e-05,2,1
-0.001008108,-3.134038e-05,2,1
-0.001003246,-4.317115e-05,2,1
-0.001025287,-5.662256e-05,2,1
-0.001047976,-6.861539e-05,2,1
-0.001046679,-7.65566e-05,2,1
-0.001010215,-7.995997e-05,2,1
-0.0009457127,-8.02841e-05,2,1
-0.0008635456,-8.07703e-05,2,1
-0.0007758683,-9.017008e-05,2,1
-0.0006933771,-0.0001115627,2,1
-0.0006314681,-0.0001452723,2,1
-0.0005997034,-0.0001846542,2,1
-0.0005977586,-0.0002250084,2,1
-0.0006146134,-0.0002642282,2,1
-0.0006287131,-0.0003037722,2,1
-0.0006238511,-0.0003463953,2,1
-0.0005896553,-0.0003901529,2,1
-0.0005238568,-0.0004322899,2,1
-0.0004345588,-0.000472158,2,1
-0.0003460712,-0.0005071641,2,1
-0.0002869174,-0.0005382806,2,1
-0.0002697385,-0.0005650214,2,1
-0.0002846485,-0.0005833348,2,1
-0.0003081479,-0.0005843072,2,1
-0.0003194925,-0.0005612939,2,1
-0.0003131719,-0.0005121881,2,1
-0.0002980999,-0.0004463896,2,1
-0.000286107,-0.0003775118,2,1
-0.0002840002,-0.000315765,2,1
-0.000281083,-0.0002632558,2,1
-0.0002574215,-0.0002125294,2,1
-0.0002049123,-0.0001642339,2,1
-0.0001349001,-0.0001211246,2,1
-6.731888e-05,-8.709085e-05,2,1
-1.886135e-05,-6.342931e-05,2,1
3.665733e-06,-4.835724e-05,2,1
-3.789272e-06,-3.571614e-05,2,1
-3.555408e-05,-2.372331e-05,2,1
-7.590833e-05,-1.480971e-05,2,1
-9.730096e-05,-1.010982e-05,2,1
-6.634648e-05,-2.654814e-06,2,1
3.494434e-05,9.824215e-06,2,1
0.0002005751,2.748934e-05,2,1
0.0004005638,4.645098e-05,2,1
0.0006007145,6.087479e-05,2,1
0.0007666696,6.41161e-05,2,1
0.0008679605,5.309566e-05,2,1
0.0008972943,3.332369e-05,2,1
0.0008695811,1.257933e-05,2,1
0.0008081583,-2.654814e-06,2,1
0.0007331221,-9.299493e-06,2,1
0.0006524134,-4.599598e-06,2,1
0.0005687877,1.452411e-05,2,1
0.000487917,5.115087e-05,2,1
0.0004192013,0.0001038221,2,1
0.0003681507,0.0001683241,2,1
0.0003320101,0.000235095,2,1
0.0002986247,0.0002932765,2,1
0.0002551911,0.0003378445,2,1
0.0001981441,0.000366368,2,1
0.0001312112,0.0003822504,2,1
6.622294e-05,0.0003906778,2,1
1.257933e-05,0.0003931088,2,1
-1.918548e-05,0.0003919743,2,1
-1.513384e-05,0.0003903536,2,1
4.839576e-05,0.0003879227,2,1
0.0001799928,0.0003835469,2,1
0.0003543751,0.0003767402,2,1
0.0005174129,0.0003665301,2,1
0.0006097901,0.0003504856,2,1
0.0006021731,0.0003255275,2,1
0.000500234,0.0002901973,2,1
0.0003350894,0.0002516257,2,1
0.0001527658,0.000210137,2,1
-7.354709e-06,0.0001639484,2,1
-0.0001243659,0.0001127357,2,1
-0.0001934057,6.152305e-05,2,1
-0.0002253326,1.889987e-05,2,1
-0.000238784,-4.437533e-06,2,1
-0.0002561249,-5.085794e-06,2,1
-0.0002911311,1.436204e-05,2,1
-0.0003400748,4.515445e-05,2,1
-0.0003896668,7.6271e-05,2,1
-0.0004287245,0.0001000946,2,1
-0.0004557894,0.0001119254,2,1
-0.0004747511,0.0001086841,2,1
-0.0004909576,9.020862e-05,2,1
-0.0005034366,5.99024e-05,2,1
-0.0005048952,2.505836e-05,2,1
-0.0004865818,-7.516774e-06,2,1
-0.0004418518,-3.555408e-05,2,1
-0.0003697327,-6.261898e-05,2,1
-0.0002747625,-9.211487e-05,2,1
-0.0001658546,-0.000127121,2,1
-3.393342e-05,-0.0001674752,2,1
0.0001448246,-0.0002063709,2,1
0.0003819262,-0.0002391081,2,1
0.0006486859,-0.000263742,2,1
0.0008945392,-0.0002809209,2,1
0.001077835,-0.0002968033,2,1
0.001182206,-0.0003164132,2,1
0.001203922,-0.0003438023,2,1
0.001152385,-0.0003818876,2,1
0.001052391,-0.0004326141,2,1
0.0009314902,-0.0004890127,2,1
0.0008135065,-0.0005368221,2,1
0.0007159431,-0.0005632387,2,1
0.0006533858,-0.000556594,2,1
0.0006366931,-0.0005126743,2,1
0.0006647304,-0.000437476,2,1
0.0007268014,-0.0003412093,2,1
0.0008078342,-0.0002400805,2,1
0.0008921082,-0.0001438137,2,1
0.0009574206,-6.245691e-05,2,1
0.0009827028,-3.303076e-06,2,1
0.0009603378,3.429608e-05,2,1
0.0009000494,5.649903e-05,2,1
0.0008209614,6.995045e-05,2,1
0.0007399287,7.935024e-05,2,1
0.0006624615,8.939829e-05,2,1
0.0005880735,0.0001051186,2,1
0.0005130371,0.0001281319,2,1
0.0004261701,0.0001582761,2,1
0.0003145071,0.0001914995,2,1
0.0001749688,0.0002216436,2,1
1.59827e-05,0.0002427121,2,1
-0.0001417068,0.0002532463,2,1
-0.0002844864,0.0002569738,2,1
-0.0004005251,0.0002560015,2,1
-0.0004854474,0.0002480603,2,1
-0.0005415219,0.000235095,2,1
-0.0005775004,0.0002240746,2,1
-0.0006039171,0.0002208333,2,1
-0.000623527,0.0002295848,2,1
-0.0006356818,0.0002519498,2,1
-0.0006397335,0.0002859836,2,1
-0.0006429748,0.0003209897,2,1
-0.0006520505,0.0003451374,2,1
-0.0006562641,0.0003524304,2,1
-0.0006360059,0.0003457857,2,1
-0.0005770142,0.0003344411,2,1
-0.0004799371,0.0003253654,2,1
-0.0003640605,0.0003172622,2,1
-0.0002551526,0.0003060797,2,1
-0.0001770371,0.0002900352,2,1
-0.0001475412,0.0002702632,2,1
-0.0001741199,0.0002519498,2,1
-0.0002446183,0.0002407673,2,1
-0.0003324577,0.0002389846,2,1
-0.000412518,0.0002441707,2,1
-0.0004700511,0.0002487085,2,1
-0.0005034366,0.0002459534,2,1
-0.0005181845,0.0002302331,2,1
-0.0005254775,0.0002017096,2,1
-0.0005314739,0.0001633001,2,1
-0.0005382806,0.0001174356,2,1
-0.0005429805,7.173317e-05,2,1
-0.0005382806,2.862379e-05,2,1
-0.0005183466,-1.156841e-05,2,1
-0.0004843129,-4.85193e-05,2,1
-0.000444769,-8.07703e-05,2,1
-0.0004107352,-0.0001092938,2,1
-0.0003917736,-0.0001349001,2,1
-0.0003916115,-0.0001566169,2,1
-0.0004078181,-0.0001759026,2,1
-0.0004313175,-0.000196647,2,1
-0.0004509274,-0.0002245222,2,1
-0.0004630823,-0.0002592042,2,1
-0.0004706994,-0.0002958309,2,1
-0.0004749131,-0.0003287302,2,1
-0.0004778303,-0.000348016,2,1
-0.000489499,-0.0003520676,2,1
-0.0005235327,-0.0003379679,2,1
-0.00058139,-0.0003055549,2,1
-0.0006455678,-0.0002569353,2,1
-0.0006847876,-0.0002023193,2,1
-0.0006710121,-0.0001532135,2,1
-0.0005998655,-0.0001182074,2,1
-0.0004929024,-9.875954e-05,2,1
-0.0003744326,-9.389759e-05,2,1
-0.0002546664,-0.0001010285,2,1
-0.0001391138,-0.0001161005,2,1
-4.738484e-05,-0.0001342519,2,1
9.106227e-07,-0.0001566169,2,1
-4.923729e-06,-0.0001844921,2,1
-6.699475e-05,-0.00021415,2,1
-0.0001780095,-0.0002360289,2,1
-0.0003118754,-0.0002472114,2,1
-0.0004347209,-0.0002520733,2,1
-0.0005214258,-0.0002558008,2,1
-0.0005666421,-0.0002553146,2,1
-0.000578959,-0.0002423494,2,1
-0.0005653456,-0.0002175534,2,1
-0.0005314739,-0.0001853024,2,1
-0.0004828543,-0.0001480274,2,1
-0.0004209454,-0.0001092938,2,1
-0.0003313232,-7.072225e-05,2,1
-0.0001982676,-3.393342e-05,2,1
-1.25408e-05,-3.951337e-06,2,1
0.000225047,1.825161e-05,2,1
0.000505258,3.543054e-05,2,1
0.000802486,5.1475e-05,2,1
0.001073946,6.865393e-05,2,1
0.001280579,8.988449e-05,2,1
0.001396456,0.000115977,2,1
0.001419632,0.0001425557,2,1
0.001374415,0.0001658931,2,1
0.00130651,0.0001858272,2,1
0.001264859,0.0002046267,2,1
0.001286252,0.000225209,2,1
0.001367284,0.0002478982,2,1
0.001476192,0.0002715597,2,1
0.001591907,0.0002955454,2,1
0.001718481,0.0003154794,2,1
0.001866285,0.0003281205,2,1
0.002018302,0.0003334687,2,1
0.002130452,0.0003334687,2,1
0.002148766,0.0003307136,2,1
0.002036454,0.0003261758,2,1
0.001794328,0.0003187208,2,1
0.0014548,0.0003017039,2,1
0.001069408,0.0002691288,2,1
0.0006851507,0.0002245608,2,1
0.000336548,0.0001769136,2,1
4.288554e-05,0.0001323456,2,1
-0.0001857886,9.328786e-05,2,1
-0.0003397507,5.957827e-05,2,1
-0.0004164075,3.056858e-05,2,1
-0.0004264556,6.420843e-06,2,1
-0.000397608,-1.464765e-05,2,1
-0.0003616295,-3.360929e-05,2,1
-0.0003465574,-4.85193e-05,2,1
-0.0003694086,-5.69467e-05,2,1
-0.000430021,-5.565017e-05,2,1
-0.000519319,-4.787104e-05,2,1
-0.0006298475,-3.63644e-05,2,1
-0.0007583653,-2.258885e-05,2,1
-0.0008922312,-7.678839e-06,2,1
-0.001007946,3.017472e-06,2,1
-0.001081686,7.23117e-06,2,1
-0.001100485,2.207145e-06,2,1
-0.001070179,-1.140634e-05,2,1
-0.001008108,-3.231277e-05,2,1
-0.0009372854,-5.69467e-05,2,1
-0.0008732696,-8.40116e-05,2,1
-0.0008205983,-0.0001130213,2,1
-0.000772465,-0.0001439758,2,1
-0.0007176869,-0.0001806025,2,1
-0.0006502678,-0.0002219292,2,1
-0.0005752315,-0.0002643903,2,1
-0.0004959816,-0.0003013411,2,1
-0.0004180282,-0.0003262992,2,1
-0.0003522297,-0.0003344025,2,1
-0.0003027998,-0.0003243544,2,1
-0.0002697385,-0.0003002067,2,1
-0.0002533699,-0.0002716832,2,1
-0.0002540181,-0.0002415391,2,1
-0.0002684419,-0.0002117191,2,1
-0.000293562,-0.0001818991,2,1
-0.0003233821,-0.0001551583,2,1
-0.0003497987,-0.0001290658,2,1
-0.0003682741,-9.908367e-05,2,1
-0.0003755671,-6.39155e-05,2,1
-0.0003676259,-2.89094e-05,2,1
-0.0003415334,1.720949e-06,2,1
-0.0003003688,2.651694e-05,2,1
-0.0002553146,4.661304e-05,2,1
-0.0002212809,5.99024e-05,2,1
-0.0002081536,6.427817e-05,2,1
-0.0002075054,5.974033e-05,2,1
-0.0002000504,5.098881e-05,2,1
-0.0001726613,4.35338e-05,2,1
-0.0001331174,4.061663e-05,2,1
-0.0001036215,4.158902e-05,2,1
-0.0001055663,4.256141e-05,2,1
-0.0001373311,4.126489e-05,2,1
-0.0001814128,3.267542e-05,2,1
-0.0002154466,1.582063e-05,2,1
-0.0002109087,-6.382317e-06,2,1
-0.0001454344,-2.437157e-05,2,1
-1.740276e-05,-3.166451e-05,2,1
0.0001448246,-2.161646e-05,2,1
0.0002926282,5.610517e-06,2,1
0.0003728506,4.547859e-05,2,1
0.0003658818,8.939829e-05,2,1
0.0002984626,0.000133318,2,1
0.0002292607,0.0001741585,2,1
0.0002090025,0.0002128921,2,1
0.0002511395,0.0002516257,2,1
0.0003401134,0.0002916559,2,1
0.0004521006,0.000329255,2,1
0.000564736,0.0003597233,2,1
0.0006528996,0.0003751195,2,1
0.0006953608,0.0003726885,2,1
0.0006872575,0.0003555096,2,1
0.0006392861,0.000329255,2,1
0.0005679773,0.0002984626,2,1
0.0004884033,0.0002704253,2,1
0.0004099636,0.0002503292,2,1
0.0003396272,0.0002386605,2,1
0.0002788527,0.0002273159,2,1
0.0002278021,0.0002109473,2,1
0.0001817755,0.0001851789,2,1
0.000133318,0.0001550348,2,1
7.497447e-05,0.0001240803,2,1
6.258778e-06,9.442231e-05,2,1
-6.261898e-05,6.622294e-05,2,1
-0.0001204763,3.769945e-05,2,1
-0.0001697442,1.355172e-05,2,1
-0.0002146363,-2.168618e-06,2,1
-0.0002535319,-5.409925e-06,2,1
-0.0002840002,5.934648e-06,2,1
-0.0003066893,2.700314e-05,2,1
-0.0003190063,4.790957e-05,2,1
-0.0003186821,6.022653e-05,2,1
-0.0003016653,6.119892e-05,2,1
-0.0002614731,5.066468e-05,2,1
-0.0001969711,3.040651e-05,2,1
-0.0001146419,2.531276e-06,2,1
-2.809907e-05,-2.84232e-05,2,1
4.82337e-05,-5.710876e-05,2,1
9.620504e-05,-7.785312e-05,2,1
0.0001069013,-8.676672e-05,2,1
8.956036e-05,-8.271508e-05,2,1
6.184718e-05,-6.699475e-05,2,1
3.462021e-05,-5.030202e-05,2,1
5.86492e-07,-4.317115e-05,2,1
-4.657452e-05,-5.32192e-05,2,1
-0.0001139937,-7.65566e-05,2,1
-0.000196647,-0.0001034594,2,1
-0.000281083,-0.0001242038,2,1
-0.0003525538,-0.000137007,2,1
-0.0004097628,-0.0001430034,2,1
-0.0004629203,-0.0001454344,2,1
-0.00052175,-0.0001486757,2,1
-0.0005859278,-0.000156941,2,1
-0.0006416783,-0.0001686097,2,1
-0.0006640433,-0.0001830335,2,1
-0.0006304958,-0.0002002124,2,1
-0.0005387668,-0.0002206326,2,1
-0.0004217557,-0.0002441321,2,1
-0.0003159271,-0.0002684419,2,1
-0.0002284118,-0.0002893484,2,1
-0.0001397621,-0.0003013411,2,1
-2.647842e-05,-0.0002995585,2,1
0.0001187321,-0.0002817312,2,1
0.0002812837,-0.0002546664,2,1
0.0004302217,-0.0002259808,2,1
0.000549826,-0.0001971332,2,1
0.0006473894,-0.000159372,2,1
0.0007413874,-0.0001079973,2,1
0.0008464058,-4.835724e-05,2,1
0.0009630929,4.638125e-06,2,1
0.001076053,3.915804e-05,2,1
0.001177668,5.471631e-05,2,1
0.001270855,5.682316e-05,2,1
0.001361126,5.212327e-05,2,1
0.001447183,4.418206e-05,2,1
0.001520436,4.02925e-05,2,1
0.001572298,4.515445e-05,2,1
0.001602766,6.006447e-05,2,1
0.001614597,8.226741e-05,2,1
0.001605683,0.0001030118,2,1
0.001567273,0.0001140322,2,1
0.001490454,0.0001151667,2,1
0.00137085,0.0001091703,2,1
0.001214457,9.863601e-05,2,1
0.001029864,8.210535e-05,2,1
0.0008220959,6.427817e-05,2,1
0.0006034696,4.709924e-05,2,1
0.0003898674,3.202716e-05,2,1
0.0001932822,2.052053e-05,2,1
2.01964e-05,1.501031e-05,2,1
-0.0001319829,1.387585e-05,2,1
-0.0002658489,9.500085e-06,2,1
-0.0003867496,-8.720959e-07,2,1
-0.0004982505,-1.3027e-05,2,1
-0.0006003517,-1.99958e-05,2,1
-0.0006920806,-1.399939e-05,2,1
-0.0007771649,1.112074e-05,2,1
-0.000856901,5.52025e-05,2,1
-0.0009359888,0.0001128978,2,1
-0.001015725,0.0001744826,2,1
-0.001089141,0.0002297469,2,1
-0.001142784,0.0002699391,2,1
-0.001161098,0.0002952213,2,1
-0.001136788,0.0003102934,2,1
-0.001076824,0.000321638,2,1
-0.0009956289,0.0003266619,2,1
-0.0009008207,0.0003239069,2,1
-0.0007940196,0.0003156415,2,1
-0.0006820326,0.0003030004,2,1
-0.0005716661,0.0002890628,2,1
-0.0004719959,0.0002773941,2,1
-0.0003912874,0.0002666978,2,1
-0.00032322,0.0002555152,2,1
-0.0002470493,0.0002428742,2,1
-0.000137169,0.0002273159,2,1
1.403791e-05,0.0002021958,2,1
0.0001783722,0.0001639484,2,1
0.0003005694,0.0001154908,2,1
0.0003328204,6.670914e-05,2,1
0.0002581083,2.035846e-05,2,1
9.069481e-05,-2.501983e-05,2,1
-0.0001305243,-7.104638e-05,2,1
-0.0003585502,-0.0001130213,2,1
-0.0005557837,-0.0001439758,2,1
-0.0006977529,-0.0001588858,2,1
-0.0007794338,-0.0001601823,2,1
-0.0008102262,-0.0001546721,2,1
-0.0008087676,-0.0001499722,2,1
-0.0007975851,-0.0001491618,2,1
-0.0007969369,-0.000152079,2,1
-0.0008158985,-0.0001554824,2,1
-0.0008478253,-0.0001571031,2,1
-0.0008797522,-0.0001566169,2,1
-0.0009011448,-0.0001611547,2,1
-0.0009073032,-0.0001765509,2,1
-0.0008878555,-0.0001974573,2,1
-0.000827243,-0.0002156086,2,1
-0.0007065044,-0.0002207947,2,1
-0.0005189948,-0.0002113949,2,1
-0.0002778417,-0.000194216,2,1
-2.631635e-05,-0.0001789819,2,1
0.0001864754,-0.0001737958,2,1
0.0003222862,-0.0001827094,2,1
0.0003676645,-0.0002008607,2,1
0.000341572,-0.000223874,2,1
0.0002785285,-0.0002476975,2,1
0.0002115956,-0.0002655248,2,1
0.0001566554,-0.0002692523,2,1
0.0001124116,-0.0002546664,2,1
6.508849e-05,-0.0002331117,2,1
5.772582e-06,-0.0002162569,2,1
-6.083626e-05,-0.0002083157,2,1
-0.0001164247,-0.0002039399,2,1
-0.0001379794,-0.0001924333,2,1
-0.0001185315,-0.0001660166,2,1
-7.153257e-05,-0.0001235555,2,1
-1.25408e-05,-7.104638e-05,2,1
4.418206e-05,-1.821308e-05,2,1
9.620504e-05,2.586868e-05,2,1
0.0001501728,5.974033e-05,2,1
0.0002041406,8.42122e-05,2,1
0.0002406053,0.0001022015,2,1
0.0002466017,0.0001185701,2,1
0.0002297469,0.0001339663,2,1
0.0002120818,0.0001493625,2,1
0.0002192126,0.0001663793,2,1
0.0002595669,0.0001867996,2,1
0.0003171001,0.0002065715,2,1
0.0003589129,0.0002185644,2,1
0.0003660439,0.0002182402,2,1
0.0003440029,0.0002091646,2,1
0.0003102934,0.000192796,2,1
0.0002835526,0.0001709172,2,1
0.0002735045,0.0001500107,2,1
0.000287118,0.0001360731,2,1
0.0003321722,0.0001294284,2,1
0.0004044533,0.0001320215,2,1
0.0004785172,0.0001467694,2,1
0.0005258403,0.0001739964,2,1
0.0005354022,0.000210137,2,1
0.0005216266,0.0002496809,2,1
0.0005070407,0.0002854973,2,1
0.0005042856,0.0003140208,2,1
0.0005203301,0.0003368721,2,1
0.0005577672,0.0003545372,2,1
0.0006222692,0.0003640991,2,1
0.0007214533,0.0003621543,2,1
0.0008434886,0.0003498373,2,1
0.0009592033,0.0003297412,2,1
0.001034726,0.0003015418,2,1
0.001042505,0.0002650771,2,1
0.0009726548,0.0002263435,2,1
0.0008387887,0.0001914995,2,1
0.0006729957,0.0001637863,2,1
0.0005059062,0.0001438522,2,1
0.0003508097,0.0001269974,2,1
0.0002034923,0.0001052807,2,1
5.763349e-05,7.108491e-05,2,1
-8.174268e-05,2.586868e-05,2,1
-0.000201509,-2.275091e-05,2,1
-0.0002883759,-6.893953e-05,2,1
-0.0003434782,-0.0001112386,2,1
-0.0003770257,-0.0001512687,2,1
-0.000405063,-0.0001885437,2,1
-0.0004371519,-0.0002222533,2,1
-0.0004765338,-0.0002545043,2,1
-0.0005157535,-0.0002882139,2,1
-0.0005405495,-0.0003267854,2,1
-0.0005449253,-0.00036795,2,1
-0.0005266119,-0.0004039285,2,1
-0.0004847991,-0.0004220798,2,1
-0.0004170558,-0.0004144627,2,1
-0.0003305129,-0.0003833462,2,1
-0.000246239,-0.0003363473,2,1
-0.0001895161,-0.0002822175,2,1
-0.0001720131,-0.0002318152,2,1
-0.000189192,-0.0001938919,2,1
-0.0002271153,-0.0001724993,2,1
-0.0002655248,-0.0001634236,2,1
-0.0002934,-0.0001601823,2,1
-0.0003084721,-0.0001567789,2,1
-0.0003144685,-0.0001515928,2,1
-0.0003117133,-0.0001468929,2,1
-0.0002987481,-0.000142031,2,1
-0.0002770314,-0.0001366828,2,1
-0.0002501286,-0.0001332795,2,1
-0.0002144742,-0.0001267968,2,1
-0.0001715269,-0.0001070249,2,1
-0.000127121,-6.634648e-05,2,1
-8.384954e-05,-4.275467e-06,2,1
-4.43056e-05,7.270556e-05,2,1
-1.25408e-05,0.0001492004,2,1
7.069105e-06,0.0002111094,2,1
1.452411e-05,0.0002529222,2,1
1.857574e-05,0.000272208,2,1
2.522042e-05,0.0002720459,2,1
3.624086e-05,0.0002652392,2,1
4.256141e-05,0.0002632944,2,1
3.429608e-05,0.0002662116,2,1
1.1769e-05,0.0002657254,2,1
-1.383732e-05,0.0002530843,2,1
-3.166451e-05,0.0002273159,2,1
-3.393342e-05,0.000190365,2,1
-2.372331e-05,0.0001441764,2,1
-1.043395e-05,9.134307e-05,2,1
-3.14101e-06,3.656499e-05,2,1
-1.20546e-05,-1.286493e-05,2,1
-4.349527e-05,-4.965376e-05,2,1
-9.940781e-05,-7.347736e-05,2,1
-0.0001733096,-8.547019e-05,2,1
-0.0002564491,-8.790117e-05,2,1
-0.0003384541,-8.563225e-05,2,1
-0.0004092767,-7.801519e-05,2,1
-0.0004608134,-6.035007e-05,2,1
-0.0004841508,-2.745081e-05,2,1
-0.0004711856,2.327564e-05,2,1
-0.0004262935,8.664318e-05,2,1
-0.0003697327,0.0001521176,2,1
-0.0003287302,0.0002007372,2,1
-0.0003198166,0.0002256952,2,1
-0.0003434782,0.0002302331,2,1
-0.0003875599,0.0002216436,2,1
-0.0004258073,0.0002044647,2,1
-0.0004258073,0.0001864754,2,1
-0.0003572537,0.000170431,2,1
-0.0001987538,0.0001560072,2,1
4.904402e-05,0.0001464453,2,1
0.0003574544,0.0001409351,2,1
0.0006869333,0.0001295905,2,1
0.001000692,0.0001049566,2,1
0.001266804,6.735741e-05,2,1
0.001463227,1.679302e-05,2,1
0.001576187,-4.106429e-05,2,1
0.001605521,-9.827335e-05,2,1
0.001558684,-0.0001496481,2,1
0.001449128,-0.0001932436,2,1
0.001294679,-0.0002287359,2,1
0.001111545,-0.0002515871,2,1
0.0009135009,-0.0002605007,2,1
0.0007044364,-0.0002523975,2,1
0.0004864584,-0.0002243602,2,1
0.0002780424,-0.0001796301,2,1
0.0001099806,-0.0001314967,2,1
1.274139e-05,-8.952183e-05,2,1
5.934648e-06,-5.710876e-05,2,1
8.712937e-05,-3.409549e-05,2,1
0.0002281262,-1.99958e-05,2,1
0.0003793332,-1.432352e-05,2,1
0.0004824068,-1.578211e-05,2,1
0.0004898618,-2.291298e-05,2,1
0.0003796573,-3.652646e-05,2,1
0.0001714034,-5.500191e-05,2,1
-7.979791e-05,-7.60704e-05,2,1
-0.0003071755,-9.600444e-05,2,1
-0.0004629203,-0.0001094559,2,1
-0.0005198052,-0.0001075111,2,1
-0.0004813957,-8.271508e-05,2,1
-0.0003791325,-2.971972e-05,2,1
-0.0002673075,4.223728e-05,2,1
-0.0002019951,0.0001169494,2,1
-0.0002173914,0.0001728619,2,1
-0.0003087962,0.0001965235,2,1
-0.0004470379,0.0001814514,2,1
-0.0005823624,0.0001396385,2,1
-0.0006690673,8.74535e-05,2,1
-0.0006821946,3.348575e-05,2,1
-0.000618665,-2.064406e-05,2,1
-0.0004909576,-7.23429e-05,2,1
-0.0003206269,-0.0001180453,2,1
-0.0001323071,-0.0001515928,2,1
4.871989e-05,-0.0001661787,2,1
0.000187934,-0.000159372,2,1
0.0002491947,-0.0001392759,2,1
0.0002059233,-0.0001161005,2,1
5.828175e-05,-9.730096e-05,2,1
-0.0001596961,-8.271508e-05,2,1
-0.0003891806,-7.153257e-05,2,1
-0.0005710179,-6.407757e-05,2,1
-0.0006645294,-5.548811e-05,2,1
-0.0006625847,-4.365734e-05,2,1
-0.0005847933,-3.101625e-05,2,1
-0.0004634065,-1.788895e-05,2,1
-0.0003389403,-2.168618e-06,2,1
-0.0002447804,2.01964e-05,2,1
-0.0001995642,4.82337e-05,2,1
-0.0002058847,7.432621e-05,2,1
-0.0002545043,9.134307e-05,2,1
-0.0003267854,9.53947e-05,2,1
-0.0004079801,9.16672e-05,2,1
-0.0004898231,8.729144e-05,2,1
-0.0005682627,8.340187e-05,2,1
-0.0006387612,7.610894e-05,2,1
-0.0006937013,5.893001e-05,2,1
-0.0007296797,3.413401e-05,2,1
-0.0007432932,1.209313e-05,2,1
-0.0007379451,4.47606e-06,2,1
-0.0007227109,1.59827e-05,2,1
-0.0007034251,4.612685e-05,2,1
-0.0006800878,8.680524e-05,2,1
-0.0006517263,0.0001271595,2,1
-0.0006207718,0.0001654069,2,1
-0.0005770142,0.0002015475,2,1
-0.0005039228,0.0002326641,2,1
-0.0003899909,0.0002543808,2,1
-0.0002425115,0.0002654013,2,1
-8.579432e-05,0.0002675081,2,1
5.115087e-05,0.0002621599,2,1
0.0001568175,0.0002540567,2,1
0.0002372019,0.0002441707,2,1
0.0003081865,0.0002334744,2,1
0.0003730126,0.0002243987,2,1
0.0004307079,0.0002187264,2,1
0.0004802999,0.0002161334,2,1
0.0005308643,0.0002140265,2,1
0.0005982835,0.0002085163,2,1
0.0006869333,0.0001986303,2,1
0.0007810934,0.0001809652,2,1
0.0008629364,0.0001550348,2,1
0.0009253316,0.0001252147,2,1
0.0009741134,9.409818e-05,2,1
0.001027757,6.557468e-05,2,1
0.001107169,4.126489e-05,2,1
0.00121867,2.262738e-05,2,1
0.001344271,7.393236e-06,2,1
0.001460796,-6.868513e-06,2,1
0.001555118,-2.226472e-05,2,1
0.001620593,-3.863332e-05,2,1
0.001633883,-5.354332e-05,2,1
0.001561439,-6.39155e-05,2,1
0.001388677,-7.299116e-05,2,1
0.001131965,-8.530812e-05,2,1
0.0008285785,-0.0001015147,2,1
0.0005159543,-0.0001178833,2,1
0.0002211574,-0.0001326312,2,1
-4.171256e-05,-0.0001491618,2,1
-0.0002603387,-0.000166827,2,1
-0.0004285624,-0.0001794681,2,1
-0.0005429805,-0.0001814128,2,1
-0.000606186,-0.0001731475,2,1
-0.0006256338,-0.0001580754,2,1
-0.0006176926,-0.0001438137,2,1
-0.0005972724,-0.0001421931,2,1
-0.0005752315,-0.000159372,2,1
-0.0005572423,-0.0001934057,2,1
-0.0005488148,-0.0002293842,2,1
-0.0005538389,-0.0002549905,2,1
-0.0005753936,-0.0002622834,2,1
-0.0006141272,-0.0002525595,2,1
-0.0006711741,-0.0002319772,2,1
-0.0007356761,-0.000206533,2,1
-0.0007935334,-0.0001806025,2,1
-0.0008356704,-0.0001588858,2,1
-0.0008564148,-0.0001439758,2,1
-0.0008447461,-0.0001319829,2,1
-0.0007927231,-0.0001183694,2,1
-0.000703101,-0.0001021629,2,1
-0.0005854416,-8.547019e-05,2,1
-0.0004446069,-7.007399e-05,2,1
-0.0002733039,-5.2733e-05,2,1
-7.299116e-05,-3.053005e-05,2,1
0.0001325077,-4.275467e-06,2,1
0.0002992729,1.987227e-05,2,1
0.0003963501,3.656499e-05,2,1
0.000426008,4.385793e-05,2,1
0.0004148255,4.02925e-05,2,1
0.0003854917,2.716521e-05,2,1
0.0003321722,1.54965e-05,2,1
0.0002417397,1.727922e-05,2,1
0.0001187321,3.818565e-05,2,1
-3.465141e-06,7.465034e-05,2,1
-8.02841e-05,0.0001232699,2,1
-8.352541e-05,0.0001767515,2,1
-2.031993e-05,0.0002295848,2,1
7.789165e-05,0.0002723701,2,1
0.0001798307,0.0002992729,2,1
0.000274639,0.0003057555,2,1
0.0003670162,0.0002906835,2,1
0.0004561522,0.0002592428,2,1
0.0005274609,0.0002219677,2,1
0.000564574,0.0001895547,2,1
0.0005603603,0.0001692965,2,1
0.000517575,0.0001600588,2,1
0.0004339493,0.0001573037,2,1
0.0003031625,0.0001547106,2,1
0.0001192183,0.0001527658,2,1
-0.0001042698,0.0001540623,2,1
-0.0003378059,0.0001574657,2,1
-0.0005421702,0.0001561692,2,1
-0.0006873807,0.0001461212,2,1
-0.0007564205,0.0001271595,2,1
-0.0007468587,0.0001038221,2,1
-0.0006719845,8.340187e-05,2,1
-0.0005643732,6.865393e-05,2,1
-0.0004564377,5.811968e-05,2,1
-0.0003687603,4.709924e-05,2,1
-0.0003026377,3.332369e-05,2,1
-0.0002491561,1.387585e-05,2,1
-0.0002018331,-1.043395e-05,2,1
-0.0001567789,-3.344723e-05,2,1
-0.0001104282,-5.192267e-05,2,1
-6.002594e-05,-6.48879e-05,2,1
-9.623623e-06,-7.250496e-05,2,1
2.927205e-05,-7.590833e-05,2,1
4.953022e-05,-8.158062e-05,2,1
5.001642e-05,-9.551824e-05,2,1
3.996837e-05,-0.0001190177,2,1
3.040651e-05,-0.0001477033,2,1
2.489629e-05,-0.000174282,2,1
2.603075e-05,-0.0001908126,2,1
3.397195e-05,-0.000196647,2,1
3.867184e-05,-0.0001947022,2,1
2.586868e-05,-0.0001887058,2,1
-1.67545e-05,-0.0001833576,2,1
-8.676672e-05,-0.0001807646,2,1
-0.000171851,-0.0001802784,2,1
-0.000256287,-0.000179306,2,1
-0.0003228959,-0.000176875,2,1
-0.0003611433,-0.0001708786,2,1
-0.0003695707,-0.0001582375,2,1
-0.0003514194,-0.0001407345,2,1
-0.0003131719,-0.0001224211,2,1
-0.0002601766,-0.0001078352,2,1
-0.0001989159,-9.762509e-05,2,1
-0.0001418689,-8.757704e-05,2,1
-0.0001031353,-7.461182e-05,2,1
-9.762509e-05,-5.986387e-05,2,1
-0.0001255003,-4.43056e-05,2,1
-0.0001712027,-2.939559e-05,2,1
-0.0002146363,-1.480971e-05,2,1
-0.0002460769,-7.100305e-07,2,1
-0.0002640662,1.12828e-05,2,1
-0.0002721694,2.197911e-05,2,1
-0.0002757348,3.073064e-05,2,1
-0.0002841623,3.818565e-05,2,1
-0.0002976137,4.320967e-05,2,1
-0.0003099306,4.483033e-05,2,1
-0.0003089583,4.304761e-05,2,1
-0.0002828657,4.402e-05,2,1
-0.000231491,5.115087e-05,2,1
-0.0001632615,6.314371e-05,2,1
-8.709085e-05,7.465034e-05,2,1
-1.237873e-05,8.178122e-05,2,1
5.779555e-05,8.502253e-05,2,1
0.0001201907,8.79397e-05,2,1
0.0001757791,9.085688e-05,2,1
0.0002278021,9.053275e-05,2,1
0.0002751252,8.761557e-05,2,1
0.0003109416,8.74535e-05,2,1
0.0003237448,9.474644e-05,2,1
0.000302028,0.0001098185,2,1
0.0002529222,0.0001278078,2,1
0.0001992786,0.0001402868,2,1
0.0001649207,0.0001449867,2,1
0.0001714034,0.000148228,2,1
0.0002444948,0.0001535762,2,1
0.0003979707,0.0001621656,2,1
0.0006255105,0.0001739964,2,1
0.0009042631,0.0001898788,2,1
0.001201978,0.0002106232,2,1
0.001472789,0.0002333123,2,1
0.001668241,0.0002558394,2,1
0.001761914,0.0002757735,2,1
0.001757701,0.0002918179,2,1
0.001683637,0.0002981384,2,1
0.001576187,0.0002908455,2,1
0.001452531,0.0002699391,2,1
0.001310886,0.0002393087,2,1
0.001156275,0.0002008992,2,1
0.001019492,0.0001573037,2,1
0.0009256558,0.0001103047,2,1
0.0008759017,6.557468e-05,2,1
0.0008614778,2.975825e-05,2,1
0.0008765499,6.096713e-06,2,1
0.000923873,-6.868513e-06,2,1
0.0009972887,-1.513384e-05,2,1
0.00106876,-2.323711e-05,2,1
0.001091611,-3.101625e-05,2,1
0.001026299,-3.652646e-05,2,1
0.0008653674,-3.717473e-05,2,1
0.0006285898,-3.150244e-05,2,1
0.0003563199,-2.437157e-05,2,1
8.712937e-05,-2.080613e-05,2,1
-0.0001561307,-2.242678e-05,2,1
-0.0003739464,-3.393342e-05,2,1
-0.0005724764,-5.727083e-05,2,1
-0.0007394037,-8.660465e-05,2,1
-0.0008607905,-0.0001138316,2,1
-0.0009325854,-0.0001280934,2,1
-0.0009541402,-0.0001211246,2,1
-0.0009377715,-9.017008e-05,2,1
-0.0009076274,-4.706071e-05,2,1
-0.0008857486,-7.354709e-06,2,1
-0.0008831556,1.517237e-05,2,1
-0.0008953104,9.338019e-06,2,1
-0.0009081136,-2.372331e-05,2,1
-0.0009048723,-7.137051e-05,2,1
-0.0008753765,-0.0001170729,2,1
-0.0008287016,-0.0001514308,2,1
-0.0007838095,-0.0001765509,2,1
-0.0007499378,-0.0001981056,2,1
-0.0007280591,-0.0002183637,2,1
-0.0007266005,-0.000236353,2,1
-0.0007596618,-0.0002532078,2,1
-0.0008264327,-0.0002713591,2,1
-0.0009030896,-0.0002932379,2,1
-0.000956247,-0.0003154408,2,1
-0.0009690502,-0.000338292,2,1
-0.0009474955,-0.0003638984,2,1
-0.000909086,-0.0003911253,2,1
-0.0008666249,-0.0004094387,2,1
-0.0008202742,-0.000402794,2,1
-0.0007658203,-0.0003614674,2,1
-0.0007052079,-0.0002864312,2,1
-0.0006465403,-0.0001874093,2,1
-0.0005993792,-7.801519e-05,2,1
-0.00056648,2.359977e-05,2,1
-0.0005507597,0.0001000946,2,1
-0.0005489769,0.000143204,2,1
-0.0005522182,0.0001561692,2,1
-0.0005457356,0.0001466074,2,1
-0.000516888,0.000120839,2,1
-0.000459841,8.242948e-05,2,1
-0.0003752429,3.575467e-05,2,1
-0.0002673075,-1.124428e-05,2,1
-0.0001387897,-4.916756e-05,2,1
6.420843e-06,-7.477388e-05,2,1
0.0001577899,-8.903562e-05,2,1
0.0002948972,-9.551824e-05,2,1
0.000391164,-9.811128e-05,2,1
0.0004300596,-9.535618e-05,2,1
0.0004122325,-8.125649e-05,2,1
0.0003571303,-5.030202e-05,2,1
0.0002867939,-2.81688e-06,2,1
0.0002148369,5.730935e-05,2,1
0.0001453108,0.0001221355,2,1
8.518459e-05,0.0001798307,2,1
4.142696e-05,0.0002203471,2,1
2.424803e-05,0.0002393087,2,1
3.510641e-05,0.0002456293,2,1
6.006447e-05,0.0002478982,2,1
8.275361e-05,0.0002535705,2,1
0.0001069013,0.0002649151,2,1
0.0001513072,0.0002788527,2,1
0.0002384984,0.0002934386,2,1
0.0003676645,0.0003077003,2,1
0.0005104441,0.0003183966,2,1
0.0006219451,0.0003183966,2,1
0.0006718613,0.0003062417,2,1
0.0006634339,0.0002842008,2,1
0.0006177314,0.0002571359,2,1
0.0005551741,0.0002256952,2,1
0.0004939134,0.000187772,2,1
0.0004491834,0.0001479039,2,1
0.0004326527,0.0001158149,2,1
0.0004365423,9.16672e-05,2,1
0.0004286011,6.946425e-05,2,1
0.0003798194,4.256141e-05,2,1
0.0002848491,8.689758e-06,2,1
0.0001584381,-2.89094e-05,2,1
2.133085e-05,-6.456377e-05,2,1
-0.0001164247,-9.308726e-05,2,1
-0.0002444563,-0.0001079973,2,1
-0.0003450988,-0.0001105903,2,1
-0.0004016596,-0.0001143178,2,1
-0.000405225,-0.0001230693,2,1
-0.0003643846,-0.0001358725,2,1
-0.0003062031,-0.0001509446,2,1
-0.0002592042,-0.0001624512,2,1
-0.0002303566,-0.0001645581,2,1
-0.0002151224,-0.0001559686,2,1
-0.0002078295,-0.0001405724,2,1
-0.0002180396,-0.0001250141,2,1
-0.0002574215,-0.0001135075,2,1
-0.0003261372,-0.0001089697,2,1
-0.0004024699,-0.0001101041,2,1
-0.0004590307,-0.0001157764,2,1
-0.0004852853,-0.0001199901,2,1
-0.0004864197,-0.0001175591,2,1
-0.0004705373,-0.0001063766,2,1
-0.0004491447,-8.547019e-05,2,1
-0.0004303451,-5.791909e-05,2,1
-0.0004164075,-2.955766e-05,2,1
-0.0004005251,-8.489166e-06,2,1
-0.0003698948,4.313994e-06,2,1
-0.0003089583,1.403791e-05,2,1
-0.0002070192,2.473423e-05,2,1
-6.942573e-05,3.786152e-05,2,1
8.275361e-05,4.936815e-05,2,1
0.0002219677,5.293359e-05,2,1
0.0003273102,4.677511e-05,2,1
0.0003903536,3.478228e-05,2,1
0.0004229288,2.619281e-05,2,1
0.0004444835,2.457216e-05,2,1
0.000462959,2.910999e-05,2,1
0.0004759242,3.948217e-05,2,1
0.0004788414,5.552663e-05,2,1
0.0004759242,7.432621e-05,2,1
0.000477869,9.134307e-05,2,1
0.0004921307,0.0001056048,2,1
0.0005068787,0.0001265113,2,1
0.0005015305,0.0001563313,2,1
0.000468145,0.0001944166,2,1
0.0004138531,0.0002406053,2,1
0.000356644,0.0002908455,2,1
0.0003106175,0.000341734,2,1
0.0002819319,0.0003866261,2,1
0.000267346,0.000420984,2,1
0.0002639427,0.0004405939,2,1
0.0002650771,0.0004436732,2,1
0.0002590807,0.0004297355,2,1
0.0002386605,0.0004026706,2,1
0.0002051129,0.0003640991,2,1
0.0001689724,0.0003175863,2,1
0.0001402868,0.0002679943,2,1
0.0001221355,0.0002205092,2,1
0.0001098185,0.0001746447,2,1
9.863601e-05,0.0001302388,2,1
8.080883e-05,8.939829e-05,2,1
5.260946e-05,5.260946e-05,2,1
1.371378e-05,1.322759e-05,2,1
-3.555408e-05,-3.231277e-05,2,1
-9.114248e-05,-7.931171e-05,2,1
-0.0001405724,-0.0001162626,2,1
-0.0001796301,-0.0001383035,2,1
-0.0002083157,-0.0001477033,2,1
-0.0002259808,-0.0001464067,2,1
-0.0002203085,-0.0001392759,2,1
-0.000176875,-0.0001344139,2,1
-9.486997e-05,-0.0001340898,2,1
-7.030578e-06,-0.0001352242,2,1
3.154097e-05,-0.0001336036,2,1
-2.356124e-05,-0.0001305243,2,1
-0.000174282,-0.0001237176,2,1
-0.0003721637,-0.000112211,2,1
-0.0005483287,-9.405965e-05,2,1
-0.0006486471,-7.266703e-05,2,1
-0.0006565883,-5.289507e-05,2,1
-0.000583983,-3.911951e-05,2,1
-0.0004608134,-3.279896e-05,2,1
-0.0003144685,-3.231277e-05,2,1
-0.000156941,-3.506788e-05,2,1
-8.720959e-07,-4.009191e-05,2,1
0.000143204,-5.176061e-05,2,1
0.0002668598,-6.845333e-05,2,1
0.0003593992,-9.017008e-05,2,1
0.0004145014,-0.0001201522,2,1
0.0004371906,-0.0001574272,2,1
0.0004401077,-0.0001977815,2,1
0.0004384871,-0.0002357047,2,1
0.0004435111,-0.0002697385,2,1
0.0004568005,-0.0002969654,2,1
0.0004697657,-0.0003144685,2,1
0.0004721967,-0.0003215994,2,1
0.0004590694,-0.0003175477,2,1
0.00043087,-0.0003076617,2,1
0.0003947294,-0.0002976137,2,1
0.0003647473,-0.0002911311,2,1
0.0003550234,-0.0002874036,2,1
0.0003728506,-0.0002817312,2,1
0.0004156358,-0.0002689281,2,1
0.0004674968,-0.0002473734,2,1
0.000509958,-0.0002203085,2,1
0.0005315126,-0.0001964849,2,1
0.000539778,-0.0001773612,2,1
0.0005610085,-0.0001577513,2,1
0.0006153004,-0.0001289037,2,1
0.0006895264,-8.709085e-05,2,1
0.000743008,-3.63644e-05,2,1
0.0007363633,1.193106e-05,2,1
0.0006527375,5.260946e-05,2,1
0.0005072028,8.518459e-05,2,1
0.000339303,0.0001122495,2,1
0.0001942546,0.0001394765,2,1
9.782569e-05,0.0001694586,2,1
4.871989e-05,0.0001984683,2,1
3.769945e-05,0.0002227781,2,1
5.52025e-05,0.000242388,2,1
7.918817e-05,0.0002561635,2,1
8.956036e-05,0.0002658874,2,1
7.351589e-05,0.0002733424,2,1
2.39239e-05,0.0002762596,2,1
-5.743289e-05,0.0002681563,2,1
-0.0001577513,0.000247412,2,1
-0.0002549905,0.0002218057,2,1
-0.0003220855,0.0001991165,2,1
-0.0003459091,0.0001869616,2,1
-0.0003403989,0.0001869616,2,1
-0.0003339163,0.0001974959,2,1
-0.0003509331,0.0002117576,2,1
-0.0004005251,0.0002213195,2,1
-0.000469727,0.0002208333,2,1
-0.0005353634,0.0002122438,2,1
-0.0005779866,0.0002017096,2,1
-0.0005891691,0.0001923098,2,1
-0.0005723144,0.0001871237,2,1
-0.000541684,0.0001850168,2,1
-0.000514457,0.000187772,2,1
-0.0005014918,0.0001874478,2,1
-0.0005029504,0.000175455,2,1
-0.0005185087,0.0001550348,2,1
-0.0005410357,0.0001342904,2,1
-0.0005523803,0.0001188942,2,1
-0.0005455735,0.0001103047,2,1
-0.0005293671,0.0001080358,2,1
-0.0005220741,0.0001099806,2,1
-0.0005376324,0.0001146805,2,1
-0.0005749074,0.0001175977,2,1
-0.0006176926,0.0001167873,2,1
-0.0006496195,0.0001088461,2,1
-0.0006622606,9.247754e-05,2,1
-0.0006552918,7.238143e-05,2,1
-0.0006368163,5.277153e-05,2,1
-0.0006100755,3.640293e-05,2,1
-0.0005800935,2.473423e-05,2,1
-0.000551732,1.387585e-05,2,1
-0.00053666,-1.520357e-06,2,1
-0.0005300153,-2.307504e-05,2,1
-0.0005178604,-4.981582e-05,2,1
-0.0004906334,-7.60704e-05,2,1
-0.0004468758,-9.162867e-05,2,1
-0.0003963114,-9.600444e-05,2,1
-0.0003527159,-9.600444e-05,2,1
-0.0003243544,-9.875954e-05,2,1
-0.0003112272,-0.0001054042,2,1
-0.0003065273,-0.0001126972,2,1
-0.0003023136,-0.0001167488,2,1
-0.0002942103,-0.0001164247,2,1
-0.0002780038,-0.0001081593,2,1
-0.0002287359,-9.681477e-05,2,1
-9.875954e-05,-8.773911e-05,2,1
0.0001519555,-8.676672e-05,2,1
0.0005148199,-9.260107e-05,2,1
0.0009374866,-0.0001031353,2,1
0.001344919,-0.0001162626,2,1
0.00166273,-0.0001334415,2,1
0.001847323,-0.0001561307,2,1
0.001893836,-0.0001822232,2,1
0.001820258,-0.0002083157,2,1
0.001657544,-0.000231491,2,1
0.001441673,-0.0002522354,2,1
0.00120376,-0.000271197,2,1
0.0009613102,-0.0002862691,2,1
0.0007199947,-0.0002968033,2,1
0.0004811103,-0.0003011791,2,1
0.0002495189,-0.0002971275,2,1
3.737532e-05,-0.0002802727,2,1
-0.0001412206,-0.000253856,2,1
-0.0002817312,-0.0002209568,2,1
-0.0003922598,-0.0001851404,2,1
-0.0004862577,-0.0001496481,2,1
-0.0005729626,-0.0001162626,2,1
-0.0006538332,-8.790117e-05,2,1
-0.000720442,-6.569822e-05,2,1
-0.0007620928,-4.706071e-05,2,1
-0.0007740856,-2.826114e-05,2,1
-0.0007607963,-9.299493e-06,2,1
-0.0007272488,1.014835e-05,2,1
-0.0006794395,3.073064e-05,2,1
-0.0006243373,5.341979e-05,2,1
-0.0005710179,7.886404e-05,2,1
-0.0005232086,0.000108522,2,1
-0.0004739407,0.0001433661,2,1
-0.0004013355,0.0001832341,2,1
-0.0002870794,0.0002260194,2,1
-0.0001242038,0.0002649151,2,1
7.659513e-05,0.0002939248,2,1
0.0002827423,0.0003141829,2,1
0.0004568005,0.0003269861,2,1
0.0005741358,0.0003389789,2,1
0.0006284277,0.0003472443,2,1
0.0006305345,0.0003412479,2,1
0.0006033076,0.0003162898,2,1
0.0005762426,0.0002780424,2,1
0.0005749461,0.0002433604,2,1
0.0006008766,0.0002292607,2,1
0.0006255105,0.000239957,2,1
0.0006106006,0.0002652392,2,1
0.0005383193,0.0002892249,2,1
0.0004245494,0.0003034866,2,1
0.0003062417,0.0003038107,2,1
0.00021273,0.0002948972,2,1
0.0001521176,0.0002830664,2,1
0.0001244044,0.0002728562,2,1
0.0001239182,0.0002642668,2,1
0.0001341283,0.0002537325,2,1
0.000135749,0.0002414156,2,1
0.0001266733,0.0002271538,2,1
0.0001219734,0.0002111094,2,1
0.0001419075,0.0001965235,2,1
0.0001884202,0.0001837203,2,1
0.0002381743,0.0001697827,2,1
0.0002545429,0.000145635,2,1
0.000210137,0.0001025256,2,1
0.0001004187,3.98063e-05,2,1
-4.787104e-05,-3.798505e-05,2,1
-0.000189192,-0.0001217728,2,1
-0.0002877277,-0.0002029675,2,1
-0.0003287302,-0.0002814071,2,1
-0.0003240303,-0.000355633,2,1
-0.0002951827,-0.0004238625,2,1
-0.0002621213,-0.0004804233,2,1
-0.0002446183,-0.00052175,2,1
-0.0002509389,-0.0005486528,2,1
-0.0002807589,-0.0005648594,2,1
-0.000330675,-0.0005695592,2,1
-0.0004024699,-0.0005609698,2,1
-0.0005008436,-0.0005407116,2,1
-0.0006274165,-0.0005138087,2,1
-0.0007622549,-0.0004835025,2,1
-0.0008833176,-0.0004480103,2,1
-0.0009714811,-0.0004049009,2,1
-0.001025449,-0.0003551469,2,1
-0.00105689,-0.0003042584,2,1
-0.001081361,-0.0002608248,2,1
-0.001099351,-0.0002348944,2,1
-0.001096596,-0.0002272773,2,1
-0.001058186,-0.0002332737,2,1
-0.0009724535,-0.0002429977,2,1
-0.0008424772,-0.0002493182,2,1
-0.0006823567,-0.0002489941,2,1
-0.0005006815,-0.0002395943,2,1
-0.0002911311,-0.0002175534,2,1
-3.296103e-05,-0.0001818991,2,1
0.0002838767,-0.0001349001,2,1
0.0006319932,-8.514606e-05,2,1
0.000950938,-4.641245e-05,2,1
0.001176209,-2.696461e-05,2,1
0.001263562,-2.080613e-05,2,1
0.001215753,-1.967167e-05,2,1
0.001086425,-1.448558e-05,2,1
0.0009361901,1.883015e-06,2,1
0.000797462,3.348575e-05,2,1
0.0006802886,7.740546e-05,2,1
0.0005903424,0.0001276457,2,1
0.0005452881,0.0001791825,2,1
0.0005742979,0.0002268297,2,1
0.0007037881,0.0002660495,2,1
0.0009329488,0.0002983005,2,1
0.001216726,0.0003281205,2,1
0.001477327,0.0003553475,2,1
0.001626428,0.0003783608,2,1
0.001605521,0.0003945674,2,1
0.001412987,0.0004044533,2,1
0.001099876,0.0004078567,2,1
0.0007439804,0.0004099636,2,1
0.0004026706,0.0004122325,2,1
9.669123e-05,0.0004149876,2,1
-0.0001754164,0.0004170944,2,1
-0.0004154351,0.0004148255,2,1
-0.0006144513,0.0004094774,2,1
-0.0007619307,0.0004054258,2,1
-0.000849608,0.0004067223,2,1
-0.0008825073,0.000411098,2,1
-0.0008776453,0.0004102877,2,1
-0.000859494,0.0003979707,2,1
-0.0008523631,0.0003683128,2,1
-0.0008624112,0.0003213138,2,1
-0.0008737558,0.0002603772,2,1
-0.0008617629,0.0001911753,2,1
-0.0008037436,0.0001219734,2,1
-0.0006802498,5.828175e-05,2,1
-0.0004757234,4.313994e-06,2,1
-0.0001976194,-3.377136e-05,2,1
0.0001193804,-4.80331e-05,2,1
0.0004211461,-3.749886e-05,2,1
0.0006485239,-1.059602e-05,2,1
0.0007606731,2.522042e-05,2,1
0.000745439,6.168512e-05,2,1
0.0006221072,9.344993e-05,2,1
0.0004341113,0.0001177597,2,1
0.0002290986,0.0001294284,2,1
4.402e-05,0.0001276457,2,1
-9.713889e-05,0.0001145184,2,1
-0.0001904885,9.588091e-05,2,1
-0.000253856,7.853991e-05,2,1
-0.0003097686,6.152305e-05,2,1
-0.0003745947,4.402e-05,2,1
-0.0004471999,2.570662e-05,2,1
-0.0005211017,7.717366e-06,2,1
-0.000581552,-1.173047e-05,2,1
-0.0006141272,-3.134038e-05,2,1
-0.0006165582,-5.062615e-05,2,1
-0.0005951655,-6.634648e-05,2,1
-0.0005588629,-7.574627e-05,2,1
-0.0005121881,-8.109443e-05,2,1
-0.0004569239,-8.433573e-05,2,1
-0.0003959873,-9.260107e-05,2,1
-0.0003313232,-0.0001154523,2,1
-0.0002598524,-0.0001551583,2,1
-0.0001814128,-0.0002076674,2,1
-9.859748e-05,-0.0002690902,2,1
-5.89612e-06,-0.0003301888,2,1
9.377406e-05,-0.0003835083,2,1
0.0001882582,-0.0004248349,2,1
0.0002608634,-0.0004525481,2,1
0.0003039728,-0.0004663236,2,1
0.0003148312,-0.000464703,2,1
0.0002944109,-0.000444769,2,1
0.0002553532,-0.000402794,2,1
0.0002227781,-0.0003410472,2,1
0.0002145127,-0.0002671454,2,1
0.0002357433,-0.000191623,2,1
0.0002733424,-0.0001253383,2,1
0.0003125623,-7.218083e-05,2,1
0.0003399513,-2.858527e-05,2,1
0.000346596,1.371378e-05,2,1
0.000329255,6.006447e-05,2,1
0.0002931144,0.000110953,2,1
0.000249843,0.0001618415,2,1
0.0002205092,0.0001999268,2,1
0.0002287745,0.0002172679,2,1
0.0002848491,0.0002117576,2,1
0.0003718782,0.0001869616,2,1
0.0004529109,0.0001453108,2,1
0.0004898618,8.988449e-05,2,1
0.00046069,2.619281e-05,2,1
0.0003668542,-3.928157e-05,2,1
0.0002334744,-9.859748e-05,2,1
9.458438e-05,-0.0001451102,2,1
-2.0482e-05,-0.0001737958,2,1
-9.438378e-05,-0.0001831956,2,1
-0.0001285796,-0.0001741199,2,1
-0.0001383035,-0.000151917,2,1
-0.0001407345,-0.0001233935,2,1
-0.0001485136,-9.276313e-05,2,1
-0.0001656925,-6.634648e-05,2,1
-0.00018433,-5.208474e-05,2,1
-0.000191623,-5.208474e-05,2,1
-0.0001775233,-6.148453e-05,2,1
-0.0001368449,-7.380149e-05,2,1
-7.477388e-05,-8.417367e-05,2,1
-2.978945e-06,-9.033215e-05,2,1
6.022653e-05,-8.465986e-05,2,1
9.652917e-05,-6.699475e-05,2,1
9.134307e-05,-4.041603e-05,2,1
4.110282e-05,-1.448558e-05,2,1
-4.284701e-05,5.448452e-06,2,1
-0.0001373311,1.97102e-05,2,1
-0.0002157707,3.154097e-05,2,1
-0.000258718,4.35338e-05,2,1
-0.0002582318,5.844381e-05,2,1
-0.0002272773,7.756752e-05,2,1
-0.0001864369,9.63671e-05,2,1
-0.0001566169,0.0001070634,2,1
-0.0001493239,0.0001038221,2,1
-0.0001776853,9.409818e-05,2,1
-0.0002374874,9.16672e-05,2,1
-0.0003047445,0.0001062531,2,1
-0.0003462333,0.0001389903,2,1
-0.0003399127,0.0001846927,2,1
-0.0002849726,0.0002342847,2,1
-0.0001979435,0.0002775562,2,1
-0.0001078352,0.0003064038,2,1
-3.571614e-05,0.0003183966,2,1
9.824215e-06,0.0003122381,2,1
3.170304e-05,0.0002916559,2,1
2.992031e-05,0.0002628082,2,1
2.207145e-06,0.0002302331,2,1
-4.965376e-05,0.0001979821,2,1
-0.0001099421,0.0001668655,2,1
-0.0001553203,0.0001339663,2,1
-0.0001655305,9.68533e-05,2,1
-0.0001352242,6.022653e-05,2,1
-7.817725e-05,2.748934e-05,2,1
-1.788895e-05,-6.176923e-08,2,1
3.591673e-05,-2.453363e-05,2,1
9.63671e-05,-4.349527e-05,2,1
0.0001667035,-5.354332e-05,2,1
0.0002326641,-5.419158e-05,2,1
0.0002799871,-4.932962e-05,2,1
0.0003135347,-4.025397e-05,2,1
0.0003478926,-2.46957e-05,2,1
0.0003867882,-4.113403e-06,2,1
0.0004180668,2.068259e-05,2,1
0.0004245494,4.612685e-05,2,1
0.0004039671,6.930219e-05,2,1
0.0003670162,8.518459e-05,2,1
0.0003299033,9.037068e-05,2,1
0.0003049452,8.291568e-05,2,1
0.0002906835,6.541262e-05,2,1
0.0002759355,4.077869e-05,2,1
0.000252274,1.095867e-05,2,1
0.0002209954,-1.886135e-05,2,1
0.0001905271,-3.652646e-05,2,1
0.0001772377,-3.976777e-05,2,1
0.0002008992,-3.020592e-05,2,1
0.0002749631,-1.043395e-05,2,1
0.0003893813,1.889987e-05,2,1
0.0005251921,5.682316e-05,2,1
0.000659058,9.426025e-05,2,1
0.0007645627,0.0001195424,2,1
0.0008110755,0.0001265113,2,1
0.0007721797,0.0001190562,2,1
0.0006459308,0.0001062531,2,1
0.0004668485,9.523264e-05,2,1
0.0002926282,8.923623e-05,2,1
0.0001663793,8.712937e-05,2,1
9.037068e-05,8.729144e-05,2,1
4.499239e-05,9.118101e-05,2,1
9.013889e-06,9.782569e-05,2,1
-2.534396e-05,0.0001046324,2,1
-5.078821e-05,0.0001030118,2,1
-5.338126e-05,9.101894e-05,2,1
-3.036798e-05,7.448828e-05,2,1
2.693341e-06,5.925414e-05,2,1
1.436204e-05,4.466826e-05,2,1
-2.129233e-05,2.878586e-05,2,1
-0.0001117248,1.257933e-05,2,1
-0.0002429977,2.855407e-06,2,1
-0.0003867496,1.883015e-06,2,1
-0.0005121881,9.013889e-06,2,1
-0.0006034309,2.084466e-05,2,1
-0.0006554538,3.850978e-05,2,1
-0.0006753879,6.719535e-05,2,1
-0.0006739292,0.0001090082,2,1
-0.0006561021,0.0001584381,2,1
-0.0006269303,0.0002057612,2,1
-0.0005901415,0.0002415777,2,1
-0.0005458977,0.0002610255,2,1
-0.0004891749,0.0002670219,2,1
-0.0004173799,0.0002624841,2,1
-0.0003369955,0.0002467637,2,1
-0.0002629317,0.0002180782,2,1
-0.0002070192,0.0001773998,2,1
-0.0001723372,0.0001318594,2,1
-0.0001580754,8.761557e-05,2,1
-0.0001582375,4.985435e-05,2,1
-0.0001705545,2.003433e-05,2,1
-0.0001914609,-2.238346e-07,2,1
-0.0002071812,-1.497178e-05,2,1
-0.0002073433,-3.020592e-05,2,1
-0.0001922712,-5.483985e-05,2,1
-0.0001637477,-9.438378e-05,2,1
-0.0001280934,-0.0001472171,2,1
-9.470791e-05,-0.0002081536,2,1
-7.639453e-05,-0.0002728177,2,1
-8.790117e-05,-0.0003374817,2,1
-0.0001355484,-0.000397608,2,1
-0.0002147983,-0.0004493068,2,1
-0.0003198166,-0.0004877163,2,1
-0.0004450931,-0.0005107295,2,1
-0.0005734488,-0.0005175362,2,1
-0.0006734431,-0.0005074882,2,1
-0.0007123387,-0.0004800992,2,1
-0.0006672846,-0.0004360174,2,1
-0.0005306636,-0.0003812394,2,1
-0.0003086341,-0.0003261372,2,1
-2.501983e-05,-0.0002802727,2,1
0.0002717218,-0.0002428356,2,1
0.0005091476,-0.0002133397,2,1
0.000621783,-0.0001925954,2,1
0.0005882355,-0.0001773612,2,1
0.0004388112,-0.0001677994,2,1
0.000237526,-0.0001587237,2,1
4.596478e-05,-0.0001449482,2,1
-9.000802e-05,-0.0001277692,2,1
-0.0001464067,-0.0001079973,2,1
-0.000134738,-8.595638e-05,2,1
-8.82253e-05,-6.359137e-05,2,1
-3.863332e-05,-4.544006e-05,2,1
-2.654814e-06,-3.296103e-05,2,1
2.01964e-05,-2.84232e-05,2,1
3.705119e-05,-3.117831e-05,2,1
4.969229e-05,-3.587821e-05,2,1
5.957827e-05,-3.766092e-05,2,1
6.995045e-05,-3.458168e-05,2,1
8.486046e-05,-2.680255e-05,2,1
0.0001088461,-1.821308e-05,2,1
0.0001445005,-9.299493e-06,2,1
0.0001919856,2.855407e-06,2,1
0.0002561635,1.679302e-05,2,1
0.0003388169,3.202716e-05,2,1
0.0004336251,5.017848e-05,2,1
0.0005260024,7.270556e-05,2,1
0.000606711,9.912221e-05,2,1
0.0006830437,0.0001244044,2,1
0.0007656972,0.000143204,2,1
0.0008509436,0.0001566554,2,1
0.0009115561,0.0001654069,2,1
0.0009126905,0.0001665414,2,1
0.0008332785,0.0001634622,2,1
0.0006822334,0.0001597346,2,1
0.0004952099,0.0001654069,2,1
0.0003203414,0.0001814514,2,1
0.0001835583,0.0002064095,2,1
8.307774e-05,0.0002334744,2,1
3.179537e-06,0.0002561635,2,1
-7.526008e-05,0.0002715597,2,1
-0.0001629374,0.0002767458,2,1
-0.000258718,0.0002752873,2,1
-0.0003509331,0.0002701012,2,1
-0.0004279142,0.0002585945,2,1
-0.000477182,0.0002363916,2,1
-0.0004951713,0.0002044647,2,1
-0.0004864197,0.0001667035,2,1
-0.0004603272,0.0001292664,2,1
-0.0004322899,0.0001007429,2,1
-0.0004159214,8.777764e-05,2,1
-0.0004073319,9.507057e-05,2,1
-0.0003882082,0.0001219734,2,1
-0.0003491504,0.0001620036,2,1
-0.0003015032,0.0002038164,2,1
-0.0002650386,0.0002402811,2,1
-0.0002418632,0.000267346,2,1
-0.0002135018,0.0002869559,2,1
-0.0001582375,0.0003028383,2,1
-6.359137e-05,0.0003149933,2,1
7.254349e-05,0.0003235827,2,1
0.0002401191,0.0003290929,2,1
0.0004130428,0.0003326584,2,1
0.0005613327,0.0003323342,2,1
0.0006579236,0.0003237448,2,1
0.0006841783,0.0003005694,2,1
0.0006358828,0.0002587566,2,1
0.0005268127,0.0002046267,2,1
0.0003832228,0.0001487142,2,1
0.0002383363,9.896015e-05,2,1
0.0001180839,5.763349e-05,2,1
3.267542e-05,2.34377e-05,2,1
-2.485776e-05,-3.14101e-06,2,1
-7.380149e-05,-3.134038e-05,2,1
-0.0001326312,-7.039812e-05,2,1
-0.0002076674,-0.0001300382,2,1
-0.0002972895,-0.0002126914,2,1
-0.0003920977,-0.0003087962,2,1
-0.0004781544,-0.0004018217,2,1
-0.0005343911,-0.000472158,2,1
-0.000541846,-0.0005105674,2,1
-0.0004904714,-0.0005198052,2,1
-0.0003911253,-0.000509433,2,1
-0.0002802727,-0.0004919299,2,1
-0.0001982676,-0.0004784786,2,1
-0.0001728234,-0.00047232,2,1
-0.000209126,-0.0004718339,2,1
-0.0002950206,-0.000472158,2,1
-0.0004188385,-0.0004689167,2,1
-0.0005663179,-0.0004588687,2,1
-0.0007074767,-0.0004405553,2,1
-0.0008005023,-0.0004180282,2,1
-0.0008058504,-0.0003961493,2,1
-0.0007043975,-0.0003747568,2,1
-0.0005039228,-0.0003485022,2,1
-0.0002321393,-0.0003100927,2,1
6.200925e-05,-0.0002619593,2,1
0.0003156415,-0.0002123673,2,1
0.0004783552,-0.0001707166,2,1
0.000537509,-0.0001366828,2,1
0.0005138475,-0.0001075111,2,1
0.0004438352,-7.914964e-05,2,1
0.0003522683,-4.819517e-05,2,1
0.0002483844,-1.545797e-05,2,1
0.0001344524,1.582063e-05,2,1
1.387585e-05,3.996837e-05,2,1
-9.697683e-05,5.163707e-05,2,1
-0.0001765509,5.277153e-05,2,1
-0.0002079916,5.228533e-05,2,1
-0.0001838438,5.682316e-05,2,1
-0.0001054042,7.286763e-05,2,1
1.371378e-05,0.0001007429,2,1
0.0001539003,0.0001342904,2,1
0.0003047831,0.0001665414,2,1
0.0004733311,0.0001950649,2,1
0.0006655407,0.0002192126,2,1
0.0008763879,0.0002393087,2,1
0.001103604,0.0002558394,2,1
0.001339247,0.0002735045,2,1
0.001561925,0.0002927903,2,1
0.001742142,0.0003086727,2,1
0.00186045,0.0003209897,2,1
0.001921225,0.000331686,2,1
0.001940025,0.000341572,2,1
0.00191928,0.000353889,2,1
0.001832251,0.0003707437,2,1
0.001640689,0.0003898674,2,1
0.001329685,0.0004055878,2,1
0.0009207938,0.0004091532,2,1
0.0004687933,0.0003973225,2,1
3.802358e-05,0.0003730126,2,1
-0.0003117133,0.0003488649,2,1
-0.0005452494,0.0003313618,2,1
-0.0006556159,0.0003219621,2,1
-0.0006650157,0.000321638,2,1
-0.0006128307,0.0003230965,2,1
-0.0005420081,0.0003161277,2,1
-0.000484637,0.0002952213,2,1
-0.0004506033,0.0002605393,2,1
-0.0004378002,0.0002146748,2,1
-0.0004390967,0.0001665414,2,1
-0.0004434724,0.0001253768,2,1
-0.0004441207,9.733949e-05,2,1
-0.000444769,8.097089e-05,2,1
-0.00046211,7.384002e-05,2,1
-0.0005047331,7.157111e-05,2,1
-0.0005671282,6.881599e-05,2,1
-0.0006343853,6.362991e-05,2,1
-0.0006919185,5.423012e-05,2,1
-0.0007347037,3.964424e-05,2,1
-0.0007679272,2.133085e-05,2,1
-0.0007954782,-3.858999e-07,2,1
-0.0008111986,-2.728874e-05,2,1
-0.0008068228,-5.483985e-05,2,1
-0.0007847819,-7.65566e-05,2,1
-0.0007481552,-8.773911e-05,2,1
-0.0007037492,-9.146661e-05,2,1
-0.0006577228,-9.017008e-05,2,1
-0.000618665,-8.903562e-05,2,1
-0.000593869,-9.098041e-05,2,1
-0.0005901415,-9.762509e-05,2,1
-0.0006060239,-0.0001105903,2,1
-0.0006308199,-0.0001282554,2,1
-0.000648323,-0.0001473791,2,1
-0.0006510781,-0.000166827,2,1
-0.000646054,-0.0001882196,2,1
-0.0006411921,-0.00021415,2,1
-0.0006400577,-0.0002501286,2,1
-0.0006450817,-0.0002972895,2,1
-0.000658371,-0.000350609,2,1
-0.000688029,-0.0003972838,2,1
-0.0007319486,-0.000419973,2,1
-0.0007747339,-0.0004091146,2,1
-0.0007945059,-0.0003650328,2,1
-0.0007782993,-0.0002979378,2,1
-0.0007175248,-0.0002211189,2,1
-0.0006024585,-0.0001488377,2,1
-0.0004397449,-9.179074e-05,2,1
-0.000253694,-5.046408e-05,2,1
-7.736692e-05,-2.404744e-05,2,1
5.795762e-05,-1.270286e-05,2,1
0.0001349386,-8.813297e-06,2,1
0.0001647587,-9.623623e-06,2,1
0.0001820997,-1.788895e-05,2,1
0.0002269918,-3.279896e-05,2,1
0.000324393,-4.835724e-05,2,1
0.0004721967,-5.629844e-05,2,1
0.0006381517,-5.710876e-05,2,1
0.0007867657,-5.759496e-05,2,1
0.0008818981,-6.132246e-05,2,1
0.0009047493,-6.764301e-05,2,1
0.0008520781,-7.882551e-05,2,1
0.0007365254,-9.892161e-05,2,1
0.0005812666,-0.0001219349,2,1
0.0004177427,-0.0001368449,2,1
0.0002783665,-0.0001368449,2,1
0.0001848548,-0.0001232314,2,1
0.0001440143,-0.0001044318,2,1
0.0001527658,-8.498399e-05,2,1
0.0001958752,-6.326724e-05,2,1
0.0002503292,-3.441962e-05,2,1
0.0002879283,4.151929e-06,2,1
0.0002850112,5.115087e-05,2,1
0.0002420638,9.944634e-05,2,1
0.0001761032,0.0001436902,2,1
0.0001125736,0.0001785342,2,1
7.319176e-05,0.0002023578,2,1
7.157111e-05,0.0002172679,2,1
0.0001156529,0.0002273159,2,1
0.0002057612,0.0002326641,2,1
0.0003195311,0.0002346088,2,1
0.0004174185,0.000230071,2,1
0.0004632831,0.0002162954,2,1
0.0004370285,0.000200413,2,1
0.0003404375,0.000190365,2,1
0.0001957132,0.0001934442,2,1
4.02925e-05,0.0002088404,2,1
-9.211487e-05,0.0002323399,2,1
-0.0001799543,0.000252436,2,1
-0.0002235498,0.0002613496,2,1
-0.0002391081,0.0002585945,2,1
-0.0002480217,0.0002537325,2,1
-0.0002653627,0.0002618358,2,1
-0.0002912931,0.0002879283,2,1
-0.0003214373,0.0003224483,2,1
-0.0003491504,0.0003509718,2,1
-0.0003674638,0.0003616681,2,1
-0.0003741085,0.0003498373,2,1
-0.0003671397,0.0003148312,2,1
-0.0003444506,0.0002611876,2,1
-0.0002998826,0.0001986303,2,1
-0.0002243602,0.0001352628,2,1
-0.0001219349,7.335383e-05,2,1
-9.623623e-06,6.744974e-06,2,1
9.490851e-05,-7.023606e-05,2,1
0.0001848548,-0.0001556445,2,1
0.0002628082,-0.0002400805,2,1
0.0003420582,-0.0003117133,2,1
0.0004480489,-0.0003640605,2,1
0.0006023352,-0.0003942046,2,1
0.000804755,-0.0004023079,2,1
0.001028892,-0.0003943667,2,1
0.001223208,-0.0003776739,2,1
0.001324337,-0.0003593606,2,1
0.001285765,-0.0003413713,2,1
0.0011096,-0.0003193304,2,1
0.0008673123,-0.0002927517,2,1
0.0006575995,-0.0002681178,2,1
0.0005462606,-0.0002480217,2,1
0.0005285954,-0.0002319772,2,1
0.0005561466,-0.0002180396,2,1
0.0005736496,-0.0002031296,2,1
0.0005417228,-0.0001903264,2,1
0.0004441593,-0.0001783336,2,1
0.0002966799,-0.000166989,2,1
0.0001362352,-0.0001598582,2,1
-1.034161e-06,-0.0001624512,2,1
-9.762509e-05,-0.0001773612,2,1
-0.0001588858,-0.0001969711,2,1
-0.0001950263,-0.0002079916,2,1
-0.0002045882,-0.000196647,2,1
-0.0001809267,-0.0001605064,2,1
-0.0001242038,-0.0001096179,2,1
-5.046408e-05,-6.002594e-05,2,1
1.59827e-05,-1.869928e-05,2,1
5.050261e-05,1.12828e-05,2,1
4.580272e-05,2.992031e-05,2,1
1.711715e-05,3.834771e-05,2,1
-1.691656e-05,4.304761e-05,2,1
-4.041603e-05,5.309566e-05,2,1
-4.819517e-05,7.594687e-05,2,1
-4.576419e-05,0.0001112771,2,1
-4.317115e-05,0.0001535762,2,1
-5.111234e-05,0.0001934442,2,1
-7.412562e-05,0.0002242366,2,1
-0.0001089697,0.0002420638,2,1
-0.0001467309,0.0002503292,2,1
-0.0001734716,0.0002506533,2,1
-0.0001781716,0.00024255,2,1
-0.0001566169,0.0002282883,2,1
-0.0001094559,0.0002119197,2,1
-4.106429e-05,0.0001949028,2,1
3.218923e-05,0.0001751309,2,1
9.182927e-05,0.0001487142,2,1
0.0001266733,0.0001146805,2,1
0.0001331559,7.999851e-05,2,1
0.0001158149,5.19612e-05,2,1
7.270556e-05,3.364782e-05,2,1
-2.978945e-06,2.505836e-05,2,1
-0.0001125351,2.700314e-05,2,1
-0.0002451045,3.591673e-05,2,1
-0.0003835083,4.596478e-05,2,1
-0.0005092709,5.212327e-05,2,1
-0.00061121,5.471631e-05,2,1
-0.0006865704,5.811968e-05,2,1
-0.0007369727,6.557468e-05,2,1
-0.0007633893,7.772959e-05,2,1
-0.0007768407,8.79397e-05,2,1
-0.000787375,9.344993e-05,2,1
-0.0007977472,9.733949e-05,2,1
-0.0008024471,0.0001054428,2,1
-0.0007914266,0.0001190562,2,1
-0.000762579,0.0001339663,2,1
-0.0007264384,0.0001464453,2,1
-0.0007014804,0.0001504969,2,1
-0.0006958081,0.0001495245,2,1
-0.0006982391,0.000145635,2,1
-0.0006870566,0.0001443384,2,1
-0.0006389232,0.0001469315,2,1
-0.0005415219,0.0001517934,2,1
-0.0003943667,0.0001509831,2,1
-0.0002070192,0.0001404489,2,1
1.193106e-05,0.0001206769,2,1
0.0002459534,9.993253e-05,2,1
0.0004747897,8.680524e-05,2,1
0.0006739681,8.42122e-05,2,1
0.0008185305,8.74535e-05,2,1
0.0008859497,8.891209e-05,2,1
0.0008702294,8.032264e-05,2,1
0.0007840106,6.119892e-05,2,1
0.0006577615,3.672706e-05,2,1
0.0005272989,1.614476e-05,2,1
0.0004217943,4.313994e-06,2,1
0.0003645853,4.313994e-06,2,1
0.0003658818,1.501031e-05,2,1
0.0004093153,3.218923e-05,2,1
0.0004597176,4.953022e-05,2,1
0.0004833792,5.649903e-05,2,1
0.0004647417,5.001642e-05,2,1
0.0004099636,3.380988e-05,2,1
0.0003302274,1.468618e-05,2,1
0.0002355812,-2.654814e-06,2,1
0.0001315353,-1.707863e-05,2,1
2.505836e-05,-2.664048e-05,2,1
-6.667062e-05,-3.247483e-05,2,1
-0.0001253383,-3.474375e-05,2,1
-0.000144462,-3.668853e-05,2,1
-0.0001326312,-4.706071e-05,2,1
-0.0001039456,-7.072225e-05,2,1
-7.931171e-05,-0.0001044318,2,1
-7.866345e-05,-0.0001379794,2,1
-0.0001070249,-0.000161965,2,1
-0.0001551583,-0.0001715269,2,1
-0.0002118811,-0.0001726613,2,1
-0.0002695764,-0.000171851,2,1
-0.0003206269,-0.0001703924,2,1
-0.0003574158,-0.0001677994,2,1
-0.000367788,-0.0001600202,2,1
-0.0003378059,-0.0001441378,2,1
-0.0002650386,-0.0001261486,2,1
-0.0001640719,-0.0001167488,2,1
-6.602235e-05,-0.0001238797,2,1
-5.89612e-06,-0.0001455964,2,1
-7.192643e-06,-0.0001723372,2,1
-6.537409e-05,-0.0001904885,2,1
-0.0001530514,-0.0001903264,2,1
-0.0002402425,-0.000169258,2,1
-0.0003037722,-0.0001259865,2,1
-0.0003369955,-5.824322e-05,2,1
-0.0003413713,3.105477e-05,2,1
-0.0003246786,0.0001313732,2,1
-0.0002938862,0.0002303951,2,1
-0.0002559629,0.0003145071,2,1
-0.0002199844,0.0003652335,2,1
-0.0001895161,0.0003675024,2,1
-0.0001608306,0.0003211517,2,1
-0.0001279313,0.0002443328,2,1
-8.060823e-05,0.0001642725,2,1
-1.367526e-05,0.0001038221,2,1
6.606088e-05,7.416415e-05,2,1
0.0001445005,7.157111e-05,2,1
0.0002057612,8.826383e-05,2,1
0.0002420638,0.0001138702,2,1
0.0002550291,0.0001386662,2,1
0.000249843,0.0001558451,2,1
0.0002316917,0.0001616794,2,1
0.000207706,0.0001498487,2,1
0.0001833962,0.0001218114,2,1
0.0001504969,8.567078e-05,2,1
0.0001023635,5.277153e-05,2,1
4.272347e-05,2.619281e-05,2,1
-1.416145e-05,4.47606e-06,2,1
-5.176061e-05,-1.724069e-05,2,1
-6.261898e-05,-4.511593e-05,2,1
-5.386745e-05,-8.255302e-05,2,1
-3.960571e-05,-0.0001250141,2,1
-2.534396e-05,-0.000161965,2,1
-6.544382e-06,-0.000179306,2,1
1.906194e-05,-0.0001707166,2,1
4.256141e-05,-0.0001404103,2,1
5.341979e-05,-0.0001041077,2,1
4.742337e-05,-8.060823e-05,2,1
2.570662e-05,-7.979791e-05,2,1
-1.682422e-06,-9.940781e-05,2,1
-2.761287e-05,-0.0001269589,2,1
-5.354332e-05,-0.000144462,2,1
-8.563225e-05,-0.0001413827,2,1
-0.0001282554,-0.0001178833,2,1
-0.0001752544,-8.40116e-05,2,1
-0.0002178775,-5.435365e-05,2,1
-0.0002468872,-3.976777e-05,2,1
-0.0002580697,-4.122636e-05,2,1
-0.0002502906,-5.467778e-05,2,1
-0.0002254946,-7.785312e-05,2,1
-0.0001940539,-0.0001086455,2,1
-0.0001687718,-0.0001430034,2,1
-0.0001551583,-0.0001780095,2,1
-0.0001517549,-0.000211557,2,1
-0.0001515928,-0.0002465631,2,1
-0.00015451,-0.0002851347,2,1
-0.0001567789,-0.0003279199,2,1
-0.0001501342,-0.0003692465,2,1
-0.0001280934,-0.0003997148,2,1
-9.29252e-05,-0.0004121938,2,1
-5.013995e-05,-0.0004070078,2,1
-1.034161e-06,-0.0003891806,2,1
4.758544e-05,-0.0003600088,2,1
9.020862e-05,-0.0003220855,2,1
0.0001338042,-0.0002734659,2,1
0.0001996027,-0.0002071812,2,1
0.0003115899,-0.000119666,2,1
0.0004783552,-2.177852e-05,2,1
0.0006781818,6.719535e-05,2,1
0.0008686088,0.000130887,2,1
0.001004582,0.0001691344,2,1
0.001058874,0.000192796,2,1
0.001033267,0.000215161,2,1
0.0009473725,0.0002420638,2,1
0.0008311716,0.000267184,2,1
0.0007199947,0.000289387,2,1
0.0006446343,0.0003099692,2,1
0.0006106006,0.0003256896,2,1
0.0005997422,0.0003339549,2,1
0.0005827253,0.000331686,2,1
0.0005344298,0.0003230965,2,1
0.0004436732,0.0003099692,2,1
0.0003222862,0.0002950592,2,1
0.0001960373,0.0002801492,2,1
9.247754e-05,0.0002642668,2,1
2.829966e-05,0.0002448189,2,1
5.934648e-06,0.0002206712,2,1
1.663096e-05,0.0001944166,2,1
3.786152e-05,0.0001691344,2,1
4.855783e-05,0.0001492004,2,1
3.364782e-05,0.0001363972,2,1
-6.220252e-06,0.0001299146,2,1
-5.759496e-05,0.0001240803,2,1
-9.454585e-05,0.0001164632,2,1
-9.260107e-05,0.000105929,2,1
-4.916756e-05,9.458438e-05,2,1
9.013889e-06,8.356394e-05,2,1
4.288554e-05,7.448828e-05,2,1
2.81376e-05,6.930219e-05,2,1
-3.328516e-05,6.362991e-05,2,1
-0.0001245279,5.260946e-05,2,1
-0.0002225774,3.575467e-05,2,1
-0.0003156029,1.582063e-05,2,1
-0.000400201,1.883015e-06,2,1
-0.0004737787,2.04508e-06,2,1
-0.0005303394,1.9224e-05,2,1
-0.0005653456,4.985435e-05,2,1
-0.0005776625,8.405014e-05,2,1
-0.0005695592,0.0001145184,2,1
-0.0005488148,0.0001428799,2,1
-0.0005254775,0.000170431,2,1
-0.0005071641,0.0001958752,2,1
-0.0004946851,0.0002146748,2,1
-0.0004826922,0.0002211574,2,1
-0.0004629203,0.0002130541,2,1
-0.0004261314,0.0001932822,2,1
-0.0003669776,0.0001660552,2,1
-0.0002948586,0.0001360731,2,1
-0.0002274394,0.0001062531,2,1
-0.0001759026,7.837785e-05,2,1
-0.0001358725,5.666109e-05,2,1
-8.368748e-05,4.175109e-05,2,1
2.207145e-06,2.943412e-05,2,1
0.0001273216,1.452411e-05,2,1
0.0002725321,-4.599598e-06,2,1
0.0004054258,-2.84232e-05,2,1
0.0004906721,-5.451572e-05,2,1
0.0005021787,-8.093236e-05,2,1
0.0004295735,-0.00010978,2,1
0.0002890628,-0.0001418689,2,1
0.0001171115,-0.0001712027,2,1
-4.333321e-05,-0.0001874093,2,1
-0.0001611547,-0.0001869231,2,1
-0.0002298704,-0.0001749302,2,1
-0.0002652006,-0.0001583996,2,1
-0.0002938862,-0.0001425172,2,1
-0.0003400748,-0.0001274451,2,1
-0.0004120317,-0.0001130213,2,1
-0.0004993849,-0.0001008664,2,1
-0.0005828486,-9.66527e-05,2,1
-0.0006415162,-9.956988e-05,2,1
-0.0006565883,-0.000104918,2,1
-0.0006244993,-0.000104756,2,1
-0.0005554595,-9.324933e-05,2,1
-0.0004595169,-7.266703e-05,2,1
-0.0003428299,-4.80331e-05,2,1
-0.0002169052,-2.46957e-05,2,1
-0.0001054042,-9.785688e-06,2,1
-3.458168e-05,-7.840905e-06,2,1
-2.064406e-05,-1.772689e-05,2,1
-6.44017e-05,-3.652646e-05,2,1
-0.0001462447,-5.710876e-05,2,1
-0.0002357047,-6.845333e-05,2,1
-0.0002966413,-6.602235e-05,2,1
-0.0002982619,-5.354332e-05,2,1
-0.000226467,-3.555408e-05,2,1
-8.093236e-05,-1.724069e-05,2,1
0.0001370455,1.234753e-06,2,1
0.0004213082,2.295151e-05,2,1
0.0007546768,4.790957e-05,2,1
0.001095014,7.270556e-05,2,1
0.001395646,9.571884e-05,2,1
0.001616704,0.0001151667,2,1
0.001726908,0.0001300767,2,1
0.001720588,0.0001404489,2,1
0.001632424,0.0001470936,2,1
0.001536157,0.0001516314,2,1
0.001507795,0.0001521176,2,1
0.001587208,0.0001469315,2,1
0.00175997,0.0001367214,2,1
0.001953314,0.0001232699,2,1
0.00206676,0.0001096565,2,1
0.002012144,0.0001007429,2,1
0.001763697,9.977047e-05,2,1
0.001359667,0.0001077117,2,1
0.0008744431,0.0001216493,2,1
0.0003840331,0.0001365593,2,1
-5.192267e-05,0.0001469315,2,1
-0.000402794,0.000150659,2,1
-0.0006697156,0.0001472556,2,1
-0.0008653284,0.0001351007,2,1
-0.001006325,0.0001164632,2,1
-0.001106968,9.847395e-05,2,1
-0.001168553,8.486046e-05,2,1
-0.001186704,7.691926e-05,2,1
-0.001163691,7.124698e-05,2,1
-0.001110695,6.638502e-05,2,1
-0.001045707,6.087479e-05,2,1
-0.0009868774,5.698522e-05,2,1
-0.0009403646,5.455425e-05,2,1
-0.0008998482,5.423012e-05,2,1
-0.0008531735,5.552663e-05,2,1
-0.0007928851,5.277153e-05,2,1
-0.000713149,4.110282e-05,2,1
-0.0006204477,1.938607e-05,2,1
-0.000534229,-1.092015e-05,2,1
-0.0004791268,-4.446767e-05,2,1
-0.0004710235,-7.785312e-05,2,1
-0.0005141329,-0.0001092938,2,1
-0.000593869,-0.0001394379,2,1
-0.000680574,-0.0001697442,2,1
-0.0007437794,-0.0002047502,2,1
-0.0007693857,-0.0002436459,2,1
-0.0007549619,-0.0002797865,2,1
-0.0007027769,-0.0003102548,2,1
-0.0006223925,-0.000338292,2,1
-0.0005311498,-0.0003648708,2,1
-0.0004486585,-0.0003883702,2,1
-0.000395177,-0.0004023079,2,1
-0.0003786463,-0.0003992286,2,1
-0.0003757291,-0.0003760533,2,1
-0.0003470436,-0.0003368335,2,1
-0.0002656868,-0.0002893484,2,1
-0.0001358725,-0.0002415391,2,1
1.371378e-05,-0.0002011848,2,1
0.0001423936,-0.0001715269,2,1
0.0002214815,-0.0001496481,2,1
0.0002394708,-0.0001295519,2,1
0.0002075439,-0.0001088076,2,1
0.0001495245,-8.692878e-05,2,1
9.053275e-05,-6.602235e-05,2,1
4.758544e-05,-5.111234e-05,2,1
2.700314e-05,-4.333321e-05,2,1
2.100672e-05,-3.895745e-05,2,1
1.59827e-05,-3.474375e-05,2,1
1.396819e-06,-2.939559e-05,2,1
-2.291298e-05,-2.518189e-05,2,1
-4.949169e-05,-2.129233e-05,2,1
-7.33153e-05,-1.643037e-05,2,1
-9.438378e-05,-1.027188e-05,2,1
-0.0001157764,-2.168618e-06,2,1
-0.0001334415,8.365628e-06,2,1
-0.0001408965,2.295151e-05,2,1
-0.0001324691,3.55926e-05,2,1
-0.0001081593,4.142696e-05,2,1
-7.363943e-05,3.915804e-05,2,1
-3.458168e-05,3.688912e-05,2,1
6.744974e-06,4.061663e-05,2,1
4.531652e-05,4.920609e-05,2,1
7.870197e-05,6.281957e-05,2,1
0.0001023635,8.42122e-05,2,1
0.0001104668,0.0001107909,2,1
9.328786e-05,0.0001372076,2,1
4.985435e-05,0.0001586002,2,1
-1.3027e-05,0.0001757791,2,1
-8.320128e-05,0.0001893926,2,1
-0.0001475412,0.0001994406,2,1
-0.0001950263,0.0002060853,2,1
-0.0002217671,0.0002094887,2,1
-0.0002340841,0.0002115956,2,1
-0.0002366771,0.0002166196,2,1
-0.0002293842,0.0002255332,2,1
-0.0002096122,0.0002362295,2,1
-0.0001780095,0.0002467637,2,1
-0.0001387897,0.0002564877,2,1
-9.924574e-05,0.000264753,2,1
-6.715681e-05,0.0002707494,2,1
-4.80331e-05,0.0002767458,2,1
-5.062615e-05,0.0002807975,2,1
-9.179074e-05,0.0002777182,2,1
-0.000176875,0.0002629703,2,1
-0.0002956689,0.0002367157,2,1
-0.0004227281,0.0002041406,2,1
-0.00053666,0.000173024,2,1
-0.000621096,0.0001464453,2,1
-0.0006714982,0.0001221355,2,1
-0.0006873807,0.0001026876,2,1
-0.0006685811,9.296373e-05,2,1
-0.0006197995,9.750156e-05,2,1
-0.0005369841,0.0001151667,2,1
-0.0004084663,0.0001380179,2,1
-0.000221605,0.000158114,2,1
3.202716e-05,0.0001707551,2,1
0.0003435168,0.0001692965,2,1
0.0006804507,0.0001504969,2,1
0.0009914545,0.0001130598,2,1
0.001229853,6.281957e-05,2,1
0.001383491,1.079661e-05,2,1
0.001478461,-3.312309e-05,2,1
0.001539398,-6.521203e-05,2,1
0.001564032,-8.368748e-05,2,1
0.001535347,-9.276313e-05,2,1
0.001452693,-9.373552e-05,2,1
0.001342488,-8.82253e-05,2,1
0.001238929,-8.222889e-05,2,1
0.001171347,-7.542214e-05,2,1
0.001150441,-6.164659e-05,2,1
0.00116843,-3.63644e-05,2,1
0.001195009,-1.520357e-06,2,1
0.001195333,3.478228e-05,2,1
0.001152385,6.103686e-05,2,1
0.001066977,6.995045e-05,2,1
0.0009389452,5.844381e-05,2,1
0.0007788245,2.716521e-05,2,1
0.0006200004,-1.351319e-05,2,1
0.0005037994,-4.932962e-05,2,1
0.0004525868,-7.347736e-05,2,1
0.0004555039,-8.854943e-05,2,1
0.0004812723,-0.000104756,2,1
0.0005067165,-0.0001298761,2,1
0.0005302161,-0.0001624512,2,1
0.0005525811,-0.0001971332,2,1
0.0005661946,-0.0002280877,2,1
0.0005577672,-0.000253694,2,1
0.0005182233,-0.0002741142,2,1
0.0004438352,-0.0002914552,2,1
0.0003431926,-0.0003110651,2,1
0.0002268297,-0.0003397507,2,1
0.000103498,-0.0003812394,2,1
-1.934754e-05,-0.0004309934,2,1
-0.0001436516,-0.0004809095,2,1
-0.0002621213,-0.0005246671,2,1
-0.0003566054,-0.0005536768,2,1
-0.0004188385,-0.0005608077,2,1
-0.0004561135,-0.0005433047,2,1
-0.0004825302,-0.0005018159,2,1
-0.0005066779,-0.0004382863,2,1
-0.0005311498,-0.0003567675,2,1
-0.0005578905,-0.0002596904,2,1
-0.0005987309,-0.0001522411,2,1
-0.0006718224,-4.544006e-05,2,1
-0.0007909404,5.163707e-05,2,1
-0.0009517092,0.0001351007,2,1
-0.001121716,0.0002117576,2,1
-0.001250395,0.0002889007,2,1
-0.001286212,0.0003730126,2,1
-0.001203397,0.0004683071,2,1
-0.001019939,0.0005694359,2,1
-0.0007902921,0.0006640821,2,1
-0.0005773384,0.0007394425,2,1
-0.0004282383,0.0007937344,2,1
-0.0003570916,0.0008280924,2,1
-0.0003488263,0.0008452713,2,1
-0.0003721637,0.0008452713,2,1
-0.0003979321,0.0008264717,2,1
-0.0004128421,0.0007895208,2,1
-0.0004117076,0.0007389564,2,1
-0.0003935563,0.0006768853,2,1
-0.000365357,0.0006013628,2,1
-0.0003363473,0.0005068787,2,1
-0.0003175477,0.0003924605,2,1
-0.0003156029,0.0002692908,2,1
-0.0003318095,0.0001467694,2,1
-0.0003617915,2.894792e-05,2,1
-0.0003979321,-8.935975e-05,2,1
-0.00042759,-0.0002159328,2,1
-0.0004382863,-0.0003519055,2,1
-0.0004272659,-0.0004836646,2,1
-0.000405225,-0.0005922483,2,1
-0.000385291,-0.0006645294,2,1
-0.0003763774,-0.0006946736,2,1
-0.0003836704,-0.0006857601,2,1
-0.0003984183,-0.0006523746,2,1
-0.0004053871,-0.000613803,2,1
-0.0003929081,-0.0005846313,2,1
-0.0003549848,-0.0005732867,2,1
-0.0002989102,-0.0005753936,2,1
-0.0002345703,-0.0005742591,2,1
-0.0001762268,-0.0005518941,2,1
-0.0001363587,-0.0004993849,2,1
-0.0001302002,-0.0004186764,2,1
-0.0001626133,-0.0003228959,2,1
-0.0002233878,-0.0002276015,2,1
-0.0002979378,-0.0001431655,2,1
-0.0003682741,-7.33153e-05,2,1
-0.000405225,-1.756482e-05,2,1
-0.0003807532,2.424803e-05,2,1
-0.0002914552,5.763349e-05,2,1
-0.0001632615,8.226741e-05,2,1
-4.041603e-05,9.912221e-05,2,1
3.867184e-05,0.0001083599,2,1
5.56887e-05,0.0001106288,2,1
1.695509e-05,0.0001056048,2,1
-4.932962e-05,9.571884e-05,2,1
-0.0001115627,8.79397e-05,2,1
-0.0001480274,8.648112e-05,2,1
-0.0001502963,8.907416e-05,2,1
-0.0001201522,9.31258e-05,2,1
-6.634648e-05,9.798775e-05,2,1
2.207145e-06,0.0001039842,2,1
8.129502e-05,0.0001078737,2,1
0.0001710792,0.0001069013,2,1
0.0002757735,0.0001038221,2,1
0.0004055878,0.0001056048,2,1
0.0005616568,0.0001268354,2,1
0.0007300428,0.0001767515,2,1
0.0008788189,0.0002493568,2,1
0.000975572,0.0003248792,2,1
0.0009984232,0.0003867882,2,1
0.0009522345,0.000428277,2,1
0.0008648812,0.0004504799,2,1
0.0007773659,0.0004522626,2,1
0.0007146465,0.0004331389,2,1
0.0006801266,0.0003950536,2,1
0.0006603546,0.0003410858,2,1
0.0006433378,0.0002762596,2,1
0.0006188659,0.0002086784,2,1
0.0005791598,0.0001420695,2,1
0.0005271368,7.270556e-05,2,1
0.0004718725,-5.734056e-06,2,1
0.0004235771,-9.130454e-05,2,1
0.0003901916,-0.0001776853,2,1
0.0003707437,-0.0002540181,2,1
0.0003597233,-0.000310741,2,1
0.000341734,-0.0003416954,2,1
0.0003002453,-0.0003454229,2,1
0.000225047,-0.0003245165,2,1
0.0001200286,-0.0002846485,2,1
2.531276e-06,-0.0002321393,2,1
-0.000104756,-0.0001741199,2,1
-0.0001865989,-0.0001230693,2,1
-0.0002335979,-8.44978e-05,2,1
-0.0002378116,-5.824322e-05,2,1
-0.0001924333,-3.814712e-05,2,1
-9.746302e-05,-1.788895e-05,2,1
2.81376e-05,9.338019e-06,2,1
0.0001474177,4.499239e-05,2,1
0.000225047,8.631905e-05,2,1
0.0002435224,0.0001281319,2,1
0.0001996027,0.0001676758,2,1
0.0001025256,0.0002020337,2,1
-2.177852e-05,0.0002240746,2,1
-0.000134738,0.0002278021,2,1
-0.0002092881,0.000215161,2,1
-0.0002381357,0.0001931201,2,1
-0.0002361909,0.000173024,2,1
-0.0002180396,0.0001594105,2,1
-0.0001799543,0.0001526038,2,1
-0.0001065387,0.000150659,2,1
5.86492e-07,0.0001539003,2,1
0.0001138702,0.0001584381,2,1
0.0001942546,0.0001582761,2,1
0.0002171058,0.0001472556,2,1
0.0001817755,0.000123432,2,1
0.0001101427,9.053275e-05,2,1
3.429608e-05,5.795762e-05,2,1
-2.145439e-05,3.591673e-05,2,1
-4.884343e-05,3.154097e-05,2,1
-6.342931e-05,4.191315e-05,2,1
-8.595638e-05,5.763349e-05,2,1
-0.0001248521,7.140904e-05,2,1
-0.0001778474,8.032264e-05,2,1
-0.0002344082,8.46984e-05,2,1
-0.000276059,8.307774e-05,2,1
-0.0002925897,7.221937e-05,2,1
-0.0002887001,5.082674e-05,2,1
-0.0002773555,2.554455e-05,2,1
-0.0002700626,3.827799e-06,2,1
-0.0002723315,-8.002969e-06,2,1
-0.0002895104,-1.124428e-05,2,1
-0.0003237062,-1.497178e-05,2,1
-0.0003684362,-2.631635e-05,2,1
-0.0004047388,-4.268495e-05,2,1
-0.0004099249,-6.342931e-05,2,1
-0.0003708672,-8.563225e-05,2,1
-0.0002899966,-0.0001076731,2,1
-0.0001812508,-0.000122259,2,1
-6.796714e-05,-0.0001308485,2,1
2.149292e-05,-0.0001361966,2,1
6.362991e-05,-0.0001391138,2,1
4.839576e-05,-0.0001412206,2,1
-8.489166e-06,-0.0001418689,2,1
-7.671866e-05,-0.0001357104,2,1
-0.0001323071,-0.000119666,2,1
-0.0001611547,-9.924574e-05,2,1
-0.0001655305,-7.833932e-05,2,1
-0.0001498101,-6.116039e-05,2,1
-0.0001154523,-4.85193e-05,2,1
-5.889148e-05,-3.814712e-05,2,1
2.424803e-05,-2.939559e-05,2,1
0.0001321835,-1.950961e-05,2,1
0.000254867,-8.813297e-06,2,1
0.000383871,5.934648e-06,2,1
0.0005188715,2.424803e-05,2,1
0.0006642442,4.499239e-05,2,1
0.000812372,6.41161e-05,2,1
0.0009365142,7.610894e-05,2,1
0.001007013,8.129502e-05,2,1
0.001011713,8.356394e-05,2,1
0.0009630929,8.42122e-05,2,1
0.00089146,8.534666e-05,2,1
0.0008224201,8.777764e-05,2,1
0.000772828,9.182927e-05,2,1
0.0007362012,9.717743e-05,2,1
0.000686123,0.0001018773,2,1
0.0006026593,0.0001015532,2,1
0.0004741415,9.879808e-05,2,1
0.0003047831,9.928428e-05,2,1
0.0001073875,0.0001069013,2,1
-9.2439e-05,0.0001172735,2,1
-0.0002596904,0.0001206769,2,1
-0.0003745947,0.0001146805,2,1
-0.0004337485,0.000103498,2,1
-0.0004446069,9.377406e-05,2,1
-0.0004084663,9.053275e-05,2,1
-0.0003275957,9.701536e-05,2,1
-0.0002241981,0.0001127357,2,1
-0.0001344139,0.0001328318,2,1
-8.935975e-05,0.0001479039,2,1
-0.0001031353,0.0001508211,2,1
-0.0001695821,0.0001398006,2,1
-0.0002634179,0.0001187321,2,1
-0.000355633,9.393612e-05,2,1
-0.000427428,6.719535e-05,2,1
-0.0004713477,3.948217e-05,2,1
-0.0004891749,1.241726e-05,2,1
-0.0004904714,-1.610624e-05,2,1
-0.000484637,-4.85193e-05,2,1
-0.0004753993,-8.465986e-05,2,1
-0.0004595169,-0.0001182074,2,1
-0.000434883,-0.0001447861,2,1
-0.0004065215,-0.0001598582,2,1
-0.0003801049,-0.0001603444,2,1
-0.0003585502,-0.0001464067,2,1
-0.000350609,-0.00012469,2,1
-0.0003732982,-0.0001042698,2,1
-0.0004371519,-8.968389e-05,2,1
-0.0005322842,-8.239095e-05,2,1
-0.0006282268,-8.07703e-05,2,1
-0.0006899738,-8.336335e-05,2,1
-0.0006901358,-9.017008e-05,2,1
-0.0006092652,-0.0001003802,2,1
-0.0004361795,-0.0001167488,2,1
-0.0001762268,-0.0001373311,2,1
0.000135911,-0.0001577513,2,1
0.0004354078,-0.0001757406,2,1
0.0006629477,-0.0001943781,2,1
0.0007810934,-0.0002170672,2,1
0.0007746107,-0.0002444563,2,1
0.0006460929,-0.0002747625,2,1
0.0004292493,-0.000301017,2,1
0.0001791825,-0.0003162512,2,1
-4.770897e-05,-0.0003188442,2,1
-0.0002126914,-0.0003126857,2,1
-0.0003026377,-0.0003024756,2,1
-0.0003337542,-0.0002904828,2,1
-0.0003321336,-0.000273628,2,1
-0.0003253268,-0.0002517492,2,1
-0.000335699,-0.0002279256,2,1
-0.0003669776,-0.0002019951,2,1
-0.0004105732,-0.0001747682,2,1
-0.0004536825,-0.0001481895,2,1
-0.0004899852,-0.0001276072,2,1
-0.0005181845,-0.0001170729,2,1
-0.0005447632,-0.0001094559,2,1
-0.0005747453,-9.859748e-05,2,1
-0.0006065101,-7.963584e-05,2,1
-0.0006214201,-5.338126e-05,2,1
-0.0005953276,-2.09682e-05,2,1
-0.0005081365,1.760335e-05,2,1
-0.0003587123,6.119892e-05,2,1
-0.0001635857,0.0001056048,2,1
4.499239e-05,0.0001454729,2,1
0.0002315296,0.0001809652,2,1
0.0003696093,0.0002188885,2,1
0.0004530729,0.0002602152,2,1
0.0005060683,0.0003004074,2,1
0.0005710566,0.0003328204,2,1
0.0006768853,0.0003522683,2,1
0.0008185305,0.0003577785,2,1
0.0009622826,0.0003487029,2,1
0.001062439,0.0003297412,2,1
0.001088208,0.0003057555,2,1
0.001040884,0.0002876042,2,1
0.0009417002,0.0002806354,2,1
0.0008183684,0.0002869559,2,1
0.0006848265,0.0003007315,2,1
0.0005495019,0.0003112658,2,1
0.0004063981,0.0003091589,2,1
0.000252274,0.0002903593,2,1
9.993253e-05,0.0002607014,2,1
-3.279896e-05,0.0002297469,2,1
-0.0001243659,0.0002020337,2,1
-0.0001618029,0.0001808031,2,1
-0.0001473791,0.0001701068,2,1
-9.730096e-05,0.000173024,2,1
-4.171256e-05,0.0001856651,2,1
-2.129233e-05,0.0001965235,2,1
-6.294311e-05,0.0001991165,2,1
-0.0001642339,0.0001898788,2,1
-0.0002987481,0.0001654069,2,1
-0.0004308313,0.0001219734,2,1
-0.0005350393,6.006447e-05,2,1
-0.0005964621,-1.464765e-05,2,1
-0.0006131548,-9.260107e-05,2,1
-0.0005963,-0.0001611547,2,1
-0.0005637249,-0.0002123673,2,1
-0.0005350393,-0.0002465631,2,1
-0.0005209396,-0.000263742,2,1
-0.0005211017,-0.000266011,2,1
-0.0005272602,-0.0002558008,2,1
-0.0005272602,-0.0002347323,2,1
-0.0005092709,-0.0002044261,2,1
-0.000464703,-0.0001677994,2,1
-0.0003890185,-0.0001290658,2,1
-0.000278652,-9.260107e-05,2,1
-0.0001349001,-6.407757e-05,2,1
2.76514e-05,-4.495386e-05,2,1
0.0001833962,-3.279896e-05,2,1
0.0003101313,-2.550602e-05,2,1
0.0003957018,-2.615429e-05,2,1
0.0004425387,-3.26369e-05,2,1
0.0004634451,-4.560212e-05,2,1
0.0004744656,-6.44017e-05,2,1
0.000490348,-8.336335e-05,2,1
0.0005206542,-9.681477e-05,2,1
0.0005726772,-0.000104918,2,1
0.000634262,-0.0001112386,2,1
0.0006648925,-0.0001204763,2,1
0.0006234037,-0.0001353863,2,1
0.0004989374,-0.0001489998,2,1
0.0003128864,-0.0001501342,2,1
0.0001080358,-0.0001324691,2,1
-6.748094e-05,-9.940781e-05,2,1
-0.000174444,-5.872941e-05,2,1
-0.0001953505,-1.788895e-05,2,1
-0.0001342519,1.808955e-05,2,1
-1.659243e-05,4.515445e-05,2,1
0.0001214872,6.330578e-05,2,1
0.0002467637,7.108491e-05,2,1
0.0003509718,6.78436e-05,2,1
0.0004430249,5.423012e-05,2,1
0.0005337815,3.656499e-05,2,1
0.0006281036,2.230325e-05,2,1
0.000710757,1.565857e-05,2,1
0.0007551629,1.614476e-05,2,1
0.0007428459,2.230325e-05,2,1
0.0006817472,3.056858e-05,2,1
0.0005952043,3.786152e-05,2,1
0.0005097958,4.466826e-05,2,1
0.0004499937,5.115087e-05,2,1
0.0004370285,5.666109e-05,2,1
0.0004733311,5.893001e-05,2,1
0.0005412365,5.552663e-05,2,1
0.0006065489,4.385793e-05,2,1
0.0006303725,2.522042e-05,2,1
0.0005773771,2.207145e-06,2,1
0.0004415663,-2.226472e-05,2,1
0.0002482223,-4.673658e-05,2,1
3.753739e-05,-6.893953e-05,2,1
-0.0001504584,-8.676672e-05,2,1
-0.0002982619,-0.0001028112,2,1
-0.0004112214,-0.000114804,2,1
-0.0005100812,-0.0001154523,2,1
-0.0006076446,-9.778715e-05,2,1
-0.000700508,-6.261898e-05,2,1
-0.0007654962,-1.821308e-05,2,1
-0.0007753822,2.603075e-05,2,1
-0.0007121767,6.768154e-05,2,1
-0.0005783107,0.0001101427,2,1
-0.0004074939,0.0001551968,2,1
-0.0002554767,0.0001986303,2,1
-0.0001789819,0.0002347709,2,1
-0.0002073433,0.0002579462,2,1
-0.0003224097,0.0002645909,2,1
-0.0004744269,0.0002532463,2,1
-0.0006055377,0.0002265056,2,1
-0.0006672846,0.0001876099,2,1
-0.0006257959,0.0001462832,2,1
-0.0004786406,0.0001153287,2,1
-0.0002622834,0.0001049566,2,1
-3.474375e-05,0.0001180839,2,1
0.0001412592,0.000148228,2,1
0.0002308813,0.0001843686,2,1
0.0002302331,0.0002158093,2,1
0.0001561692,0.000235095,2,1
4.175109e-05,0.0002402811,2,1
-7.526008e-05,0.0002312055,2,1
-0.0001681235,0.0002096508,2,1
-0.0002303566,0.0001822617,2,1
-0.0002650386,0.0001550348,2,1
-0.0002820554,0.000128294,2,1
-0.000283514,0.0001012291,2,1
-0.000268604,6.930219e-05,2,1
-0.0002431597,3.218923e-05,2,1
-0.000219012,-8.165035e-06,2,1
-0.00021415,-4.268495e-05,2,1
-0.0002431597,-6.958779e-05,2,1
-0.0003104168,-9.098041e-05,2,1
-0.0004078181,-0.0001070249,2,1
-0.0005110537,-0.0001177212,2,1
-0.0005857658,-0.0001232314,2,1
-0.0005917621,-0.0001214487,2,1
-0.0005092709,-0.0001105903,2,1
-0.0003638984,-9.778715e-05,2,1
-0.0002081536,-9.049421e-05,2,1
-9.308726e-05,-9.357346e-05,2,1
-4.787104e-05,-0.0001068628,2,1
-7.072225e-05,-0.0001306864,2,1
-0.0001383035,-0.0001582375,2,1
-0.0002186879,-0.0001865989,2,1
-0.0002883759,-0.0002151224,2,1
-0.0003386162,-0.0002441321,2,1
-0.0003702189,-0.0002679557,2,1
-0.0003854531,-0.0002827037,2,1
-0.0003786463,-0.0002875656,2,1
-0.0003439643,-0.0002828657,2,1
-0.0002822175,-0.0002729798,2,1
-0.0001911368,-0.0002617972,2,1
-6.731888e-05,-0.0002481838,2,1
9.020862e-05,-0.0002245222,2,1
0.0002636185,-0.0001883817,2,1
0.0004114222,-0.0001387897,2,1
0.0004924549,-8.109443e-05,2,1
0.0005023408,-2.46957e-05,2,1
0.0004817585,2.39239e-05,2,1
0.0004867825,6.444023e-05,2,1
0.0005464226,0.0001025256,2,1
0.0006499824,0.0001441764,2,1
0.0007600249,0.0001902029,2,1
0.000839437,0.0002407673,2,1
0.0008724983,0.0002974902,2,1
0.0008665019,0.000361506,2,1
0.000839437,0.0004323286,2,1
0.000809941,0.0005096338,2,1
0.0007869278,0.0005887217,2,1
0.0007684522,0.0006584098,2,1
0.0007383081,0.0007065432,2,1
0.0006770474,0.0007229118,2,1
0.0005778633,0.0007007089,2,1
0.0004504799,0.0006404206,2,1
0.0003112658,0.0005501501,2,1
0.0001798307,0.0004443214,2,1
7.756752e-05,0.0003380065,2,1
2.327564e-05,0.0002389846,2,1
1.938607e-05,0.0001483901,2,1
5.325772e-05,6.022653e-05,2,1
9.53947e-05,-2.226472e-05,2,1
0.000113384,-8.919769e-05,2,1
9.26396e-05,-0.0001248521,2,1
3.915804e-05,-0.0001250141,2,1
-3.069211e-05,-0.0001079973,2,1
-0.0001000561,-9.924574e-05,2,1
-0.0001559686,-0.0001212866,2,1
-0.0001937298,-0.0001857886,2,1
-0.0002172293,-0.0002843243,2,1
-0.0002365151,-0.0003974459,2,1
-0.0002543422,-0.0005013297,2,1
-0.0002666592,-0.0005822003,2,1
-0.0002655248,-0.0006345474,2,1
-0.0002357047,-0.0006588572,2,1
-0.0001507825,-0.0006548056,2,1
5.124321e-06,-0.0006254718,2,1
0.0002164575,-0.0005750695,2,1
0.0004410801,-0.0005126743,2,1
0.0006287518,-0.0004501171,2,1
0.0007353909,-0.0003911253,2,1
0.0007336082,-0.0003366714,2,1
0.0006198382,-0.0002898345,2,1
0.0004167703,-0.0002530457,2,1
0.000160545,-0.0002259808,2,1
-0.0001112386,-0.0002088019,2,1
-0.0003611433,-0.000199078,2,1
-0.0005572423,-0.0001968091,2,1
-0.0006825188,-0.0002050744,2,1
-0.0007342176,-0.0002237119,2,1
-0.0007280591,-0.0002433218,2,1
-0.0006945116,-0.000253694,2,1
-0.0006595054,-0.0002491561,2,1
-0.0006330888,-0.0002261429,2,1
-0.0006159099,-0.000184168,2,1
-0.0005954896,-0.0001284175,2,1
-0.0005638869,-6.602235e-05,2,1
-0.0005253154,-1.844488e-06,2,1
-0.0004940368,6.103686e-05,2,1
-0.0004839888,0.0001201907,2,1
-0.0004990608,0.000170431,2,1
-0.000524181,0.0002115956,2,1
-0.0005352014,0.0002412535,2,1
-0.0005172121,0.0002629703,2,1
-0.0004694029,0.0002829043,2,1
-0.0004014975,0.0003055935,2,1
-0.0003335922,0.0003290929,2,1
-0.0002875656,0.0003542131,2,1
-0.0002739521,0.0003801436,2,1
-0.0002911311,0.0004021844,2,1
-0.0003224097,0.0004104497,2,1
-0.0003512573,0.0003997535,2,1
-0.0003585502,0.0003743092,2,1
-0.0003222476,0.000346596,2,1
-0.0002306807,0.0003247172,2,1
-9.778715e-05,0.0003111037,2,1
3.883391e-05,0.0003033245,2,1
0.0001464453,0.0002859836,2,1
0.0002190506,0.0002430362,2,1
0.0002675081,0.0001603829,2,1
0.0003051073,4.483033e-05,2,1
0.0003355756,-7.898758e-05,2,1
0.0003574544,-0.0001861127,2,1
0.0003626405,-0.0002616352,2,1
0.0003440029,-0.0003044204,2,1
0.0003028383,-0.0003220855,2,1
0.0002467637,-0.0003267854,2,1
0.0001867996,-0.0003251648,2,1
0.0001386662,-0.0003196545,2,1
0.0001269974,-0.0003062031,2,1
0.0001662173,-0.0002801106,2,1
0.0002626462,-0.0002420253,2,1
0.0004145014,-0.0001945401,2,1
0.0006081695,-0.0001378173,2,1
0.0008154513,-7.363943e-05,2,1
0.001006364,-3.951337e-06,2,1
0.001149306,6.962632e-05,2,1
0.001211377,0.0001436902,2,1
0.00116924,0.0002145127,2,1
0.001018033,0.0002769079,2,1
0.0007807693,0.0003313618,2,1
0.000502827,0.0003770643,2,1
0.0002389846,0.0004145014,2,1
2.862379e-05,0.0004435111,2,1
-0.0001081593,0.0004645796,2,1
-0.0001724993,0.0004809482,2,1
-0.0001776853,0.0004956961,2,1
-0.0001488377,0.0005039615,2,1
-0.0001162626,0.0005037994,2,1
-0.0001109144,0.0004922928,2,1
-0.0001517549,0.0004694416,2,1
-0.0002378116,0.0004375147,2,1
-0.0003517435,0.0003989431,2,1
-0.0004685925,0.0003581026,2,1
-0.0005554595,0.0003161277,2,1
-0.0005828486,0.0002744769,2,1
-0.0005321222,0.0002365536,2,1
-0.0004065215,0.0002017096,2,1
-0.0002303566,0.0001670276,2,1
-3.522994e-05,0.0001321835,2,1
0.0001446626,9.863601e-05,2,1
0.0002853353,6.881599e-05,2,1
0.000378847,4.45062e-05,2,1
0.0004277907,2.878586e-05,2,1
0.0004381629,1.792748e-05,2,1
0.0004230909,8.689758e-06,2,1
0.0004005638,1.234753e-06,2,1
0.0003922984,-3.465141e-06,2,1
0.000411098,-5.57199e-06,2,1
0.0004401077,-7.840905e-06,2,1
0.0004436732,-1.351319e-05,2,1
0.0003918123,-2.664048e-05,2,1
0.0002759355,-4.560212e-05,2,1
0.0001091703,-6.893953e-05,2,1
-8.158062e-05,-9.697683e-05,2,1
-0.0002632558,-0.0001274451,2,1
-0.0004018217,-0.0001564548,2,1
-0.0004753993,-0.0001809267,2,1
-0.000487068,-0.0001955125,2,1
-0.0004535205,-0.0002003745,2,1
-0.000402794,-0.0002006986,2,1
-0.0003569296,-0.0002075054,2,1
-0.0003261372,-0.0002219292,2,1
-0.0003144685,-0.0002370013,2,1
-0.0003285682,-0.0002493182,2,1
-0.0003638984,-0.000261311,2,1
-0.0004061974,-0.0002744383,2,1
-0.0004379622,-0.0002852967,2,1
-0.0004459034,-0.0002912931,2,1
-0.0004277521,-0.0002890242,2,1
-0.0003948528,-0.0002794623,2,1
-0.000362926,-0.0002671454,2,1
-0.000350609,-0.0002574215,2,1
-0.0003660052,-0.000251101,2,1
-0.0003998769,-0.0002442942,2,1
-0.0004303451,-0.0002310048,2,1
-0.0004298589,-0.0002112329,2,1
-0.0003807532,-0.0001888679,2,1
-0.0002833519,-0.0001674752,2,1
-0.0001472171,-0.0001489998,2,1
1.857574e-05,-0.0001339277,2,1
0.0001968476,-0.0001191798,2,1
0.000359075,-0.0001039456,2,1
0.0004731691,-8.838737e-05,2,1
0.0005200059,-7.137051e-05,2,1
0.0005013684,-5.354332e-05,2,1
0.000435894,-3.717473e-05,2,1
0.0003508097,-2.210265e-05,2,1
0.0002639427,-7.192643e-06,2,1
0.0001861513,8.527692e-06,2,1
0.0001253768,2.570662e-05,2,1
8.777764e-05,4.061663e-05,2,1
7.076078e-05,4.855783e-05,2,1
6.346784e-05,5.034055e-05,2,1
5.633696e-05,4.985435e-05,2,1
4.693717e-05,5.455425e-05,2,1
4.126489e-05,6.930219e-05,2,1
4.580272e-05,8.988449e-05,2,1
6.78436e-05,0.0001086841,2,1
0.0001263492,0.0001198666,2,1
0.0002430362,0.0001224596,2,1
0.0004243874,0.0001219734,2,1
0.0006433378,0.0001227837,2,1
0.0008428403,0.0001276457,2,1
0.0009664963,0.000135749,2,1
0.0009797857,0.0001539003,2,1
0.0008828705,0.0001856651,2,1
0.0007016813,0.0002265056,2,1
0.000477869,0.0002642668,2,1
0.0002540567,0.0002890628,2,1
5.828175e-05,0.0002960316,2,1
-0.0001015147,0.0002890628,2,1
-0.0002373254,0.0002744769,2,1
-0.0003587123,0.0002555152,2,1
-0.0004694029,0.0002313675,2,1
-0.0005682627,0.0002018716,2,1
-0.0006489712,0.0001633001,2,1
-0.0007082871,0.0001106288,2,1
-0.0007518827,4.320967e-05,2,1
-0.0007979092,-2.745081e-05,2,1
-0.0008583596,-9.454585e-05,2,1
-0.0009309648,-0.0001601823,2,1
-0.0009912532,-0.0002259808,2,1
-0.001005029,-0.0002917793,2,1
-0.000946523,-0.0003579019,2,1
-0.0008175191,-0.0004233763,2,1
-0.000638599,-0.000477182,2,1
-0.0004217557,-0.0005016539,2,1
-0.0001697442,-0.0004826922,2,1
0.0001009049,-0.0004262935,2,1
0.0003511338,-0.0003540124,2,1
0.0005355643,-0.0002891863,2,1
0.0006245382,-0.0002439701,2,1
0.0006281036,-0.0002135018,2,1
0.0005815908,-0.0001859507,2,1
0.0005256782,-0.0001515928,2,1
0.0004862963,-0.0001094559,2,1
0.0004697657,-6.39155e-05,2,1
0.0004627969,-1.869928e-05,2,1
0.0004386491,1.841368e-05,2,1
0.0003696093,4.158902e-05,2,1
0.000247412,5.034055e-05,2,1
8.226741e-05,4.82337e-05,2,1
-0.000102325,4.077869e-05,2,1
-0.0002770314,2.975825e-05,2,1
-0.0004117076,1.727922e-05,2,1
-0.0004891749,6.096713e-06,2,1
-0.0005079744,-1.844488e-06,2,1
-0.0004831784,-2.492749e-06,2,1
-0.0004342347,6.90704e-06,2,1
-0.0003792946,2.603075e-05,2,1
-0.00033813,5.666109e-05,2,1
-0.0003224097,9.377406e-05,2,1
-0.0003269475,0.0001260251,2,1
-0.0003326198,0.0001453108,2,1
-0.0003136581,0.000148228,2,1
-0.0002549905,0.0001402868,2,1
-0.0001480274,0.0001265113,2,1
9.66215e-06,0.0001112771,2,1
0.0002190506,9.960841e-05,2,1
0.0004649037,9.199134e-05,2,1
0.0007125397,8.615699e-05,2,1
0.000918687,7.870197e-05,2,1
0.001044288,7.059871e-05,2,1
0.001068922,6.184718e-05,2,1
0.0009961543,5.601284e-05,2,1
0.0008583986,4.953022e-05,2,1
0.0006932539,4.061663e-05,2,1
0.0005332953,2.684107e-05,2,1
0.0004020224,7.879432e-06,2,1
0.0003057555,-1.20546e-05,2,1
0.0002378501,-2.501983e-05,2,1
0.0001895547,-2.372331e-05,2,1
0.0001508211,-1.075808e-05,2,1
0.0001146805,1.014835e-05,2,1
7.740546e-05,3.235129e-05,2,1
4.596478e-05,5.19612e-05,2,1
3.283749e-05,6.589881e-05,2,1
4.418206e-05,7.465034e-05,2,1
7.659513e-05,7.789165e-05,2,1
0.0001148425,7.400208e-05,2,1
0.0001435281,5.99024e-05,2,1
0.0001551968,3.170304e-05,2,1
0.0001547106,-3.627206e-06,2,1
0.000145635,-2.971972e-05,2,1
0.0001235941,-2.664048e-05,2,1
7.967438e-05,1.1769e-05,2,1
8.041497e-06,7.335383e-05,2,1
-8.984595e-05,0.0001370455,2,1
-0.0002068571,0.0001910133,2,1
-0.0003297026,0.0002282883,2,1
-0.0004343968,0.0002495189,2,1
-0.0004984126,0.0002602152,2,1
-0.0005186707,0.0002662116,2,1
-0.0005102433,0.0002744769,2,1
-0.0004917679,0.0002884145,2,1
-0.0004786406,0.0003081865,2,1
-0.0004710235,0.0003258516,2,1
-0.000452224,0.0003321722,2,1
-0.0004198109,0.0003264999,2,1
-0.0003982562,0.000311914,2,1
-0.0004183523,0.0002866318,2,1
-0.000482206,0.0002472499,2,1
-0.0005587008,0.0001960373,2,1
-0.0006167202,0.0001388282,2,1
-0.0006356818,9.507057e-05,2,1
-0.0005956517,8.437427e-05,2,1
-0.0004800992,0.0001125736,2,1
-0.0002937241,0.0001663793,2,1
-6.586029e-05,0.0002243987,2,1
0.0001577899,0.0002665357,2,1
0.0003260137,0.0002785285,2,1
0.0004015361,0.0002556773,2,1
0.0003765781,0.0002049509,2,1
0.0002718839,0.0001410971,2,1
0.000128456,7.351589e-05,2,1
-1.270286e-05,6.90704e-06,2,1
-0.0001209625,-5.791909e-05,2,1
-0.000191623,-0.0001146419,2,1
-0.0002340841,-0.0001575893,2,1
-0.0002543422,-0.0001836818,2,1
-0.0002554767,-0.0002006986,2,1
-0.0002298704,-0.0002245222,2,1
-0.0001637477,-0.000268604,2,1
-5.257093e-05,-0.0003301888,2,1
9.912221e-05,-0.0003948528,2,1
0.0002739907,-0.0004441207,2,1
0.0004360561,-0.0004643789,2,1
0.0005404262,-0.0004549791,2,1
0.0005613327,-0.0004196489,2,1
0.0005136854,-0.0003585502,2,1
0.0004439973,-0.0002723315,2,1
0.000403643,-0.0001707166,2,1
0.0004154738,-7.250496e-05,2,1
0.0004645796,3.341602e-06,2,1
0.0005183853,4.596478e-05,2,1
0.0005438296,5.893001e-05,2,1
0.000517575,5.163707e-05,2,1
0.0004326527,3.235129e-05,2,1
0.0003010556,9.824215e-06,2,1
0.0001534141,-1.075808e-05,2,1
2.975825e-05,-2.696461e-05,2,1
-4.544006e-05,-4.155049e-05,2,1
-7.088431e-05,-5.678463e-05,2,1
-6.278104e-05,-7.201877e-05,2,1
-3.539201e-05,-8.07703e-05,2,1
-3.858999e-07,-7.169464e-05,2,1
2.76514e-05,-3.928157e-05,2,1
4.515445e-05,1.031041e-05,2,1
5.260946e-05,6.087479e-05,2,1
5.893001e-05,9.231547e-05,2,1
6.055066e-05,9.182927e-05,2,1
5.56887e-05,5.649903e-05,2,1
4.531652e-05,-2.978945e-06,2,1
3.478228e-05,-6.715681e-05,2,1
2.667901e-05,-0.0001232314,2,1
2.230325e-05,-0.0001705545,2,1
1.889987e-05,-0.0002143121,2,1
1.59827e-05,-0.0002564491,2,1
1.436204e-05,-0.0002932379,2,1
1.711715e-05,-0.0003188442,2,1
2.34377e-05,-0.0003295405,2,1
2.522042e-05,-0.0003215994,2,1
1.436204e-05,-0.0002963172,2,1
-6.220252e-06,-0.0002590421,2,1
-2.777494e-05,-0.0002156086,2,1
-4.252288e-05,-0.0001677994,2,1
-5.500191e-05,-0.0001131834,2,1
-6.699475e-05,-4.608832e-05,2,1
-8.109443e-05,2.992031e-05,2,1
-9.438378e-05,0.0001038221,2,1
-0.0001013526,0.0001636242,2,1
-9.989401e-05,0.0002021958,2,1
-9.405965e-05,0.0002198609,2,1
-9.049421e-05,0.0002234263,2,1
-0.0001015147,0.0002187264,2,1
-0.0001308485,0.0002044647,2,1
-0.0001705545,0.0001793446,2,1
-0.000204102,0.0001480659,2,1
-0.0002206326,0.0001158149,2,1
-0.0002172293,9.393612e-05,2,1
-0.0001927574,9.020862e-05,2,1
-0.0001515928,0.0001033359,2,1
-0.0001045939,0.0001312112,2,1
-6.650855e-05,0.0001671896,2,1
-4.738484e-05,0.0002020337,2,1
-4.787104e-05,0.0002284504,2,1
-6.650855e-05,0.0002404432,2,1
-0.0001002181,0.0002376881,2,1
-0.0001451102,0.0002260194,2,1
-0.0001943781,0.0002080301,2,1
-0.0002352185,0.0001848548,2,1
-0.0002570974,0.0001584381,2,1
-0.0002593663,0.0001339663,2,1
-0.000256287,0.0001192183,2,1
-0.0002653627,0.0001128978,2,1
-0.0002942103,0.0001091703,2,1
-0.0003403989,0.0001031738,2,1
-0.0003958252,9.085688e-05,2,1
-0.0004322899,7.027458e-05,2,1
-0.0004134903,4.564065e-05,2,1
-0.0003168994,2.214118e-05,2,1
-0.0001515928,2.531276e-06,2,1
4.758544e-05,-1.659243e-05,2,1
0.0002328261,-3.766092e-05,2,1
0.0003710679,-5.937768e-05,2,1
0.0004563143,-7.769106e-05,2,1
0.0005016926,-8.384954e-05,2,1
0.0005263265,-7.509801e-05,2,1
0.0005345919,-5.548811e-05,2,1
0.000514982,-3.620233e-05,2,1
0.0004553419,-2.712668e-05,2,1
0.0003619922,-2.939559e-05,2,1
0.0002568118,-4.106429e-05,2,1
0.0001613553,-5.743289e-05,2,1
8.826383e-05,-6.942573e-05,2,1
3.915804e-05,-7.250496e-05,2,1
1.257933e-05,-6.504996e-05,2,1
6.096713e-06,-4.673658e-05,2,1
1.387585e-05,-2.129233e-05,2,1
2.943412e-05,3.341602e-06,2,1
4.790957e-05,1.59827e-05,2,1
6.573675e-05,1.64689e-05,2,1
8.502253e-05,1.160693e-05,2,1
0.0001141943,8.365628e-06,2,1
0.0001602208,1.290346e-05,2,1
0.000225047,2.81376e-05,2,1
0.0002986247,5.131294e-05,2,1
0.0003645853,7.935024e-05,2,1
0.0004120704,0.0001069013,2,1
0.0004388112,0.0001278078,2,1
0.0004401077,0.0001378558,2,1
0.0004112601,0.0001388282,2,1
0.0003605336,0.0001406109,2,1
0.0002978143,0.0001496866,2,1
0.0002393087,0.0001667035,2,1
0.0002081922,0.0001905271,2,1
0.0002216436,0.000215161,2,1
0.0002801492,0.0002373639,2,1
0.0003744712,0.0002532463,2,1
0.0004843516,0.0002626462,2,1
0.0005822391,0.0002657254,2,1
0.0006537099,0.0002618358,2,1
0.0006981159,0.0002503292,2,1
0.0007115673,0.0002313675,2,1
0.000681099,0.0002072198,2,1
0.000589532,0.0001851789,2,1
0.0004300596,0.000170593,2,1
0.0002229401,0.0001657311,2,1
9.338019e-06,0.0001647587,2,1
-0.000171851,0.0001571416,2,1
-0.0003024756,0.0001399627,2,1
-0.000390315,0.0001177597,2,1
-0.0004616237,9.523264e-05,2,1
-0.0005408737,7.6271e-05,2,1
-0.0006304958,6.071273e-05,2,1
-0.000715418,4.855783e-05,2,1
-0.0007698719,3.964424e-05,2,1
-0.0007787855,3.056858e-05,2,1
-0.0007471828,1.857574e-05,2,1
-0.0006901358,4.313994e-06,2,1
-0.0006244993,-1.351319e-05,2,1
-0.0005653456,-3.604027e-05,2,1
-0.0005220741,-6.180866e-05,2,1
-0.0004961436,-8.935975e-05,2,1
-0.0004804233,-0.0001133454,2,1
-0.0004700511,-0.0001303623,2,1
-0.0004580583,-0.0001417068,2,1
-0.0004416897,-0.0001538618,2,1
-0.0004198109,-0.0001757406,2,1
-0.0003946908,-0.0002100984,2,1
-0.0003715154,-0.0002502906,2,1
-0.000355633,-0.0002878898,2,1
-0.0003454229,-0.0003172236,2,1
-0.0003287302,-0.0003394265,2,1
-0.0002906449,-0.000355633,2,1
-0.0002217671,-0.0003650328,2,1
-0.0001298761,-0.0003692465,2,1
-3.441962e-05,-0.00036795,2,1
3.948217e-05,-0.0003624398,2,1
7.367795e-05,-0.0003557951,2,1
5.585077e-05,-0.0003494746,2,1
-1.140634e-05,-0.0003428299,2,1
-0.0001018388,-0.0003340784,2,1
-0.0001765509,-0.0003215994,2,1
-0.0002052365,-0.000305879,2,1
-0.0001935677,-0.0002877277,2,1
-0.0001700683,-0.0002702246,2,1
-0.0001592099,-0.0002566112,2,1
-0.0001710407,-0.0002478596,2,1
-0.000199078,-0.0002392702,2,1
-0.0002300324,-0.000224036,2,1
-0.000256287,-0.0002024813,2,1
-0.0002830278,-0.0001737958,2,1
-0.0003212752,-0.0001442999,2,1
-0.0003799429,-0.0001169109,2,1
-0.000459841,-9.19528e-05,2,1
-0.0005622663,-7.120844e-05,2,1
-0.0006893255,-5.775702e-05,2,1
-0.0008392359,-5.257093e-05,2,1
-0.0009982219,-5.419158e-05,2,1
-0.001139705,-5.727083e-05,2,1
-0.001230299,-5.743289e-05,2,1
-0.001214093,-5.127441e-05,2,1
-0.00102237,-3.717473e-05,2,1
-0.0006074825,-1.659243e-05,2,1
4.80019e-06,5.934648e-06,2,1
0.000693416,2.554455e-05,2,1
0.001284469,4.045456e-05,2,1
0.001648468,5.406805e-05,2,1
0.001741494,7.400208e-05,2,1
0.001614111,0.0001028497,2,1
0.00138657,0.0001375317,2,1
0.001186095,0.0001726999,2,1
0.001095987,0.0002083542,2,1
0.001123862,0.000244981,2,1
0.001213484,0.0002807975,2,1
0.001284955,0.0003130485,2,1
0.001279283,0.0003414099,2,1
0.001180909,0.0003644232,2,1
0.001013333,0.0003785229,2,1
0.0008277682,0.0003807918,2,1
0.000681099,0.0003744712,2,1
0.0006114109,0.0003628026,2,1
0.0006229175,0.0003496752,2,1
0.0006814231,0.0003358997,2,1
0.0007383081,0.000324393,2,1
0.0007577559,0.0003188828,2,1
0.0007250187,0.0003151553,2,1
0.0006449584,0.0003049452,2,1
0.0005383193,0.0002863077,2,1
0.0004324906,0.0002607014,2,1
0.0003435168,0.0002308813,2,1
0.0002752873,0.0001996027,2,1
0.0002256952,0.0001715654,2,1
0.0002000889,0.0001464453,2,1
0.0002154851,0.0001227837,2,1
0.0002762596,0.000101067,2,1
0.0003585888,8.080883e-05,2,1
0.0004198496,6.525056e-05,2,1
0.0004211461,5.763349e-05,2,1
0.0003418961,5.633696e-05,2,1
0.0001932822,5.455425e-05,2,1
7.555301e-06,4.499239e-05,2,1
-0.0001728234,2.327564e-05,2,1
-0.0003172236,-1.196227e-06,2,1
-0.0004178661,-2.210265e-05,2,1
-0.0004818819,-3.733679e-05,2,1
-0.0005225603,-4.85193e-05,2,1
-0.0005551354,-5.872941e-05,2,1
-0.0005946793,-6.974985e-05,2,1
-0.0006491333,-8.158062e-05,2,1
-0.0007125008,-9.730096e-05,2,1
-0.0007721409,-0.0001152902,2,1
-0.0008137916,-0.0001376552,2,1
-0.0008299981,-0.0001647201,2,1
-0.0008261086,-0.0001963229,2,1
-0.0008139537,-0.0002282497,2,1
-0.0008081193,-0.0002572594,2,1
-0.0008111986,-0.000276059,2,1
-0.0008120089,-0.0002789762,2,1
-0.0007909404,-0.0002666592,2,1
-0.0007366485,-0.0002423494,2,1
-0.0006564262,-0.0002130156,2,1
-0.0005697213,-0.0001896782,2,1
-0.0004898231,-0.000176875,2,1
-0.000424997,-0.0001736337,2,1
-0.0003788084,-0.0001759026,2,1
-0.0003613053,-0.0001762268,2,1
-0.0003779981,-0.0001708786,2,1
-0.0004198109,-0.0001548341,2,1
-0.0004634065,-0.0001256624,2,1
-0.0004838267,-8.82253e-05,2,1
-0.0004643789,-5.240886e-05,2,1
-0.0004147869,-2.404744e-05,2,1
-0.0003583881,-2.978945e-06,2,1
-0.0003151167,1.403791e-05,2,1
-0.000293562,3.008238e-05,2,1
-0.0002895104,4.337174e-05,2,1
-0.000293562,4.936815e-05,2,1
-0.0002998826,4.839576e-05,2,1
-0.0003027998,4.402e-05,2,1
-0.0002998826,4.434413e-05,2,1
-0.0002843243,5.747142e-05,2,1
-0.0002457528,8.534666e-05,2,1
-0.0001786577,0.0001190562,2,1
-9.405965e-05,0.0001443384,2,1
-1.124428e-05,0.0001517934,2,1
5.341979e-05,0.00013818,2,1
9.377406e-05,0.0001104668,2,1
0.0001088461,7.951231e-05,2,1
0.0001065772,5.536457e-05,2,1
9.977047e-05,4.661304e-05,2,1
9.426025e-05,6.152305e-05,2,1
9.442231e-05,9.782569e-05,2,1
0.0001114392,0.0001464453,2,1
0.0001564933,0.0001937684,2,1
0.0002278021,0.0002409294,2,1
0.0003174242,0.0002955454,2,1
0.000410936,0.0003650715,2,1
0.0004911583,0.00044578,2,1
0.0005363746,0.0005235714,2,1
0.0005378332,0.0005809425,2,1
0.0005007202,0.0006084936,2,1
0.0004396215,0.0006071971,2,1
0.0003736609,0.0005845079,2,1
0.0003237448,0.0005503122,2,1
0.0003052694,0.0005093097,2,1
0.0003229345,0.0004639314,2,1
0.0003597233,0.000413529,2,1
0.0003822504,0.0003605336,2,1
0.0003670162,0.0003078624,2,1
0.0003158036,0.0002553532,2,1
0.0002480603,0.00019782,2,1
0.0001921477,0.0001351007,2,1
0.0001654069,7.221937e-05,2,1
0.0001675138,1.355172e-05,2,1
0.0001845306,-4.446767e-05,2,1
0.0001919856,-0.0001086455,2,1
0.000170431,-0.0001875713,2,1
0.0001164632,-0.0002831898,2,1
4.02925e-05,-0.0003888564,2,1
-4.041603e-05,-0.000489499,2,1
-0.0001010285,-0.0005721523,2,1
-0.0001242038,-0.0006361681,2,1
-0.00010978,-0.0006886772,2,1
-7.299116e-05,-0.0007337314,2,1
-3.68506e-05,-0.0007698719,2,1
-1.691656e-05,-0.0007894818,2,1
-1.967167e-05,-0.0007757063,2,1
-3.425755e-05,-0.0007123387,2,1
-4.689865e-05,-0.0006021344,2,1
-4.80331e-05,-0.0004635685,2,1
-3.26369e-05,-0.0003241924,2,1
-5.479652e-07,-0.0002047502,2,1
4.807163e-05,-0.0001188556,2,1
0.0001124116,-6.748094e-05,2,1
0.0001770756,-4.576419e-05,2,1
0.0002188885,-4.689865e-05,2,1
0.0002169437,-6.650855e-05,2,1
0.0001714034,-9.811128e-05,2,1
0.0001052807,-0.000137007,2,1
4.790957e-05,-0.0001791439,2,1
2.084466e-05,-0.0002177155,2,1
3.429608e-05,-0.0002421874,2,1
8.323981e-05,-0.0002489941,2,1
0.0001483901,-0.0002391081,2,1
0.0002008992,-0.0002180396,2,1
0.0002224539,-0.0001903264,2,1
0.0002166196,-0.0001579134,2,1
0.0001944166,-0.0001178833,2,1
0.0001611932,-6.683268e-05,2,1
0.0001161391,-9.461558e-06,2,1
5.957827e-05,4.742337e-05,2,1
3.179537e-06,9.863601e-05,2,1
-2.84232e-05,0.0001402868,2,1
-8.813297e-06,0.0001673517,2,1
7.448828e-05,0.0001799928,2,1
0.0001989545,0.0001812893,2,1
0.0003232586,0.000175455,2,1
0.0004117463,0.0001673517,2,1
0.0004415663,0.000162976,2,1
0.000416122,0.000160707,2,1
0.0003593992,0.0001586002,2,1
0.0002997591,0.0001547106,2,1
0.000257298,0.0001474177,2,1
0.000239957,0.0001399627,2,1
0.0002419018,0.0001386662,2,1
0.0002475741,0.0001462832,2,1
0.0002420638,0.0001610312,2,1
0.000225047,0.0001777239,2,1
0.0002044647,0.0001919856,2,1
0.000185503,0.0001997648,2,1
0.0001689724,0.0001973338,2,1
0.0001595726,0.0001824238,2,1
0.0001529279,0.0001628139,2,1
0.0001344524,0.0001464453,2,1
9.426025e-05,0.0001409351,2,1
2.667901e-05,0.0001516314,2,1
-5.791909e-05,0.0001788584,2,1
-0.0001452723,0.0002198609,2,1
-0.0002162569,0.0002694529,2,1
-0.0002486699,0.0003156415,2,1
-0.0002332737,0.0003410858,2,1
-0.0001755785,0.0003363859,2,1
-9.098041e-05,0.0003034866,2,1
9.013889e-06,0.0002587566,2,1
0.0001161391,0.0002222919,2,1
0.0002242366,0.0002090025,2,1
0.0003221241,0.0002198609,2,1
0.0003825745,0.0002417397,2,1
0.0003791712,0.0002547049,2,1
0.0003089969,0.0002433604,2,1
0.0001957132,0.0002036544,2,1
7.513654e-05,0.0001490383,2,1
-2.194059e-05,9.879808e-05,2,1
-8.433573e-05,6.395404e-05,2,1
-0.0001237176,4.645098e-05,2,1
-0.0001626133,4.596478e-05,2,1
-0.0002183637,5.94162e-05,2,1
-0.0002899966,8.194328e-05,2,1
-0.0003541745,0.0001072255,2,1
-0.0003763774,0.0001336421,2,1
-0.0003373197,0.0001577899,2,1
-0.0002485079,0.0001739964,2,1
-0.0001506204,0.0001773998,2,1
-8.952183e-05,0.0001683241,2,1
-9.130454e-05,0.0001480659,2,1
-0.0001530514,0.0001188942,2,1
-0.0002583939,8.356394e-05,2,1
-0.0003846427,4.790957e-05,2,1
-0.0005087847,2.084466e-05,2,1
-0.0006133168,6.90704e-06,2,1
-0.0006927288,4.47606e-06,2,1
-0.0007457242,5.610517e-06,2,1
-0.0007718167,3.341602e-06,2,1
-0.0007739235,-6.382317e-06,2,1
-0.0007538275,-2.583016e-05,2,1
-0.000707963,-5.500191e-05,2,1
-0.0006316302,-9.017008e-05,2,1
-0.0005167259,-0.000127283,2,1
-0.0003660052,-0.0001588858,2,1
-0.0001908126,-0.0001825473,2,1
2.207145e-06,-0.0001976194,2,1
0.0002137024,-0.0001995642,2,1
0.0004363802,-0.0001908126,2,1
0.0006443101,-0.0001804405,2,1
0.0008010275,-0.0001794681,2,1
0.0008794671,-0.0001971332,2,1
0.0008630985,-0.0002272773,2,1
0.0007519216,-0.0002629317,2,1
0.0005648981,-0.0002930758,2,1
0.0003401134,-0.0003118754,2,1
0.0001206769,-0.0003199787,2,1
-6.245691e-05,-0.0003224097,2,1
-0.0001938919,-0.0003261372,2,1
-0.0002692523,-0.0003290543,2,1
-0.000301017,-0.0003237062,2,1
-0.0003126857,-0.0003071755,2,1
-0.0003240303,-0.0002838381,2,1
-0.0003473677,-0.0002574215,2,1
-0.0003862634,-0.0002308428,2,1
-0.0004316416,-0.0002071812,2,1
-0.0004690787,-0.0001882196,2,1
-0.0004860956,-0.0001728234,2,1
-0.000482044,-0.0001543479,2,1
-0.0004588687,-0.0001259865,2,1
-0.0004209454,-8.40116e-05,2,1
-0.0003750809,-3.328516e-05,2,1
-0.0003339163,1.436204e-05,2,1
-0.0003026377,5.487838e-05,2,1
-0.0002794623,8.972242e-05,2,1
-0.000246401,0.0001195424,2,1
-0.0001830335,0.0001436902,2,1
-7.979791e-05,0.0001628139,2,1
5.504044e-05,0.0001790204,2,1
0.0001989545,0.0001910133,2,1
0.0003303894,0.0002005751,2,1
0.000433301,0.0002057612,2,1
0.0004968306,0.0002060853,2,1
0.0005209784,0.0002039785,2,1
0.0005148199,0.0002021958,2,1
0.0004913204,0.0002025199,2,1
0.0004640934,0.000207706,2,1
0.0004376768,0.0002164575,2,1
0.0004075326,0.0002231022,2,1
0.0003619922,0.0002216436,2,1
0.0002966799,0.0002085163,2,1
0.0002192126,0.0001871237,2,1
0.0001501728,0.0001668655,2,1
0.0001167873,0.0001513072,2,1
0.0001351007,0.0001399627,2,1
0.0001889064,0.0001354248,2,1
0.0002336365,0.0001386662,2,1
0.0002261814,0.0001483901,2,1
0.0001551968,0.0001550348,2,1
4.45062e-05,0.0001513072,2,1
-6.586029e-05,0.0001376938,2,1
-0.0001454344,0.0001203528,2,1
-0.0001848162,0.0001043083,2,1
-0.0001914609,9.069481e-05,2,1
-0.0001757406,8.129502e-05,2,1
-0.0001483515,7.772959e-05,2,1
-0.0001191798,7.870197e-05,2,1
-9.551824e-05,8.032264e-05,2,1
-8.563225e-05,7.724339e-05,2,1
-9.730096e-05,6.78436e-05,2,1
-0.0001415448,5.309566e-05,2,1
-0.0002204706,3.429608e-05,2,1
-0.0003147926,1.160693e-05,2,1
-0.0003920977,-9.947754e-06,2,1
-0.0004277521,-2.42095e-05,2,1
-0.0004194868,-2.874733e-05,2,1
-0.0003846427,-2.939559e-05,2,1
-0.0003527159,-3.26369e-05,2,1
-0.0003423437,-3.847125e-05,2,1
-0.0003514194,-4.738484e-05,2,1
-0.000365357,-5.921561e-05,2,1
-0.0003736223,-7.266703e-05,2,1
-0.0003755671,-8.692878e-05,2,1
-0.0003732982,-0.0001024871,2,1
-0.0003593606,-0.0001219349,2,1
-0.000318358,-0.0001481895,2,1
-0.0002374874,-0.0001783336,2,1
-0.000122097,-0.0002055606,2,1
2.369211e-06,-0.0002250084,2,1
0.0001009049,-0.0002415391,2,1
0.0001542244,-0.0002614731,2,1
0.0001634622,-0.0002862691,2,1
0.0001425557,-0.0003091203,2,1
0.0001025256,-0.0003245165,2,1
5.374392e-05,-0.0003314853,2,1
7.23117e-06,-0.0003290543,2,1
-2.631635e-05,-0.000318196,2,1
-4.754691e-05,-0.0002985861,2,1
-6.083626e-05,-0.0002694143,2,1
-6.893953e-05,-0.0002337599,2,1
-7.056019e-05,-0.0001919471,2,1
-6.294311e-05,-0.0001488377,2,1
-4.446767e-05,-0.0001084835,2,1
-1.237873e-05,-7.396356e-05,2,1
3.802358e-05,-4.657452e-05,2,1
0.0001062531,-2.129233e-05,2,1
0.0001752929,2.693341e-06,2,1
0.0002339606,2.376183e-05,2,1
0.0002874421,3.996837e-05,2,1
0.0003559958,5.163707e-05,2,1
0.0004595556,6.249545e-05,2,1
0.0006037938,7.546067e-05,2,1
0.0007721797,9.344993e-05,2,1
0.0009280868,0.0001185701,2,1
0.001033267,0.0001485521,2,1
0.001068273,0.0001817755,2,1
0.001036833,0.0002167816,2,1
0.0009538552,0.0002490327,2,1
0.0008360335,0.0002760976,2,1
0.0006992503,0.0002937627,2,1
0.0005545259,0.0003049452,2,1
0.0004112601,0.0003072141,2,1
0.0002803113,0.0002981384,2,1
0.0001785342,0.0002741528,2,1
0.0001164632,0.0002409294,2,1
9.134307e-05,0.0002080301,2,1
9.555677e-05,0.000185503,2,1
0.0001161391,0.0001726999,2,1
0.000135749,0.0001644345,2,1
0.0001339663,0.0001543865,2,1
0.0001013911,0.0001436902,2,1
4.45062e-05,0.0001286181,2,1
-1.691656e-05,0.0001057669,2,1
-6.699475e-05,7.52986e-05,2,1
-9.470791e-05,4.337174e-05,2,1
-8.368748e-05,1.906194e-05,2,1
-1.399939e-05,7.393236e-06,2,1
0.0001104668,8.203562e-06,2,1
0.0002587566,1.760335e-05,2,1
0.0003850055,3.154097e-05,2,1
0.0004488593,4.612685e-05,2,1
0.0004326527,6.022653e-05,2,1
0.0003396272,7.30297e-05,2,1
0.000192796,8.145709e-05,2,1
2.035846e-05,8.194328e-05,2,1
-0.000144624,7.448828e-05,2,1
-0.0002694143,6.152305e-05,2,1
-0.0003340784,4.807163e-05,2,1
-0.0003462333,4.175109e-05,2,1
-0.0003366714,4.515445e-05,2,1
-0.0003403989,5.212327e-05,2,1
-0.0003773498,5.050261e-05,2,1
-0.0004493068,3.624086e-05,2,1
-0.000544115,9.013889e-06,2,1
-0.0006366542,-2.437157e-05,2,1
-0.0006987253,-5.953974e-05,2,1
-0.0007003459,-9.308726e-05,2,1
-0.0006270924,-0.0001240417,2,1
-0.000489661,-0.0001507825,2,1
-0.0003191683,-0.0001747682,2,1
-0.0001436516,-0.0001943781,2,1
1.419998e-05,-0.0002063709,2,1
0.0001378558,-0.000209126,2,1
0.0002149989,-0.000199078,2,1
0.0002402811,-0.0001794681,2,1
0.0002143507,-0.0001574272,2,1
0.0001344524,-0.0001397621,2,1
4.638125e-06,-0.0001306864,2,1
-0.0001540238,-0.0001314967,2,1
-0.0003068514,-0.0001402483,2,1
-0.0004280762,-0.0001515928,2,1
-0.0005076503,-0.000159534,2,1
-0.0005494631,-0.0001613168,2,1
-0.0005648594,-0.000156941,2,1
-0.0005687489,-0.0001475412,2,1
-0.0005758798,-0.0001355484,2,1
-0.0005894933,-0.0001235555,2,1
-0.0006053757,-0.0001144799,2,1
-0.0006189891,-0.0001112386,2,1
-0.0006220684,-0.0001144799,2,1
-0.0006003517,-0.0001157764,2,1
-0.0005407116,-0.0001091317,2,1
-0.0004460655,-9.616651e-05,2,1
-0.000328244,-8.579432e-05,2,1
-0.0002047502,-8.206682e-05,2,1
-8.790117e-05,-8.271508e-05,2,1
1.501031e-05,-8.174268e-05,2,1
0.0001049566,-6.861539e-05,2,1
0.000187934,-4.122636e-05,2,1
0.0002717218,1.002961e-07,2,1
0.0003637749,5.244739e-05,2,1
0.0004700898,0.0001141943,2,1
0.0005984457,0.0001812893,2,1
0.0007527319,0.000244981,2,1
0.0009220903,0.0002983005,2,1
0.001080104,0.0003346032,2,1
0.001190471,0.00035162,2,1
0.00122337,0.0003527545,2,1
0.001169078,0.0003407616,2,1
0.001034078,0.0003237448,2,1
0.0008399231,0.0003073762,2,1
0.0006159487,0.0002927903,2,1
0.0003942432,0.0002793389,2,1
0.0002033302,0.0002670219,2,1
5.925414e-05,0.0002576221,2,1
-3.539201e-05,0.0002579462,2,1
-8.320128e-05,0.0002696149,2,1
-8.530812e-05,0.0002879283,2,1
-3.68506e-05,0.0003117519,2,1
5.925414e-05,0.000339303,2,1
0.0001850168,0.0003657197,2,1
0.0003008936,0.0003867882,2,1
0.0003678266,0.0003955397,2,1
0.0003581026,0.0003843572,2,1
0.0002624841,0.0003485408,2,1
9.944634e-05,0.0002864697,2,1
-8.903562e-05,0.0002065715,2,1
-0.0002593663,0.0001193804,2,1
-0.0003948528,3.526847e-05,2,1
-0.0004979264,-4.673658e-05,2,1
-0.0005817142,-0.0001255003,2,1
-0.0006501057,-0.0001937298,2,1
-0.0006932151,-0.0002459149,2,1
-0.0006941874,-0.0002723315,2,1
-0.0006510781,-0.0002703867,2,1
-0.0005786349,-0.0002426735,2,1
-0.0004946851,-0.0001945401,2,1
-0.0004155972,-0.0001374932,2,1
-0.0003408851,-8.271508e-05,2,1
-0.0002546664,-3.847125e-05,2,1
-0.0001392759,-1.448558e-05,2,1
1.558884e-06,-1.837515e-05,2,1
0.000133318,-4.689865e-05,2,1
0.0002088404,-8.482193e-05,2,1
0.000205275,-0.0001099421,2,1
0.0001295905,-0.0001128592,2,1
1.695509e-05,-0.000104918,2,1
-8.530812e-05,-0.0001058904,2,1
-0.0001349001,-0.0001326312,2,1
-0.0001114006,-0.0001823853,2,1
-2.307504e-05,-0.0002429977,2,1
9.361199e-05,-0.000301017,2,1
0.0001906891,-0.0003510952,2,1
0.0002336365,-0.0003955011,2,1
0.0002159713,-0.0004358554,2,1
0.0001663793,-0.0004684305,2,1
0.0001378558,-0.0004869059,2,1
0.0001762653,-0.0004878783,2,1
0.0002853353,-0.0004760476,2,1
0.0004240633,-0.000452224,2,1
0.0005401021,-0.0004183523,2,1
0.0005811046,-0.0003752429,2,1
0.0005190336,-0.0003275957,2,1
0.0003645853,-0.0002822175,2,1
0.000155683,-0.0002384598,2,1
-5.629844e-05,-0.0001911368,2,1
-0.0002305186,-0.0001415448,2,1
-0.0003438023,-9.875954e-05,2,1
-0.0003885323,-7.18567e-05,2,1
-0.0003651949,-5.808115e-05,2,1
-0.0002807589,-5.095028e-05,2,1
-0.0001528894,-4.511593e-05,2,1
-8.813297e-06,-4.009191e-05,2,1
0.0001221355,-3.911951e-05,2,1
0.000215161,-3.587821e-05,2,1
0.0002456293,-2.177852e-05,2,1
0.0002034923,5.934648e-06,2,1
0.0001078737,4.418206e-05,2,1
-6.544382e-06,8.534666e-05,2,1
-0.0001032974,0.0001226217,2,1
-0.0001606685,0.0001611932,2,1
-0.000171851,0.000202844,2,1
-0.000137169,0.0002485465,2,1
-6.132246e-05,0.0002983005,2,1
4.094075e-05,0.0003512959,2,1
0.0001445005,0.0004018603,2,1
0.0002203471,0.0004461041,2,1
0.0002464396,0.0004885653,2,1
0.000215161,0.000532485,2,1
0.0001338042,0.0005723531,2,1
2.197911e-05,0.000599256,2,1
-9.438378e-05,0.0006073592,2,1
-0.0001989159,0.0005940699,2,1
-0.000293562,0.0005537156,2,1
-0.0003848048,0.0004888894,2,1
-0.0004710235,0.0004068843,2,1
-0.0005402254,0.0003196932,2,1
-0.0005677765,0.0002383363,2,1
-0.0005311498,0.0001684862,2,1
-0.0004266177,0.0001117633,2,1
-0.0002791382,7.043665e-05,2,1
-0.000132145,4.158902e-05,2,1
-2.161646e-05,2.100672e-05,2,1
4.158902e-05,4.638125e-06,2,1
7.027458e-05,-6.544382e-06,2,1
7.983644e-05,-1.335113e-05,2,1
8.226741e-05,-1.740276e-05,2,1
7.319176e-05,-1.318906e-05,2,1
4.288554e-05,2.531276e-06,2,1
-2.388537e-05,2.441009e-05,2,1
-0.00012469,4.434413e-05,2,1
-0.0002347323,5.504044e-05,2,1
-0.0003193304,5.017848e-05,2,1
-0.0003587123,3.445814e-05,2,1
-0.0003546606,1.825161e-05,2,1
-0.0003220855,7.879432e-06,2,1
-0.0002673075,9.500085e-06,2,1
-0.0001763888,2.457216e-05,2,1
-4.868137e-05,4.72613e-05,2,1
8.372601e-05,6.849186e-05,2,1
0.0001688103,7.724339e-05,2,1
0.0001782101,6.800567e-05,2,1
0.0001252147,4.013043e-05,2,1
5.244739e-05,7.485573e-07,2,1
-4.923729e-06,-4.122636e-05,2,1
-4.122636e-05,-7.898758e-05,2,1
-7.169464e-05,-0.00010978,2,1
-0.0001141558,-0.0001331174,2,1
-0.0001666649,-0.0001507825,2,1
-0.0002126914,-0.0001627754,2,1
-0.000228898,-0.0001684476,2,1
-0.0002071812,-0.0001676373,2,1
-0.0001661787,-0.0001611547,2,1
-0.0001374932,-0.0001498101,2,1
-0.0001439758,-0.000134576,2,1
-0.0001854645,-0.0001170729,2,1
-0.0002475355,-0.0001011905,2,1
-0.0003016653,-9.114248e-05,2,1
-0.0003211132,-9.227693e-05,2,1
-0.0002890242,-0.0001003802,2,1
-0.0002146363,-0.0001070249,2,1
-0.0001300382,-0.000104918,2,1
-6.829127e-05,-9.422172e-05,2,1
-4.868137e-05,-8.352541e-05,2,1
-6.893953e-05,-8.012204e-05,2,1
-0.0001109144,-8.82253e-05,2,1
-0.0001528894,-0.0001034594,2,1
-0.0001830335,-0.0001201522,2,1
-0.0001959987,-0.0001313347,2,1
-0.0001861127,-0.0001282554,2,1
-0.0001532135,-0.0001070249,2,1
-0.0001010285,-7.056019e-05,2,1
-3.63644e-05,-2.680255e-05,2,1
2.829966e-05,1.727922e-05,2,1
8.42122e-05,5.56887e-05,2,1
0.0001269974,8.129502e-05,2,1
0.0001529279,9.16672e-05,2,1
0.0001673517,8.810177e-05,2,1
0.0001838824,7.90261e-05,2,1
0.0002166196,7.416415e-05,2,1
0.0002760976,7.448828e-05,2,1
0.0003571303,7.57848e-05,2,1
0.0004451317,7.367795e-05,2,1
0.0005242196,6.589881e-05,2,1
0.0005908285,4.953022e-05,2,1
0.0006600305,2.943412e-05,2,1
0.0007587284,1.533444e-05,2,1
0.0009086389,1.484824e-05,2,1
0.001103928,3.13789e-05,2,1
0.0013057,6.427817e-05,2,1
0.001463065,0.0001069013,2,1
0.001527405,0.000153252,2,1
0.001477489,0.0001979821,2,1
0.001322068,0.0002367157,2,1
0.001087559,0.0002629703,2,1
0.0008159374,0.0002738286,2,1
0.0005566327,0.0002705873,2,1
0.0003585888,0.0002584324,2,1
0.0002459534,0.0002431983,2,1
0.0002075439,0.0002320158,2,1
0.0002187264,0.0002273159,2,1
0.0002430362,0.000225209,2,1
0.0002493568,0.0002243987,2,1
0.0002138645,0.0002255332,2,1
0.000135911,0.0002331503,2,1
3.316162e-05,0.0002440086,2,1
-6.715681e-05,0.0002488706,2,1
-0.0001361966,0.0002409294,2,1
-0.0001588858,0.0002184023,2,1
-0.0001266348,0.0001880961,2,1
-4.916756e-05,0.0001594105,2,1
3.591673e-05,0.0001362352,2,1
7.756752e-05,0.0001153287,2,1
4.077869e-05,8.956036e-05,2,1
-8.174268e-05,5.909208e-05,2,1
-0.0002632558,2.603075e-05,2,1
-0.0004517378,-6.382317e-06,2,1
-0.0005961379,-3.68506e-05,2,1
-0.000668257,-6.261898e-05,2,1
-0.0006731189,-8.320128e-05,2,1
-0.0006363301,-9.956988e-05,2,1
-0.0005881967,-0.0001149661,2,1
-0.0005527044,-0.0001318209,2,1
-0.0005353634,-0.0001489998,2,1
-0.0005280706,-0.0001658546,2,1
-0.0005173742,-0.0001804405,2,1
-0.0004891749,-0.0001935677,2,1
-0.0004322899,-0.0002117191,2,1
-0.0003559572,-0.000238784,2,1
-0.0002870794,-0.0002715212,2,1
-0.0002502906,-0.0003068514,2,1
-0.0002621213,-0.0003436402,2,1
-0.0003240303,-0.0003861013,2,1
-0.0004196489,-0.0004386105,2,1
-0.0005199672,-0.000501978,2,1
-0.0005909518,-0.0005724764,2,1
-0.0006024585,-0.0006420024,2,1
-0.0005386047,-0.0007001839,2,1
-0.0004113835,-0.0007400519,2,1
-0.0002593663,-0.0007543136,2,1
-0.0001332795,-0.0007407002,2,1
-7.60704e-05,-0.0007029389,2,1
-0.0001125351,-0.0006505919,2,1
-0.000238784,-0.0005917621,2,1
-0.0004164075,-0.0005309877,2,1
-0.0005831727,-0.0004724821,2,1
-0.0006808981,-0.0004196489,2,1
-0.0006791154,-0.0003752429,2,1
-0.0005791211,-0.0003386162,2,1
-0.0004105732,-0.0003047445,2,1
-0.0002159328,-0.0002695764,2,1
-3.053005e-05,-0.0002306807,2,1
0.000123432,-0.0001859507,2,1
0.0002279642,-0.0001323071,2,1
0.0002759355,-6.942573e-05,2,1
0.0002835526,-4.761664e-06,2,1
0.0002765838,5.601284e-05,2,1
0.0002752873,0.0001094944,2,1
0.000287118,0.0001584381,2,1
0.0003190449,0.0002041406,2,1
0.0003699334,0.0002454672,2,1
0.0004328148,0.0002798251,2,1
0.0004955341,0.0003088348,2,1
0.0005420469,0.0003347652,2,1
0.0005614947,0.0003535648,2,1
0.0005530673,0.0003589129,2,1
0.0005242196,0.0003485408,2,1
0.0004849998,0.0003287688,2,1
0.0004391353,0.0003132105,2,1
0.0003804677,0.0003099692,2,1
0.0003013798,0.0003179104,2,1
0.0002067336,0.0003240689,2,1
0.0001197045,0.0003180725,2,1
7.30297e-05,0.0002966799,2,1
8.46984e-05,0.0002699391,2,1
0.0001501728,0.0002517878,2,1
0.0002485465,0.0002551911,2,1
0.0003593992,0.0002837146,2,1
0.0004634451,0.0003308757,2,1
0.0005443158,0.0003840331,2,1
0.0005864528,0.0004290873,2,1
0.0005799701,0.0004574487,2,1
0.0005208163,0.0004670106,2,1
0.0004175806,0.0004571246,2,1
0.0002906835,0.0004334631,2,1
0.0001623277,0.0004023465,2,1
5.228533e-05,0.000373985,2,1
-3.036798e-05,0.0003542131,2,1
-9.211487e-05,0.000341572,2,1
-0.0001532135,0.0003321722,2,1
-0.0002284118,0.0003203414,2,1
-0.0003168994,0.0003025142,2,1
-0.0003980942,0.0002785285,2,1
-0.0004502792,0.000252274,2,1
-0.0004634065,0.0002310434,2,1
-0.0004468758,0.0002208333,2,1
-0.0004159214,0.0002198609,2,1
-0.0003843186,0.0002248849,2,1
-0.0003600088,0.0002290986,2,1
-0.0003525538,0.0002278021,2,1
-0.000360495,0.0002219677,2,1
-0.0003757291,0.0002182402,2,1
-0.0003823738,0.000220185,2,1
-0.0003770257,0.0002282883,2,1
-0.0003656811,0.000234933,2,1
-0.0003587123,0.0002360674,2,1
-0.0003651949,0.0002299089,2,1
-0.0003896668,0.0002167816,2,1
-0.0004271038,0.0001996027,2,1
-0.0004700511,0.0001842065,2,1
-0.000509595,0.0001743205,2,1
-0.0005450874,0.0001757791,2,1
-0.0005752315,0.0001890685,2,1
-0.0005945173,0.0002023578,2,1
-0.0005916001,0.0001986303,2,1
-0.0005470322,0.0001715654,2,1
-0.0004452552,0.0001242423,2,1
-0.0002852967,6.298164e-05,2,1
-6.423963e-05,-8.651231e-06,2,1
0.0002167816,-8.482193e-05,2,1
0.00053994,-0.0001603444,2,1
0.0008598572,-0.0002324634,2,1
0.001099552,-0.0002932379,2,1
0.001192902,-0.0003348887,2,1
0.001120134,-0.0003551469,2,1
0.000918687,-0.0003634122,2,1
0.0006610029,-0.0003713534,2,1
0.0004256839,-0.0003843186,2,1
0.0002666978,-0.0004016596,2,1
0.0001957132,-0.0004185144,2,1
0.0001825859,-0.0004327761,2,1
0.000178048,-0.0004459034,2,1
0.0001415833,-0.000459841,2,1
5.763349e-05,-0.0004799371,2,1
-6.326724e-05,-0.0005055434,2,1
-0.0001904885,-0.0005316359,2,1
-0.0002919414,-0.0005488148,2,1
-0.0003468815,-0.0005463839,2,1
-0.0003553089,-0.0005240189,2,1
-0.0003305129,-0.0004873921,2,1
-0.0002877277,-0.0004415277,2,1
-0.0002400805,-0.0003825359,2,1
-0.0001921092,-0.0003081479,2,1
-0.000144462,-0.0002212809,2,1
-9.794922e-05,-0.0001292278,2,1
-5.240886e-05,-4.187462e-05,2,1
-8.813297e-06,3.299956e-05,2,1
2.975825e-05,8.79397e-05,2,1
5.52025e-05,0.0001153287,2,1
5.94162e-05,0.0001187321,2,1
4.434413e-05,0.0001017153,2,1
2.197911e-05,6.995045e-05,2,1
1.841368e-05,3.445814e-05,2,1
7.221937e-05,3.341602e-06,2,1
0.0002020337,-1.610624e-05,2,1
0.0003872744,-2.113026e-05,2,1
0.0005953664,-1.092015e-05,2,1
0.0007947069,1.338965e-05,2,1
0.0009616343,4.839576e-05,2,1
0.001086587,8.210535e-05,2,1
0.001169078,0.0001007429,2,1
0.00121397,9.750156e-05,2,1
0.001217536,7.67572e-05,2,1
0.001165513,4.628891e-05,2,1
0.001043477,1.031041e-05,2,1
0.0008515919,-2.680255e-05,2,1
0.000606873,-5.905355e-05,2,1
0.0003362238,-7.477388e-05,2,1
6.589881e-05,-6.521203e-05,2,1
-0.0001861127,-3.231277e-05,2,1
-0.000400201,1.322759e-05,2,1
-0.0005583767,5.747142e-05,2,1
-0.0006465403,8.696731e-05,2,1
-0.0006666363,9.652917e-05,2,1
-0.0006398956,8.79397e-05,2,1
-0.0005950035,6.281957e-05,2,1
-0.0005536768,2.538249e-05,2,1
-0.0005321222,-1.594417e-05,2,1
-0.0005363359,-4.608832e-05,2,1
-0.0005637249,-5.338126e-05,2,1
-0.0006089411,-3.134038e-05,2,1
-0.0006609641,1.452411e-05,2,1
-0.0007069906,7.108491e-05,2,1
-0.0007385933,0.0001239182,2,1
-0.000750424,0.0001642725,2,1
-0.0007407002,0.0001846927,2,1
-0.0007136352,0.0001842065,2,1
-0.0006800878,0.0001686482,2,1
-0.0006489712,0.0001466074,2,1
-0.0006230408,0.0001252147,2,1
-0.0005959758,0.0001099806,2,1
-0.0005617801,0.0001004187,2,1
-0.0005214258,9.669123e-05,2,1
-0.0004843129,9.588091e-05,2,1
-0.0004603272,9.458438e-05,2,1
-0.0004480103,9.118101e-05,2,1
-0.0004394208,8.437427e-05,2,1
-0.0004214316,7.610894e-05,2,1
-0.0003917736,6.492643e-05,2,1
-0.0003519055,5.066468e-05,2,1
-0.0003040963,3.656499e-05,2,1
-0.0002520733,2.39239e-05,2,1
-0.0002042641,1.079661e-05,2,1
-0.0001642339,-5.247859e-06,2,1
-0.0001266348,-2.534396e-05,2,1
-8.676672e-05,-4.527799e-05,2,1
-3.879538e-05,-5.791909e-05,2,1
1.938607e-05,-5.791909e-05,2,1
9.134307e-05,-4.041603e-05,2,1
0.0001897167,-9.461558e-06,2,1
0.0003315239,2.732727e-05,2,1
0.0005394538,6.168512e-05,2,1
0.0008185305,8.826383e-05,2,1
0.00113861,0.0001090082,2,1
0.001443131,0.000125863,2,1
0.001671158,0.0001386662,2,1
0.001769369,0.0001479039,2,1
0.001709891,0.0001542244,2,1
0.001503095,0.0001574657,2,1
0.001194847,0.0001576278,2,1
0.0008499712,0.0001584381,2,1
0.0005282713,0.0001662173,2,1
0.0002679943,0.0001803169,2,1
8.583286e-05,0.0001960373,2,1
-1.934754e-05,0.0002081922,2,1
-6.683268e-05,0.0002162954,2,1
-8.222889e-05,0.0002203471,2,1
-8.368748e-05,0.0002234263,2,1
-8.109443e-05,0.0002227781,2,1
-8.093236e-05,0.0002133783,2,1
-8.838737e-05,0.0001923098,2,1
-0.0001063766,0.0001611932,2,1
-0.0001386276,0.0001316974,2,1
-0.0001833576,0.0001150046,2,1
-0.0002418632,0.0001166253,2,1
-0.0003120375,0.0001316974,2,1
-0.0003818876,0.0001590864,2,1
-0.000430021,0.0001936063,2,1
-0.0004358554,0.0002299089,2,1
-0.0003865875,0.000262322,2,1
-0.0002797865,0.0002835526,2,1
-0.000122259,0.0002898731,2,1
6.152305e-05,0.0002827423,2,1
0.0002307193,0.0002662116,2,1
0.0003509718,0.0002464396,2,1
0.0004104497,0.0002269918,2,1
0.0004256839,0.0002068957,2,1
0.0004180668,0.0001863134,2,1
0.0003994293,0.0001701068,2,1
0.0003660439,0.000165569,2,1
0.0003081865,0.0001741585,2,1
0.0002184023,0.0001872858,2,1
9.798775e-05,0.0001906891,2,1
-3.798505e-05,0.0001767515,2,1
-0.0001635857,0.0001435281,2,1
-0.0002583939,8.956036e-05,2,1
-0.0003168994,2.003433e-05,2,1
-0.0003473677,-5.808115e-05,2,1
-0.0003643846,-0.0001396,2,1
-0.0003822118,-0.0002183637,2,1
-0.0003984183,-0.0002851347,2,1
-0.0003974459,-0.0003363473,2,1
-0.0003647087,-0.0003762153,2,1
-0.0002982619,-0.0004159214,2,1
-0.0002084778,-0.0004659995,2,1
-0.0001201522,-0.0005311498,2,1
-6.553616e-05,-0.0006019723,2,1
-6.407757e-05,-0.0006627468,2,1
-0.0001114006,-0.0007008321,2,1
-0.0001822232,-0.000715418,2,1
-0.0002514251,-0.0007086112,2,1
-0.0003042584,-0.0006843015,2,1
-0.0003425058,-0.000645892,2,1
-0.0003711913,-0.0005982448,2,1
-0.0003959873,-0.0005434667,2,1
-0.000415111,-0.0004828543,2,1
-0.0004264556,-0.0004185144,2,1
-0.0004295348,-0.0003517435,2,1
-0.0004198109,-0.000285945,2,1
-0.000395177,-0.0002301945,2,1
-0.0003593606,-0.0001895161,2,1
-0.0003198166,-0.0001637477,2,1
-0.0002820554,-0.0001468929,2,1
-0.0002506147,-0.0001292278,2,1
-0.0002266291,-0.0001060525,2,1
-0.0002120432,-7.898758e-05,2,1
-0.0002079916,-5.192267e-05,2,1
-0.0002151224,-3.004385e-05,2,1
-0.0002269532,-1.20546e-05,2,1
-0.0002266291,3.017472e-06,2,1
-0.0001958367,1.452411e-05,2,1
-0.0001282554,2.927205e-05,2,1
-2.858527e-05,4.855783e-05,2,1
9.344993e-05,7.286763e-05,2,1
0.0002193747,0.0001030118,2,1
0.0003222862,0.0001376938,2,1
0.0003803056,0.0001725378,2,1
0.0003900295,0.0002039785,2,1
0.0003602095,0.0002286124,2,1
0.0003052694,0.0002409294,2,1
0.0002428742,0.0002420638,2,1
0.0001871237,0.000234933,2,1
0.0001487142,0.0002221298,2,1
0.0001289422,0.0002060853,2,1
0.000118408,0.0001861513,2,1
0.0001140322,0.0001645966,2,1
0.0001227837,0.0001410971,2,1
0.0001537382,0.0001175977,2,1
0.0002023578,9.977047e-05,2,1
0.000250005,9.037068e-05,2,1
0.0002757735,8.826383e-05,2,1
0.0002696149,9.020862e-05,2,1
0.0002347709,9.21534e-05,2,1
0.0001824238,9.377406e-05,2,1
0.0001302388,9.798775e-05,2,1
9.21534e-05,0.0001101427,2,1
7.238143e-05,0.0001328318,2,1
