EMG1,EMG2,class,user
-0.0002175534,0.0001971717,2,1
-0.000201671,0.0001874478,2,1
-0.0001822232,0.0001809652,2,1
-0.0001783336,0.0001817755,2,1
-0.0002021572,0.0001867996,2,1
-0.0002475355,0.0001906891,2,1
-0.000290969,0.0001923098,2,1
-0.0003096065,0.0001940925,2,1
-0.0002990722,0.0001949028,2,1
-0.0002720074,0.000192796,2,1
-0.0002494803,0.00018291,2,1
-0.0002428356,0.000162976,2,1
-0.0002532078,0.0001351007,2,1
-0.0002741142,0.0001004187,2,1
-0.0003023136,5.61749e-05,2,1
-0.000335537,-3.858999e-07,2,1
-0.0003668155,-6.504996e-05,2,1
-0.0003917736,-0.0001318209,2,1
-0.0004005251,-0.0001906506,2,1
-0.0003831841,-0.000233922,2,1
-0.0003334301,-0.0002548284,2,1
-0.0002523975,-0.0002509389,2,1
-0.0001430034,-0.0002271153,2,1
-9.137427e-06,-0.0002005366,2,1
0.0001470936,-0.0001838438,2,1
0.0003188828,-0.0001794681,2,1
0.0004950479,-0.0001797922,2,1
0.0006574374,-0.0001752544,2,1
0.000784983,-0.000159372,2,1
0.000864395,-0.0001340898,2,1
0.0009018321,-0.0001058904,2,1
0.0009177146,-7.914964e-05,2,1
0.0009331108,-5.921561e-05,2,1
0.0009545035,-4.608832e-05,2,1
0.0009661721,-4.171256e-05,2,1
0.0009481829,-4.252288e-05,2,1
0.0008919462,-4.268495e-05,2,1
0.0008002172,-3.928157e-05,2,1
0.0006870955,-3.393342e-05,2,1
0.000577053,-3.020592e-05,2,1
0.0004961824,-3.117831e-05,2,1
0.0004512903,-3.749886e-05,2,1
0.0004227667,-5.013995e-05,2,1
0.0003845193,-6.683268e-05,2,1
0.0003218,-8.417367e-05,2,1
0.000237526,-9.827335e-05,2,1
0.0001440143,-0.0001057284,2,1
5.325772e-05,-0.000102325,2,1
-2.534396e-05,-8.660465e-05,2,1
-9.081835e-05,-6.002594e-05,2,1
-0.0001549962,-2.615429e-05,2,1
-0.0002276015,5.610517e-06,2,1
-0.0003068514,2.910999e-05,2,1
-0.0003831841,4.223728e-05,2,1
-0.0004496309,4.758544e-05,2,1
-0.0005005194,4.871989e-05,2,1
-0.0005314739,4.807163e-05,2,1
-0.0005405495,4.320967e-05,2,1
-0.0005347152,3.348575e-05,2,1
-0.0005176983,1.825161e-05,2,1
-0.0004964678,-1.196227e-06,2,1
-0.0004669719,-2.323711e-05,2,1
-0.0004138145,-4.203669e-05,2,1
-0.0003204649,-5.662256e-05,2,1
-0.0001922712,-6.602235e-05,2,1
-5.613637e-05,-6.942573e-05,2,1
5.228533e-05,-6.602235e-05,2,1
0.0001033359,-5.613637e-05,2,1
8.664318e-05,-3.895745e-05,2,1
1.209313e-05,-1.383732e-05,2,1
-8.903562e-05,2.473423e-05,2,1
-0.0001856265,7.416415e-05,2,1
-0.0002596904,0.0001297526,2,1
-0.0003071755,0.0001838824,2,1
-0.0003327818,0.0002295848,2,1
-0.0003434782,0.0002600531,2,1
-0.0003454229,0.00027707,2,1
-0.0003463953,0.0002866318,2,1
-0.0003514194,0.0002940868,2,1
-0.0003632501,0.0003030004,2,1
-0.0003786463,0.0003117519,2,1
-0.0003938804,0.0003187208,2,1
-0.0004013355,0.0003218,2,1
-0.0003984183,0.0003214759,2,1
-0.0003809152,0.0003206656,2,1
-0.0003426678,0.0003206656,2,1
-0.000276059,0.0003198552,2,1
-0.0001750923,0.0003177483,2,1
-3.830919e-05,0.0003151553,2,1
0.0001354248,0.0003107795,2,1
0.0003405996,0.0003059176,2,1
0.0005488536,0.0003005694,2,1
0.0007115673,0.0002874421,2,1
0.0007911414,0.0002607014,2,1
0.000777528,0.0002172679,2,1
0.0006802886,0.0001615174,2,1
0.0005230852,9.879808e-05,2,1
0.0003375204,3.60788e-05,2,1
0.0001548727,-1.99958e-05,2,1
-3.951337e-06,-6.829127e-05,2,1
-0.0001276072,-0.0001143178,2,1
-0.0002188499,-0.0001635857,2,1
-0.0002833519,-0.0002147983,2,1
-0.000328244,-0.0002598524,2,1
-0.0003642225,-0.0002929138,2,1
-0.0004014975,-0.0003139823,2,1
-0.0004413656,-0.0003241924,2,1
-0.0004739407,-0.0003266234,2,1
-0.0004859335,-0.0003219235,2,1
-0.0004681064,-0.0003128478,2,1
-0.0004202971,-0.0003029619,2,1
-0.0003486642,-0.000293562,2,1
-0.000278652,-0.0002804347,2,1
-0.0002357047,-0.0002616352,2,1
-0.0002277635,-0.0002397564,2,1
-0.0002433218,-0.0002180396,2,1
-0.000261311,-0.0001998883,2,1
-0.0002609869,-0.000184168,2,1
-0.0002334358,-0.0001713648,2,1
-0.0001851404,-0.0001618029,2,1
-0.0001357104,-0.0001533756,2,1
-0.0001071869,-0.0001455964,2,1
-0.0001084835,-0.0001365208,2,1
-0.0001339277,-0.0001256624,2,1
-0.0001679614,-0.0001156143,2,1
-0.0001938919,-0.0001141558,2,1
-0.0001964849,-0.0001224211,2,1
-0.0001665028,-0.0001349001,2,1
-0.0001032974,-0.000137169,2,1
-2.015787e-05,-0.0001178833,2,1
6.346784e-05,-7.720486e-05,2,1
0.0001294284,-2.437157e-05,2,1
0.0001637863,2.716521e-05,2,1
0.0001624898,7.546067e-05,2,1
0.0001338042,0.0001265113,2,1
9.474644e-05,0.0001874478,2,1
5.925414e-05,0.000254867,2,1
3.575467e-05,0.0003172622,2,1
2.586868e-05,0.0003642611,2,1
2.975825e-05,0.0003916502,2,1
4.953022e-05,0.000393757,2,1
8.729144e-05,0.0003726885,2,1
0.0001372076,0.0003336308,2,1
0.0001867996,0.0002833905,2,1
0.0002269918,0.0002284504,2,1
0.0002556773,0.0001769136,2,1
0.0002743149,0.0001312112,2,1
0.0002833905,9.26396e-05,2,1
0.0002825802,5.99024e-05,2,1
0.0002704253,3.397195e-05,2,1
0.0002516257,1.403791e-05,2,1
0.0002397949,-2.006553e-06,2,1
0.0002503292,-1.464765e-05,2,1
0.0002835526,-2.113026e-05,2,1
0.0003230965,-1.610624e-05,2,1
0.0003501615,4.47606e-06,2,1
0.000356644,3.688912e-05,2,1
0.0003399513,7.789165e-05,2,1
0.0002973281,0.0001216493,2,1
0.0002428742,0.0001543865,2,1
0.0001974959,0.0001623277,2,1
0.0001773998,0.0001409351,2,1
0.0001851789,9.63671e-05,2,1
0.0001997648,4.094075e-05,2,1
0.0001987924,-1.724069e-05,2,1
0.0001670276,-7.963584e-05,2,1
0.0001078737,-0.0001486757,2,1
3.170304e-05,-0.0002245222,2,1
-4.85193e-05,-0.000298424,2,1
-0.0001243659,-0.0003540124,2,1
-0.0001900023,-0.0003804291,2,1
-0.0002348944,-0.0003805911,2,1
-0.0002532078,-0.0003684362,2,1
-0.0002431597,-0.0003538503,2,1
-0.0002079916,-0.0003392644,2,1
-0.000152079,-0.0003228959,2,1
-8.44978e-05,-0.0002963172,2,1
-2.129233e-05,-0.0002575835,2,1
2.748934e-05,-0.0002057227,2,1
5.56887e-05,-0.0001425172,2,1
5.99024e-05,-7.169464e-05,2,1
4.110282e-05,-3.951337e-06,2,1
9.338019e-06,4.72613e-05,2,1
-2.680255e-05,6.995045e-05,2,1
-6.197072e-05,5.730935e-05,2,1
-8.660465e-05,1.776542e-05,2,1
-9.114248e-05,-3.198864e-05,2,1
-6.991193e-05,-7.882551e-05,2,1
-2.615429e-05,-0.0001165867,2,1
3.170304e-05,-0.0001410586,2,1
9.31258e-05,-0.000147055,2,1
0.0001521176,-0.0001340898,2,1
0.0002012234,-0.0001071869,2,1
0.0002321778,-7.477388e-05,2,1
0.0002396328,-4.414354e-05,2,1
0.0002232643,-2.015787e-05,2,1
0.0001882582,-1.844488e-06,2,1
0.0001445005,1.744129e-05,2,1
0.000101067,4.191315e-05,2,1
6.849186e-05,7.465034e-05,2,1
5.212327e-05,0.0001103047,2,1
5.082674e-05,0.0001412592,2,1
5.471631e-05,0.0001587623,2,1
5.504044e-05,0.000150659,2,1
5.017848e-05,0.0001116012,2,1
4.807163e-05,4.82337e-05,2,1
5.212327e-05,-2.437157e-05,2,1
6.184718e-05,-9.19528e-05,2,1
7.335383e-05,-0.0001442999,2,1
7.983644e-05,-0.0001699062,2,1
8.291568e-05,-0.0001622891,2,1
8.761557e-05,-0.0001242038,2,1
9.717743e-05,-6.861539e-05,2,1
0.0001062531,-1.351319e-05,2,1
0.0001046324,2.700314e-05,2,1
8.907416e-05,4.02925e-05,2,1
5.94162e-05,2.116879e-05,2,1
1.679302e-05,-1.513384e-05,2,1
-3.879538e-05,-4.527799e-05,2,1
-0.0001058904,-5.59743e-05,2,1
-0.0001741199,-4.398147e-05,2,1
-0.0002277635,-8.327101e-06,2,1
-0.0002452666,4.612685e-05,2,1
-0.0002178775,0.0001067393,2,1
-0.0001608306,0.000160545,2,1
-0.0001024871,0.0002044647,2,1
-6.845333e-05,0.0002436845,2,1
-6.553616e-05,0.0002905214,2,1
-8.158062e-05,0.0003474063,2,1
-8.757704e-05,0.0004068843,2,1
-3.944364e-05,0.0004564763,2,1
9.26396e-05,0.0004848378,2,1
0.0003146691,0.000485324,2,1
0.0005927734,0.0004602039,2,1
0.000864557,0.0004196875,2,1
0.001057739,0.0003765781,2,1
0.001118514,0.0003433547,2,1
0.001030674,0.0003256896,2,1
0.0008285785,0.0003232586,2,1
0.0005747841,0.0003352514,2,1
0.0003349273,0.0003577785,2,1
0.0001490383,0.0003783608,2,1
2.489629e-05,0.0003825745,2,1
-5.176061e-05,0.0003642611,2,1
-0.0001037836,0.0003279585,2,1
-0.0001475412,0.000287118,2,1
-0.0001840059,0.0002542187,2,1
-0.0002019951,0.0002355812,2,1
-0.0001888679,0.0002258573,2,1
-0.0001386276,0.000217754,2,1
-5.435365e-05,0.0002059233,2,1
4.547859e-05,0.0001918236,2,1
0.0001336421,0.0001782101,2,1
0.0001785342,0.0001650828,2,1
0.0001540623,0.0001511452,2,1
6.055066e-05,0.0001410971,2,1
-7.801519e-05,0.0001370455,2,1
-0.0002227395,0.0001326697,2,1
-0.0003392644,0.0001205148,2,1
-0.0004099249,9.863601e-05,2,1
-0.0004365036,6.670914e-05,2,1
-0.0004353692,2.473423e-05,2,1
-0.0004290486,-2.534396e-05,2,1
-0.0004366657,-8.433573e-05,2,1
-0.0004624341,-0.0001473791,2,1
-0.0004885266,-0.0002060468,2,1
-0.0004898231,-0.0002522354,2,1
-0.0004455793,-0.0002872415,2,1
-0.0003540124,-0.0003138202,2,1
-0.0002366771,-0.0003326198,2,1
-0.0001224211,-0.0003454229,2,1
-4.252288e-05,-0.0003567675,2,1
-2.0482e-05,-0.0003681121,2,1
-6.180866e-05,-0.0003775118,2,1
-0.0001468929,-0.0003835083,2,1
-0.0002434839,-0.0003885323,2,1
-0.0003186821,-0.0003945287,2,1
-0.0003596847,-0.0003997148,2,1
-0.0003700569,-0.0004010113,2,1
-0.0003600088,-0.0003967976,2,1
-0.0003423437,-0.0003911253,2,1
-0.0003254889,-0.0003843186,2,1
-0.0003094444,-0.0003812394,2,1
-0.0002927517,-0.000387722,2,1
-0.0002692523,-0.0004060354,2,1
-0.0002332737,-0.0004347209,2,1
-0.0001901644,-0.0004674581,2,1
-0.0001535376,-0.000494523,2,1
-0.0001384655,-0.0004993849,2,1
-0.0001493239,-0.0004724821,2,1
-0.000174444,-0.0004144627,2,1
-0.0001997262,-0.0003348887,2,1
-0.0002135018,-0.000246239,2,1
-0.0002099363,-0.0001614788,2,1
-0.0001940539,-8.854943e-05,2,1
-0.0001801163,-2.728874e-05,2,1
-0.0001820611,2.327564e-05,2,1
-0.0002055606,6.78436e-05,2,1
-0.0002455907,0.0001122495,2,1
-0.0002919414,0.0001573037,2,1
-0.000333106,0.0001974959,2,1
-0.000358064,0.0002281262,2,1
-0.0003617915,0.0002495189,2,1
-0.0003339163,0.0002652392,2,1
-0.0002588801,0.0002801492,2,1
-0.0001303623,0.0002961937,2,1
3.996837e-05,0.0003104554,2,1
0.0002196988,0.000319207,2,1
0.0003702575,0.0003211517,2,1
0.0004642555,0.0003172622,2,1
0.0004958582,0.0003077003,2,1
0.0004833792,0.0002936006,2,1
0.0004569625,0.0002811216,2,1
0.0004443214,0.0002733424,2,1
0.0004619866,0.0002675081,2,1
0.0005086614,0.0002611876,2,1
0.0005639257,0.0002516257,2,1
0.0005976353,0.0002389846,2,1
0.0005930975,0.0002218057,2,1
0.000547233,0.0001947408,2,1
0.0004741415,0.0001574657,2,1
0.0003922984,0.0001171115,2,1
0.0003148312,8.356394e-05,2,1
0.000244981,6.444023e-05,2,1
0.0001824238,6.119892e-05,2,1
0.0001261871,6.83298e-05,2,1
7.319176e-05,8.113296e-05,2,1
2.39239e-05,9.474644e-05,2,1
-1.67545e-05,0.0001062531,2,1
-4.949169e-05,0.0001104668,2,1
-7.866345e-05,0.0001052807,2,1
-0.0001081593,9.328786e-05,2,1
-0.0001374932,8.161915e-05,2,1
-0.0001663408,7.756752e-05,2,1
-0.0001911368,8.016057e-05,2,1
-0.0002071812,8.486046e-05,2,1
-0.0002039399,8.664318e-05,2,1
-0.000176875,8.42122e-05,2,1
-0.0001329553,7.90261e-05,2,1
-9.049421e-05,6.946425e-05,2,1
-6.116039e-05,5.893001e-05,2,1
-4.884343e-05,5.082674e-05,2,1
-4.965376e-05,4.483033e-05,2,1
-5.662256e-05,3.494434e-05,2,1
-6.586029e-05,1.792748e-05,2,1
-7.412562e-05,-5.085794e-06,2,1
-7.444975e-05,-2.809907e-05,2,1
-6.456377e-05,-4.819517e-05,2,1
-4.90055e-05,-6.294311e-05,2,1
-3.474375e-05,-7.396356e-05,2,1
-2.745081e-05,-8.660465e-05,2,1
-3.68506e-05,-9.875954e-05,2,1
-5.970181e-05,-0.0001065387,2,1
-8.82253e-05,-0.0001102662,2,1
-0.0001076731,-0.000114804,2,1
-9.908367e-05,-0.0001208004,2,1
-5.240886e-05,-0.0001279313,2,1
1.954813e-05,-0.0001342519,2,1
9.798775e-05,-0.0001402483,2,1
0.000168162,-0.0001478653,2,1
0.0002261814,-0.0001543479,2,1
0.0002795009,-0.0001543479,2,1
0.0003321722,-0.000147055,2,1
0.0003769022,-0.0001374932,2,1
0.0003984569,-0.0001324691,2,1
0.0003835469,-0.0001324691,2,1
0.0003290929,-0.0001352242,2,1
0.0002470879,-0.000137169,2,1
0.0001516314,-0.0001373311,2,1
5.957827e-05,-0.0001360346,2,1
-9.947754e-06,-0.0001302002,2,1
-4.657452e-05,-0.0001195039,2,1
-5.338126e-05,-0.0001071869,2,1
-4.122636e-05,-9.486997e-05,2,1
-2.501983e-05,-8.530812e-05,2,1
-1.659243e-05,-8.02841e-05,2,1
-2.323711e-05,-7.817725e-05,2,1
-4.47918e-05,-7.315322e-05,2,1
-7.882551e-05,-5.856735e-05,2,1
-0.0001206384,-3.539201e-05,2,1
-0.000166827,-8.165035e-06,2,1
-0.0002147983,1.452411e-05,2,1
-0.0002595283,3.18651e-05,2,1
-0.0002852967,4.35338e-05,2,1
-0.0002757348,5.358185e-05,2,1
-0.0002172293,6.427817e-05,2,1
-0.0001164247,7.546067e-05,2,1
-1.520357e-06,8.550872e-05,2,1
9.31258e-05,9.21534e-05,2,1
0.0001529279,9.782569e-05,2,1
0.0001751309,0.0001080358,2,1
0.0001715654,0.0001253768,2,1
0.0001568175,0.0001479039,2,1
0.0001417454,0.0001699448,2,1
0.0001354248,0.0001884202,2,1
0.0001425557,0.0002000889,2,1
0.0001610312,0.0002046267,2,1
0.0001817755,0.0002036544,2,1
0.0001981441,0.0002025199,2,1
0.0002094887,0.0002055991,2,1
0.0002237505,0.0002115956,2,1
0.0002475741,0.0002140265,2,1
0.0002901973,0.0002075439,2,1
0.0003527545,0.0001910133,2,1
0.0004221185,0.0001644345,2,1
0.0004781931,0.000130887,2,1
0.0005023408,9.361199e-05,2,1
0.0004869446,5.666109e-05,2,1
0.0004316803,2.489629e-05,2,1
0.0003444891,4.313994e-06,2,1
0.0002388225,-2.492749e-06,2,1
0.0001300767,2.623614e-07,2,1
2.829966e-05,7.069105e-06,2,1
-5.500191e-05,1.387585e-05,2,1
-0.0001130213,1.9224e-05,2,1
-0.0001376552,2.295151e-05,2,1
-0.0001245279,2.441009e-05,2,1
-8.07703e-05,2.100672e-05,2,1
-3.053005e-05,1.12828e-05,2,1
-7.516774e-06,-7.030578e-06,2,1
-3.717473e-05,-4.074016e-05,2,1
-0.0001212866,-8.757704e-05,2,1
-0.0002397564,-0.0001378173,2,1
-0.0003609812,-0.0001810887,2,1
-0.0004549791,-0.0002107467,2,1
-0.0005018159,-0.0002201465,2,1
-0.0004941989,-0.0002058847,2,1
-0.000444769,-0.0001716889,2,1
-0.0003784843,-0.0001224211,2,1
-0.0003253268,-6.229485e-05,2,1
-0.0003013411,1.396819e-06,2,1
-0.0003018274,5.795762e-05,2,1
-0.0003087962,9.733949e-05,2,1
-0.0002971275,0.0001164632,2,1
-0.0002455907,0.0001206769,2,1
-0.0001480274,0.0001150046,2,1
-1.416145e-05,0.0001015532,2,1
0.0001318594,8.016057e-05,2,1
0.0002641047,5.179914e-05,2,1
0.0003624784,2.408596e-05,2,1
0.0004125566,3.341602e-06,2,1
0.0004057499,-1.092015e-05,2,1
0.0003475684,-2.42095e-05,2,1
0.0002610255,-4.138842e-05,2,1
0.0001801549,-6.504996e-05,2,1
0.0001347766,-9.19528e-05,2,1
0.0001368834,-0.0001164247,2,1
0.0001741585,-0.0001326312,2,1
0.0002162954,-0.0001339277,2,1
0.0002359054,-0.0001135075,2,1
0.0002211574,-6.974985e-05,2,1
0.000175455,-1.010982e-05,2,1
0.0001114392,5.228533e-05,2,1
4.304761e-05,0.0001051186,2,1
-1.643037e-05,0.0001410971,2,1
-4.754691e-05,0.0001563313,2,1
-3.279896e-05,0.0001479039,2,1
2.667901e-05,0.0001128978,2,1
0.0001117633,5.487838e-05,2,1
0.0001926339,-1.950961e-05,2,1
0.0002365536,-9.924574e-05,2,1
0.0002205092,-0.0001731475,2,1
0.0001485521,-0.0002295462,2,1
4.35338e-05,-0.0002606628,2,1
-6.164659e-05,-0.0002629317,2,1
-0.000142031,-0.0002370013,2,1
-0.000191785,-0.000191623,2,1
-0.0002188499,-0.000137007,2,1
-0.0002355427,-7.914964e-05,2,1
-0.0002515871,-2.404744e-05,2,1
-0.0002703867,2.295151e-05,2,1
-0.0002887001,6.265751e-05,2,1
-0.000305879,9.960841e-05,2,1
-0.0003238683,0.0001312112,2,1
-0.0003410472,0.0001487142,2,1
-0.000353202,0.0001509831,2,1
-0.000355633,0.0001417454,2,1
-0.0003418575,0.0001294284,2,1
-0.0003057169,0.0001188942,2,1
-0.0002425115,0.0001075496,2,1
-0.0001514308,9.134307e-05,2,1
-4.85193e-05,7.092284e-05,2,1
3.996837e-05,4.256141e-05,2,1
9.134307e-05,6.420843e-06,2,1
0.0001007429,-3.053005e-05,2,1
7.6271e-05,-5.824322e-05,2,1
3.494434e-05,-6.861539e-05,2,1
-6.058186e-06,-6.245691e-05,2,1
-3.571614e-05,-4.657452e-05,2,1
-4.85193e-05,-3.231277e-05,2,1
-4.43056e-05,-3.409549e-05,2,1
-2.971972e-05,-6.456377e-05,2,1
-7.030578e-06,-0.0001250141,2,1
1.744129e-05,-0.0002045882,2,1
2.76514e-05,-0.0002809209,2,1
1.614476e-05,-0.00033813,2,1
-1.20546e-05,-0.0003757291,2,1
-4.770897e-05,-0.0004039285,2,1
-8.239095e-05,-0.0004272659,2,1
-0.0001125351,-0.0004408794,2,1
-0.0001405724,-0.0004319658,2,1
-0.0001752544,-0.0003909633,2,1
-0.0002258187,-0.0003175477,2,1
-0.0002922655,-0.0002152845,2,1
-0.0003630881,-9.2439e-05,2,1
-0.0004240246,3.283749e-05,2,1
-0.0004624341,0.0001417454,2,1
-0.0004716718,0.0002234263,2,1
-0.0004510895,0.0002756114,2,1
-0.0004112214,0.0003010556,2,1
-0.0003674638,0.0003089969,2,1
-0.0003389403,0.0003102934,2,1
-0.0003292164,0.000309483,2,1
-0.0003250027,0.0003046211,2,1
-0.0003092824,0.0002901973,2,1
-0.0002781658,0.0002658874,2,1
-0.0002358668,0.0002388225,2,1
-0.0001901644,0.0002180782,2,1
-0.0001413827,0.0002051129,2,1
-8.887356e-05,0.0001932822,2,1
-2.631635e-05,0.0001756171,2,1
5.277153e-05,0.0001475797,2,1
0.0001412592,0.000110953,2,1
0.0002182402,7.270556e-05,2,1
0.0002603772,3.494434e-05,2,1
0.0002545429,3.017472e-06,2,1
0.0002075439,-2.226472e-05,2,1
0.0001410971,-3.766092e-05,2,1
7.870197e-05,-4.05781e-05,2,1
3.915804e-05,-2.939559e-05,2,1
2.603075e-05,-6.706447e-06,2,1
3.170304e-05,2.359977e-05,2,1
4.483033e-05,5.779555e-05,2,1
6.314371e-05,8.534666e-05,2,1
9.31258e-05,0.0001005808,2,1
0.0001415833,0.0001020394,2,1
0.0002154851,9.409818e-05,2,1
0.000316776,8.518459e-05,2,1
0.0004360561,8.42122e-05,2,1
0.0005642498,9.652917e-05,2,1
0.0006964952,0.0001211631,2,1
0.0008313337,0.0001496866,2,1
0.0009545035,0.0001764274,2,1
0.001038129,0.0001968476,2,1
0.001057901,0.0002162954,2,1
0.0009972887,0.0002337985,2,1
0.0008632605,0.0002464396,2,1
0.0006874196,0.0002540567,2,1
0.0005089855,0.0002561635,2,1
0.0003606957,0.0002496809,2,1
0.0002568118,0.0002315296,2,1
0.0001913374,0.0002025199,2,1
0.0001430419,0.0001676758,2,1
9.474644e-05,0.0001328318,2,1
4.126489e-05,0.000103498,2,1
-1.318906e-05,8.46984e-05,2,1
-6.39155e-05,8.129502e-05,2,1
-0.0001037836,8.923623e-05,2,1
-0.0001313347,0.0001033359,2,1
-0.0001522411,0.0001151667,2,1
-0.0001737958,0.0001195424,2,1
-0.0001982676,0.0001192183,2,1
-0.0002222533,0.0001188942,2,1
-0.0002394322,0.0001221355,2,1
-0.0002418632,0.0001278078,2,1
-0.0002266291,0.0001323456,2,1
-0.0001950263,0.0001344524,2,1
-0.0001525652,0.0001320215,2,1
-0.0001044318,0.0001257009,2,1
-5.240886e-05,0.0001169494,2,1
2.04508e-06,0.0001124116,2,1
5.666109e-05,0.0001182459,2,1
9.798775e-05,0.0001321835,2,1
0.0001080358,0.0001449867,2,1
8.615699e-05,0.0001501728,2,1
4.304761e-05,0.0001464453,2,1
-5.57199e-06,0.0001355869,2,1
-4.560212e-05,0.0001179218,2,1
-6.91016e-05,9.63671e-05,2,1
-7.720486e-05,7.140904e-05,2,1
-7.218083e-05,4.483033e-05,2,1
-5.905355e-05,1.825161e-05,2,1
-4.349527e-05,-5.085794e-06,2,1
-3.21507e-05,-2.129233e-05,2,1
-2.826114e-05,-3.21507e-05,2,1
-3.620233e-05,-3.717473e-05,2,1
-5.710876e-05,-3.749886e-05,2,1
-8.482193e-05,-3.522994e-05,2,1
-0.0001028112,-3.701266e-05,2,1
-9.875954e-05,-5.192267e-05,2,1
-7.444975e-05,-8.384954e-05,2,1
-4.349527e-05,-0.0001302002,2,1
-1.837515e-05,-0.0001809267,2,1
-8.327101e-06,-0.0002277635,2,1
-1.286493e-05,-0.0002697385,2,1
-2.89094e-05,-0.0003073376,2,1
-5.013995e-05,-0.000345585,2,1
-7.380149e-05,-0.0003864254,2,1
-0.0001007043,-0.0004288866,2,1
-0.000127121,-0.0004682684,2,1
-0.0001498101,-0.0004984126,2,1
-0.0001676373,-0.0005113778,2,1
-0.0001815749,-0.0005031124,2,1
-0.0001862748,-0.0004729683,2,1
-0.0001806025,-0.0004267797,2,1
-0.0001715269,-0.0003741085,2,1
-0.0001697442,-0.0003193304,2,1
-0.0001797922,-0.0002647144,2,1
-0.0001953505,-0.0002159328,2,1
-0.0001989159,-0.0001788198,2,1
-0.000176713,-0.0001564548,2,1
-0.0001302002,-0.0001426792,2,1
-7.526008e-05,-0.0001352242,2,1
-2.84232e-05,-0.0001277692,2,1
-6.176923e-08,-0.0001151281,2,1
1.112074e-05,-9.746302e-05,2,1
8.203562e-06,-7.396356e-05,2,1
-4.761664e-06,-5.111234e-05,2,1
-1.902341e-05,-3.328516e-05,2,1
-2.485776e-05,-1.837515e-05,2,1
-9.461558e-06,-3.14101e-06,2,1
3.883391e-05,1.306552e-05,2,1
0.0001180839,3.024445e-05,2,1
0.0002198609,5.001642e-05,2,1
0.0003305515,7.043665e-05,2,1
0.0004305459,8.988449e-05,2,1
0.0004960203,0.0001056048,2,1
0.0005120648,0.0001192183,2,1
0.0004840274,0.0001362352,2,1
0.0004256839,0.0001574657,2,1
0.000346596,0.0001809652,2,1
0.0002568118,0.0002047888,2,1
0.0001647587,0.0002253711,2,1
7.594687e-05,0.0002391467,2,1
-1.358292e-06,0.0002451431,2,1
-5.824322e-05,0.0002443328,2,1
-9.405965e-05,0.0002376881,2,1
-0.000112373,0.0002282883,2,1
-0.0001208004,0.0002190506,2,1
-0.000127283,0.0002096508,2,1
-0.0001357104,0.0002015475,2,1
-0.000144624,0.0001966855,2,1
-0.0001511067,0.0001940925,2,1
-0.0001524032,0.0001911753,2,1
-0.0001517549,0.0001858272,2,1
-0.0001507825,0.0001772377,2,1
-0.0001561307,0.0001675138,2,1
-0.0001705545,0.0001602208,2,1
-0.0001893541,0.0001543865,2,1
-0.0002122053,0.000145635,2,1
-0.0002350565,0.0001320215,2,1
-0.0002506147,0.0001145184,2,1
-0.0002515871,9.571884e-05,2,1
-0.0002350565,7.6271e-05,2,1
-0.0002024813,5.682316e-05,2,1
-0.000161965,3.624086e-05,2,1
-0.0001242038,1.54965e-05,2,1
-9.017008e-05,-5.085794e-06,2,1
-6.099833e-05,-2.242678e-05,2,1
-4.025397e-05,-3.539201e-05,2,1
-2.631635e-05,-4.284701e-05,2,1
-1.740276e-05,-4.80331e-05,2,1
-1.075808e-05,-5.354332e-05,2,1
-2.492749e-06,-5.921561e-05,2,1
1.209313e-05,-6.926366e-05,2,1
2.878586e-05,-8.320128e-05,2,1
4.337174e-05,-0.0001036215,2,1
5.082674e-05,-0.0001259865,2,1
4.612685e-05,-0.0001468929,2,1
3.024445e-05,-0.0001640719,2,1
1.12828e-05,-0.0001786577,2,1
9.175954e-06,-0.0001921092,2,1
4.191315e-05,-0.0002042641,2,1
0.0001171115,-0.000216581,2,1
0.0002218057,-0.0002300324,2,1
0.0003208276,-0.0002455907,2,1
0.0003717161,-0.0002642282,2,1
0.0003457857,-0.0002823795,2,1
0.0002454672,-0.0002963172,2,1
9.798775e-05,-0.0003024756,2,1
-5.629844e-05,-0.0002993964,2,1
-0.0001794681,-0.0002904828,2,1
-0.0002425115,-0.000276059,2,1
-0.0002395943,-0.0002561249,2,1
-0.0001885437,-0.000231329,2,1
-0.0001159385,-0.0002102605,2,1
-4.673658e-05,-0.0001987538,2,1
9.106227e-07,-0.0001912988,2,1
1.582063e-05,-0.0001784957,2,1
6.096713e-06,-0.00015451,2,1
-9.137427e-06,-0.0001191798,2,1
-2.177852e-05,-7.461182e-05,2,1
-3.344723e-05,-2.258885e-05,2,1
-4.722278e-05,3.526847e-05,2,1
-5.386745e-05,9.328786e-05,2,1
-3.506788e-05,0.0001448246,2,1
1.727922e-05,0.000185503,2,1
0.0001056048,0.0002190506,2,1
0.0002213195,0.000247412,2,1
0.0003370341,0.0002736666,2,1
0.0004298976,0.0002978143,2,1
0.0004931031,0.0003219621,2,1
0.0005318367,0.0003483787,2,1
0.0005527431,0.000376416,2,1
0.0005519328,0.0004007258,2,1
0.0005221128,0.0004206599,2,1
0.0004603659,0.0004352458,2,1
0.0003707437,0.0004384871,2,1
0.0002655633,0.0004219564,2,1
0.0001579519,0.0003856538,2,1
5.536457e-05,0.0003394651,2,1
-3.652646e-05,0.0002960316,2,1
-0.0001099421,0.0002613496,2,1
-0.0001559686,0.0002308813,2,1
-0.0001695821,0.0001979821,2,1
-0.0001543479,0.0001673517,2,1
-0.0001211246,0.0001425557,2,1
-8.563225e-05,0.0001247285,2,1
-6.197072e-05,0.0001151667,2,1
-5.32192e-05,0.0001114392,2,1
-5.402952e-05,0.000110953,2,1
-6.002594e-05,0.000111115,2,1
-7.169464e-05,0.0001098185,2,1
-9.000802e-05,9.766362e-05,2,1
-0.0001180453,6.978839e-05,2,1
-0.0001618029,3.170304e-05,2,1
-0.0002217671,-1.140634e-05,2,1
-0.0002912931,-5.435365e-05,2,1
-0.0003616295,-9.162867e-05,2,1
-0.0004267797,-0.0001164247,2,1
-0.00047702,-0.0001259865,2,1
-0.0005048952,-0.000119666,2,1
-0.0005073262,-0.0001076731,2,1
-0.0004841508,-9.697683e-05,2,1
-0.0004366657,-9.519411e-05,2,1
-0.000362926,-0.0001070249,2,1
-0.0002658489,-0.0001302002,2,1
-0.0001538618,-0.0001530514,2,1
-3.830919e-05,-0.0001639098,2,1
6.395404e-05,-0.0001590478,2,1
0.0001399627,-0.0001438137,2,1
0.0001793446,-0.0001318209,2,1
0.0001738343,-0.0001361966,2,1
0.0001188942,-0.0001590478,2,1
1.954813e-05,-0.0001921092,2,1
-0.0001039456,-0.0002258187,2,1
-0.0002269532,-0.0002507768,2,1
-0.0003254889,-0.0002622834,2,1
-0.0003814014,-0.0002585559,2,1
-0.0003916115,-0.0002400805,2,1
-0.0003692465,-0.0002068571,2,1
-0.0003324577,-0.0001645581,2,1
-0.0002972895,-0.000117235,2,1
-0.000266011,-7.299116e-05,2,1
-0.0002276015,-4.05781e-05,2,1
-0.0001724993,-1.108221e-05,2,1
-0.0001055663,3.251336e-05,2,1
-3.992984e-05,0.0001033359,2,1
5.772582e-06,0.0001931201,2,1
2.473423e-05,0.0002767458,2,1
2.214118e-05,0.0003313618,2,1
9.338019e-06,0.0003474063,2,1
-1.844488e-06,0.0003276344,2,1
2.623614e-07,0.0002803113,2,1
3.105477e-05,0.0002192126,2,1
0.0001075496,0.0001568175,2,1
0.0002384984,0.0001013911,2,1
0.0004204978,5.536457e-05,2,1
0.0006355586,1.679302e-05,2,1
0.0008470541,-1.367526e-05,2,1
0.001018681,-3.539201e-05,2,1
0.001117055,-4.706071e-05,2,1
0.001125969,-5.143648e-05,2,1
0.001052067,-5.354332e-05,2,1
0.0009293833,-6.213279e-05,2,1
0.0008016757,-8.611845e-05,2,1
0.0007049226,-0.0001277692,2,1
0.0006525755,-0.0001715269,2,1
0.0006349103,-0.0001959987,2,1
0.0006269692,-0.0001864369,2,1
0.0005974732,-0.0001434896,2,1
0.0005211404,-8.514606e-05,2,1
0.0003895433,-3.21507e-05,2,1
0.0002180782,-8.720959e-07,2,1
3.93201e-05,5.772582e-06,2,1
-0.000114804,-5.409925e-06,2,1
-0.0002258187,-2.631635e-05,2,1
-0.0002912931,-5.402952e-05,2,1
-0.0003180339,-8.725291e-05,2,1
-0.0003168994,-0.0001177212,2,1
-0.0003019894,-0.0001430034,2,1
-0.0002843243,-0.0001665028,2,1
-0.000271197,-0.0001909747,2,1
-0.0002627696,-0.000216581,2,1
-0.0002566112,-0.0002402425,2,1
-0.000251101,-0.0002545043,2,1
-0.0002525595,-0.0002502906,2,1
-0.0002663351,-0.0002224154,2,1
-0.0002906449,-0.0001733096,2,1
-0.0003199787,-0.0001117248,2,1
-0.0003407231,-4.673658e-05,2,1
-0.0003314853,1.355172e-05,2,1
-0.0002734659,6.719535e-05,2,1
-0.0001676373,0.0001188942,2,1
-3.701266e-05,0.0001718896,2,1
7.448828e-05,0.0002253711,2,1
0.0001261871,0.0002731804,2,1
9.31258e-05,0.000309483,2,1
-1.983374e-05,0.000329255,2,1
-0.0001770371,0.0003362238,2,1
-0.0003322956,0.0003347652,2,1
-0.0004554653,0.0003313618,2,1
-0.0005356876,0.0003269861,2,1
-0.0005755557,0.0003161277,2,1
-0.0005810658,0.0002983005,2,1
-0.0005643732,0.0002780424,2,1
-0.0005450874,0.000257298,2,1
-0.0005426564,0.0002380122,2,1
-0.0005543251,0.0002211574,2,1
-0.0005705316,0.0002070577,2,1
-0.0005799314,0.0001947408,2,1
-0.0005770142,0.0001832341,2,1
-0.0005624284,0.0001718896,2,1
-0.00053666,0.0001592484,2,1
-0.0004922541,0.0001448246,2,1
-0.0004214316,0.0001276457,2,1
-0.0003339163,0.0001070634,2,1
-0.0002501286,8.323981e-05,2,1
-0.0001909747,5.747142e-05,2,1
-0.0001656925,3.445814e-05,2,1
-0.0001682856,2.068259e-05,2,1
-0.0001836818,1.419998e-05,2,1
-0.0001974573,9.338019e-06,2,1
-0.0002011848,5.124321e-06,2,1
-0.000189192,1.720949e-06,2,1
-0.0001512687,-2.81688e-06,2,1
-8.093236e-05,-1.318906e-05,2,1
1.387585e-05,-3.182657e-05,2,1
0.0001146805,-5.467778e-05,2,1
0.0001989545,-8.093236e-05,2,1
0.0002555152,-0.0001081593,2,1
0.000284687,-0.0001339277,2,1
0.0002923041,-0.0001590478,2,1
0.0002853353,-0.0001857886,2,1
0.0002756114,-0.0002128535,2,1
0.0002709115,-0.0002399184,2,1
0.0002739907,-0.0002699005,2,1
0.000289549,-0.0002993964,2,1
0.0003174242,-0.000318358,2,1
0.0003482167,-0.0003170615,2,1
0.0003684748,-0.0002896725,2,1
0.0003744712,-0.0002366771,2,1
0.0003756057,-0.0001626133,2,1
0.0003830607,-7.931171e-05,2,1
0.0004046154,2.623614e-07,2,1
0.0004441593,6.541262e-05,2,1
0.0004893756,0.0001107909,2,1
0.0005172509,0.0001417454,2,1
0.0005117406,0.0001623277,2,1
0.0004717105,0.0001785342,2,1
0.0004128807,0.0001957132,2,1
0.0003665301,0.0002164575,2,1
0.0003568061,0.0002386605,2,1
0.0003869503,0.0002595669,2,1
0.0004381629,0.0002709115,2,1
0.0004798138,0.0002662116,2,1
0.0004843516,0.0002521119,2,1
0.0004418904,0.0002372019,2,1
0.0003606957,0.0002253711,2,1
0.0002615117,0.0002185644,2,1
0.0001658931,0.0002132162,2,1
8.875003e-05,0.0002051129,2,1
3.883391e-05,0.0001960373,2,1
1.727922e-05,0.000187772,2,1
1.760335e-05,0.0001817755,2,1
2.635488e-05,0.0001812893,2,1
2.992031e-05,0.0001892305,2,1
2.084466e-05,0.0002034923,2,1
-2.330684e-06,0.0002196988,2,1
-2.971972e-05,0.0002292607,2,1
-4.284701e-05,0.0002245608,2,1
-2.161646e-05,0.0002018716,2,1
4.742337e-05,0.0001637863,2,1
0.0001514693,0.0001150046,2,1
0.0002582704,6.168512e-05,2,1
0.000334117,4.313994e-06,2,1
0.0003592371,-5.905355e-05,2,1
0.0003331446,-0.0001287416,2,1
0.0002702632,-0.0001989159,2,1
0.0001919856,-0.0002572594,2,1
0.0001200286,-0.0002930758,2,1
6.735741e-05,-0.000300855,2,1
3.575467e-05,-0.0002805968,2,1
1.97102e-05,-0.0002392702,2,1
9.500085e-06,-0.0001849783,2,1
-2.330684e-06,-0.0001331174,2,1
-1.643037e-05,-9.503204e-05,2,1
-3.312309e-05,-7.477388e-05,2,1
-4.884343e-05,-6.958779e-05,2,1
-6.197072e-05,-7.461182e-05,2,1
-7.493595e-05,-8.384954e-05,2,1
-8.952183e-05,-9.535618e-05,2,1
-0.0001092938,-0.0001068628,2,1
-0.0001413827,-0.0001156143,2,1
-0.0001828714,-0.000119666,2,1
-0.0002212809,-0.0001173971,2,1
-0.000243808,-0.0001125351,2,1
-0.0002483458,-0.0001086455,2,1
-0.0002433218,-0.0001081593,2,1
-0.0002459149,-0.0001136696,2,1
-0.0002643903,-0.0001230693,2,1
-0.000293562,-0.0001331174,2,1
-0.0003264613,-0.0001439758,2,1
-0.000355633,-0.0001553203,2,1
-0.0003736223,-0.0001665028,2,1
-0.0003757291,-0.0001760647,2,1
-0.0003608192,-0.0001838438,2,1
-0.0003309991,-0.0001912988,2,1
-0.0002893484,-0.0001969711,2,1
-0.000243808,-0.0001989159,2,1
-0.0001987538,-0.0001985918,2,1
-0.0001527273,-0.0001963229,2,1
-0.0001055663,-0.0001912988,2,1
-6.472583e-05,-0.0001877334,2,1
-4.608832e-05,-0.0001890299,2,1
-6.180866e-05,-0.0001948643,2,1
-0.0001109144,-0.0002019951,2,1
-0.0001752544,-0.0002070192,2,1
-0.0002295462,-0.0002078295,2,1
-0.0002585559,-0.0002049123,2,1
-0.0002593663,-0.0001958367,2,1
-0.0002370013,-0.0001759026,2,1
-0.0001997262,-0.0001465688,2,1
-0.000159372,-0.0001120489,2,1
-0.0001251762,-7.882551e-05,2,1
-0.000102325,-4.754691e-05,2,1
-9.179074e-05,-1.918548e-05,2,1
-8.709085e-05,6.582909e-06,2,1
-7.736692e-05,3.040651e-05,2,1
-5.402952e-05,5.293359e-05,2,1
-1.659243e-05,7.562274e-05,2,1
3.283749e-05,9.879808e-05,2,1
8.680524e-05,0.0001188942,2,1
0.0001273216,0.0001349386,2,1
0.0001389903,0.0001503349,2,1
0.0001185701,0.0001684862,2,1
7.270556e-05,0.0001885823,2,1
1.047248e-05,0.0002096508,2,1
-5.030202e-05,0.0002290986,2,1
-8.854943e-05,0.0002404432,2,1
-9.438378e-05,0.0002412535,2,1
-7.315322e-05,0.0002380122,2,1
-3.571614e-05,0.0002391467,2,1
1.014835e-05,0.0002485465,2,1
6.670914e-05,0.0002636185,2,1
0.0001389903,0.0002767458,2,1
0.0002284504,0.0002829043,2,1
0.0003256896,0.0002832284,2,1
0.0004149876,0.0002791768,2,1
0.000483055,0.0002707494,2,1
0.0005206542,0.0002521119,2,1
0.0005318367,0.000220023,2,1
0.0005263265,0.0001796687,2,1
0.0005208163,0.0001380179,2,1
0.0005172509,0.0001070634,2,1
0.0005060683,9.426025e-05,2,1
0.0004785172,0.0001002567,2,1
0.0004339493,0.0001193804,2,1
0.0003733368,0.0001445005,2,1
0.0002947351,0.000170593,2,1
0.0001966855,0.0001984683,2,1
8.696731e-05,0.0002268297,2,1
-2.194059e-05,0.0002504913,2,1
-0.0001173971,0.0002584324,2,1
-0.0001945401,0.0002459534,2,1
-0.0002559629,0.0002128921,2,1
-0.0003092824,0.0001667035,2,1
-0.0003634122,0.0001179218,2,1
-0.0004164075,7.740546e-05,2,1
-0.0004562756,5.082674e-05,2,1
-0.0004747511,3.462021e-05,2,1
-0.0004694029,1.97102e-05,2,1
-0.0004356933,-2.006553e-06,2,1
-0.0003720016,-3.344723e-05,2,1
-0.000276059,-6.877746e-05,2,1
-0.0001457585,-9.584238e-05,2,1
1.257933e-05,-0.000112211,2,1
0.0001795066,-0.0001224211,2,1
0.0003256896,-0.0001311726,2,1
0.0004201737,-0.0001387897,2,1
0.0004456179,-0.000142031,2,1
0.0004065602,-0.0001433275,2,1
0.0003214759,-0.0001496481,2,1
0.0002072198,-0.0001639098,2,1
7.740546e-05,-0.0001878955,2,1
-6.197072e-05,-0.000216581,2,1
-0.0002018331,-0.0002410529,2,1
-0.0003319715,-0.0002577456,2,1
-0.0004446069,-0.0002690902,2,1
-0.0005364979,-0.0002773555,2,1
-0.000603593,-0.0002844864,2,1
-0.0006376266,-0.000288538,2,1
-0.0006351956,-0.0002893484,2,1
-0.0006021344,-0.0002854588,2,1
-0.000554001,-0.0002818933,2,1
-0.0004977643,-0.0002767073,2,1
-0.0004316416,-0.0002658489,2,1
-0.0003510952,-0.0002486699,2,1
-0.0002580697,-0.0002233878,2,1
-0.0001543479,-0.0001930815,2,1
-4.592625e-05,-0.0001609926,2,1
6.865393e-05,-0.0001264727,2,1
0.0001989545,-9.114248e-05,2,1
0.0003532407,-5.69467e-05,2,1
0.0005376711,-2.971972e-05,2,1
0.0007417115,-1.480971e-05,2,1
0.0009376486,-1.480971e-05,2,1
0.001090963,-2.258885e-05,2,1
0.001171509,-2.84232e-05,2,1
0.001164216,-2.0482e-05,2,1
0.001072001,1.063454e-05,2,1
0.0009146354,6.395404e-05,2,1
0.0007269635,0.0001328318,2,1
0.0005542018,0.0002051129,2,1
0.0004310321,0.0002694529,2,1
0.0003684748,0.000316776,2,1
0.0003558337,0.0003405996,2,1
0.000361506,0.0003360618,2,1
0.0003511338,0.0003080245,2,1
0.0003028383,0.0002702632,2,1
0.0002112714,0.0002409294,2,1
9.182927e-05,0.0002292607,2,1
-3.21507e-05,0.0002342847,2,1
-0.0001391138,0.0002532463,2,1
-0.0002199844,0.000284687,2,1
-0.0002728177,0.0003269861,2,1
-0.0003024756,0.0003751195,2,1
-0.0003245165,0.0004204978,2,1
-0.0003551469,0.0004538833,2,1
-0.0003995528,0.0004619866,2,1
-0.0004412035,0.000440756,2,1
-0.0004582204,0.0003945674,2,1
-0.0004433104,0.0003256896,2,1
-0.0004087905,0.0002431983,2,1
-0.0003757291,0.000153252,2,1
-0.0003569296,6.557468e-05,2,1
-0.0003517435,-1.173047e-05,2,1
-0.0003543365,-7.704279e-05,2,1
-0.0003582261,-0.0001344139,2,1
-0.0003595226,-0.0001906506,2,1
-0.0003549848,-0.0002525595,2,1
-0.000340561,-0.0003194925,2,1
-0.0003248407,-0.0003867496,2,1
-0.0003167374,-0.0004457413,2,1
-0.0003225718,-0.0004841508,2,1
-0.0003403989,-0.0004953333,2,1
-0.0003613053,-0.0004786406,2,1
-0.0003745947,-0.0004343968,2,1
-0.0003684362,-0.000362926,2,1
-0.0003465574,-0.0002614731,2,1
-0.0003227338,-0.0001306864,2,1
-0.0003076617,1.419998e-05,2,1
-0.000303286,0.000150659,2,1
-0.0003045825,0.0002587566,2,1
-0.0003062031,0.0003235827,2,1
-0.0003049066,0.0003399513,2,1
-0.000298424,0.0003120761,2,1
-0.0002901587,0.0002555152,2,1
-0.0002857829,0.0001905271,2,1
-0.0002854588,0.0001291043,2,1
-0.0002857829,7.059871e-05,2,1
-0.0002822175,9.986281e-06,2,1
-0.0002677937,-5.305713e-05,2,1
-0.0002402425,-0.0001156143,2,1
-0.0001977815,-0.0001686097,2,1
-0.0001486757,-0.0002068571,2,1
-9.940781e-05,-0.0002292221,2,1
-5.64605e-05,-0.0002392702,2,1
-2.550602e-05,-0.0002395943,2,1
-8.489166e-06,-0.0002319772,2,1
-3.627206e-06,-0.0002185258,2,1
-2.492749e-06,-0.0002029675,2,1
3.179537e-06,-0.0001861127,2,1
1.938607e-05,-0.000169258,2,1
4.936815e-05,-0.0001536997,2,1
8.79397e-05,-0.0001417068,2,1
0.0001323456,-0.0001319829,2,1
0.0001786963,-0.000122259,2,1
0.0002282883,-0.0001141558,2,1
0.0002773941,-0.0001237176,2,1
0.0003239069,-0.0001608306,2,1
0.0003668542,-0.0002241981,2,1
0.0004038051,-0.0002958309,2,1
0.0004281149,-0.0003494746,2,1
0.0004370285,-0.0003690845,2,1
0.0004294114,-0.0003468815,2,1
0.000408505,-0.0002848105,2,1
0.0003801436,-0.0001981056,2,1
0.00035162,-0.0001045939,2,1
0.0003303894,-1.62683e-05,2,1
0.0003190449,6.087479e-05,2,1
0.0003145071,0.0001265113,2,1
0.0003171001,0.0001808031,2,1
0.0003248792,0.0002234263,2,1
0.0003371962,0.0002556773,2,1
0.0003506476,0.00027707,2,1
0.0003611819,0.0002885766,2,1
0.0003650715,0.0002926282,2,1
0.0003610198,0.0002979764,2,1
0.0003511338,0.0003088348,2,1
0.0003371962,0.0003299033,2,1
0.0003159656,0.0003572923,2,1
0.000282256,0.0003822504,2,1
0.0002357433,0.0003897054,2,1
0.0001832341,0.0003684748,2,1
0.0001304008,0.0003185587,2,1
8.178122e-05,0.0002503292,2,1
4.013043e-05,0.00018291,2,1
7.393236e-06,0.0001376938,2,1
-1.821308e-05,0.0001281319,2,1
-3.863332e-05,0.0001466074,2,1
-5.516398e-05,0.0001759412,2,1
-6.942573e-05,0.0001965235,2,1
-8.044617e-05,0.0002030061,2,1
-8.239095e-05,0.0002030061,2,1
-6.877746e-05,0.0002047888,2,1
-4.05781e-05,0.000217592,2,1
-7.678839e-06,0.0002433604,2,1
2.01964e-05,0.000274639,2,1
4.061663e-05,0.0002991108,2,1
5.61749e-05,0.0003106175,2,1
7.465034e-05,0.0003101313,2,1
0.0001054428,0.0002986247,2,1
0.0001597346,0.0002762596,2,1
0.0002393087,0.0002459534,2,1
0.0003263378,0.0002122438,2,1
0.0003947294,0.0001757791,2,1
0.0004229288,0.0001354248,2,1
0.0004002396,9.199134e-05,2,1
0.0003333067,4.580272e-05,2,1
0.0002410915,-1.034161e-06,2,1
0.0001433661,-4.608832e-05,2,1
5.228533e-05,-8.660465e-05,2,1
-2.680255e-05,-0.0001180453,2,1
-9.373552e-05,-0.0001402483,2,1
-0.0001528894,-0.0001533756,2,1
-0.0002120432,-0.0001572651,2,1
-0.0002812451,-0.0001514308,2,1
-0.0003621157,-0.0001349001,2,1
-0.0004475241,-0.0001086455,2,1
-0.0005248293,-7.898758e-05,2,1
-0.0005877105,-5.208474e-05,2,1
-0.0006363301,-3.279896e-05,2,1
-0.0006753879,-2.258885e-05,2,1
-0.0007102319,-2.388537e-05,2,1
-0.000740214,-3.377136e-05,2,1
-0.0007612825,-4.965376e-05,2,1
-0.0007684134,-6.877746e-05,2,1
-0.0007546378,-9.049421e-05,2,1
-0.0007086112,-0.0001107524,2,1
-0.0006176926,-0.0001243659,2,1
-0.0004711856,-0.0001300382,2,1
-0.0002703867,-0.0001284175,2,1
-3.879538e-05,-0.0001217728,2,1
0.0001793446,-0.0001144799,2,1
0.0003375204,-0.0001110765,2,1
0.0004130428,-0.0001152902,2,1
0.000426008,-0.0001235555,2,1
0.0004206599,-0.0001326312,2,1
0.0004412422,-0.0001383035,2,1
0.0005062304,-0.0001392759,2,1
0.0006130316,-0.0001337657,2,1
0.0007374978,-0.0001214487,2,1
0.0008600192,-0.0001037836,2,1
0.0009692514,-8.07703e-05,2,1
0.001068111,-5.354332e-05,2,1
0.001161623,-2.680255e-05,2,1
0.001242818,-1.196227e-06,2,1
0.001291924,2.311357e-05,2,1
0.0012822,4.418206e-05,2,1
0.001195009,6.427817e-05,2,1
0.001037319,8.567078e-05,2,1
0.0008397611,0.0001086841,2,1
0.0006344241,0.0001315353,2,1
0.0004478869,0.0001479039,2,1
0.0002952213,0.0001547106,2,1
0.0001812893,0.0001539003,2,1
0.000101067,0.0001464453,2,1
3.98063e-05,0.0001344524,2,1
-1.724069e-05,0.0001124116,2,1
-7.850138e-05,7.643307e-05,2,1
-0.000144462,3.380988e-05,2,1
-0.0002172293,-6.058186e-06,2,1
-0.0002989102,-3.604027e-05,2,1
-0.0003865875,-5.808115e-05,2,1
-0.0004713477,-7.623246e-05,2,1
-0.0005415219,-9.438378e-05,2,1
-0.0005869002,-0.0001206384,2,1
-0.000606186,-0.0001502963,2,1
-0.0006118583,-0.0001700683,2,1
-0.0006131548,-0.0001708786,2,1
-0.0006170443,-0.0001561307,2,1
-0.0006172064,-0.0001300382,2,1
-0.0006089411,-9.389759e-05,2,1
-0.0005932208,-4.965376e-05,2,1
-0.0005716661,-6.706447e-06,2,1
-0.0005424943,2.76514e-05,2,1
-0.0005091089,4.790957e-05,2,1
-0.0004784786,5.763349e-05,2,1
-0.0004611376,6.46023e-05,2,1
-0.0004614617,7.562274e-05,2,1
-0.0004781544,8.810177e-05,2,1
-0.0005052193,0.000101067,2,1
-0.0005345531,0.0001099806,2,1
-0.0005551354,0.0001083599,2,1
-0.0005608077,9.63671e-05,2,1
-0.0005548113,7.740546e-05,2,1
-0.0005447632,5.52025e-05,2,1
-0.0005368221,3.251336e-05,2,1
-0.0005347152,8.851824e-06,2,1
-0.0005399013,-2.307504e-05,2,1
-0.0005507597,-6.342931e-05,2,1
-0.0005543251,-0.0001018388,2,1
-0.0005348772,-0.0001334415,2,1
-0.0004838267,-0.0001553203,2,1
-0.000400201,-0.0001686097,2,1
-0.0002927517,-0.0001737958,2,1
-0.0001773612,-0.0001689338,2,1
-7.769106e-05,-0.0001600202,2,1
-1.270286e-05,-0.0001524032,2,1
8.851824e-06,-0.0001489998,2,1
-6.544382e-06,-0.0001499722,2,1
-3.312309e-05,-0.0001504584,2,1
-4.106429e-05,-0.0001464067,2,1
-1.010982e-05,-0.0001352242,2,1
5.228533e-05,-0.0001204763,2,1
0.0001175977,-0.0001075111,2,1
0.0001514693,-0.0001024871,2,1
0.000133318,-0.0001057284,2,1
6.444023e-05,-0.0001180453,2,1
-3.279896e-05,-0.0001336036,2,1
-0.0001208004,-0.0001472171,2,1
-0.00016942,-0.0001556445,2,1
-0.0001689338,-0.0001622891,2,1
-0.0001324691,-0.0001791439,2,1
-8.012204e-05,-0.0002100984,2,1
-2.291298e-05,-0.0002459149,2,1
3.526847e-05,-0.0002747625,2,1
9.555677e-05,-0.0002846485,2,1
0.0001610312,-0.0002739521,2,1
0.0002261814,-0.0002420253,2,1
0.0002848491,-0.0001937298,2,1
0.0003355756,-0.0001357104,2,1
0.0003819262,-7.704279e-05,2,1
0.0004276287,-2.323711e-05,2,1
0.0004715484,2.781346e-05,2,1
0.0005110924,7.691926e-05,2,1
0.0005465847,0.0001250527,2,1
0.0005811046,0.0001709172,2,1
0.0006146522,0.0002112714,2,1
0.0006436619,0.0002404432,2,1
0.0006616511,0.0002581083,2,1
0.0006551685,0.0002692908,2,1
0.0006209727,0.0002769079,2,1
0.0005725152,0.0002783665,2,1
0.0005276231,0.0002730183,2,1
0.0004966686,0.0002628082,2,1
0.0004764104,0.0002542187,2,1
0.0004516144,0.0002532463,2,1
0.0004039671,0.0002624841,2,1
0.0003252034,0.0002801492,2,1
0.0002214815,0.000299597,2,1
0.0001130598,0.0003159656,2,1
1.727922e-05,0.0003286068,2,1
-5.759496e-05,0.0003388169,2,1
-0.000112373,0.0003501615,2,1
-0.0001488377,0.0003600474,2,1
-0.0001682856,0.0003637749,2,1
-0.0001733096,0.0003555096,2,1
-0.0001665028,0.0003373583,2,1
-0.0001559686,0.0003162898,2,1
-0.0001436516,0.0002952213,2,1
-0.0001279313,0.000274639,2,1
-0.0001041077,0.0002558394,2,1
-7.120844e-05,0.0002407673,2,1
-3.344723e-05,0.0002286124,2,1
7.485573e-07,0.0002125679,2,1
2.376183e-05,0.0001850168,2,1
3.478228e-05,0.0001412592,2,1
3.413401e-05,8.567078e-05,2,1
2.376183e-05,3.18651e-05,2,1
6.420843e-06,-1.156841e-05,2,1
-1.756482e-05,-3.895745e-05,2,1
-4.835724e-05,-4.171256e-05,2,1
-8.417367e-05,-1.464765e-05,2,1
-0.0001225832,4.02925e-05,2,1
-0.0001648822,0.0001098185,2,1
-0.0002113949,0.0001736723,2,1
-0.0002650386,0.000217754,2,1
-0.0003196545,0.0002381743,2,1
-0.0003656811,0.0002378501,2,1
-0.0003893426,0.0002219677,2,1
-0.0003859393,0.0001910133,2,1
-0.000362926,0.000140773,2,1
-0.0003264613,6.751948e-05,2,1
-0.0002797865,-2.631635e-05,2,1
-0.0002237119,-0.0001327933,2,1
-0.0001645581,-0.0002374874,2,1
-0.0001110765,-0.0003314853,2,1
-7.201877e-05,-0.0004096008,2,1
-4.608832e-05,-0.0004659995,2,1
-2.210265e-05,-0.0004967919,2,1
9.66215e-06,-0.0005006815,2,1
4.515445e-05,-0.0004854474,2,1
7.059871e-05,-0.0004645409,2,1
7.57848e-05,-0.0004486585,2,1
6.508849e-05,-0.0004446069,2,1
5.94162e-05,-0.0004483344,2,1
7.870197e-05,-0.0004540067,2,1
0.0001336421,-0.0004557894,2,1
0.0002243987,-0.0004494688,2,1
0.0003371962,-0.0004360174,2,1
0.0004470765,-0.0004211074,2,1
0.0005263265,-0.0004108973,2,1
0.0005606844,-0.00039777,2,1
0.0005529052,-0.0003656811,2,1
0.0005156302,-0.0002997205,2,1
0.000458259,-0.0001989159,2,1
0.0003841952,-7.866345e-05,2,1
0.0002987867,3.413401e-05,2,1
0.0002190506,0.0001203528,2,1
0.0001751309,0.0001735102,2,1
0.0001874478,0.0001955511,2,1
0.000247412,0.0001971717,2,1
0.0003201794,0.000190365,2,1
0.0003734989,0.0001803169,2,1
0.0003885709,0.0001639484,2,1
0.0003626405,0.0001279698,2,1
0.0003080245,6.444023e-05,2,1
0.0002393087,-1.173047e-05,2,1
0.0001746447,-7.898758e-05,2,1
0.0001279698,-0.0001167488,2,1
9.993253e-05,-0.0001151281,2,1
8.323981e-05,-7.639453e-05,2,1
6.800567e-05,-1.464765e-05,2,1
4.904402e-05,5.260946e-05,2,1
3.154097e-05,0.0001128978,2,1
1.744129e-05,0.0001615174,2,1
7.879432e-06,0.0001961994,2,1
6.420843e-06,0.0002193747,2,1
1.760335e-05,0.0002329882,2,1
3.996837e-05,0.0002427121,2,1
7.52986e-05,0.0002543808,2,1
0.0001247285,0.0002725321,2,1
0.0001782101,0.0003000832,2,1
0.0002156472,0.0003334687,2,1
0.0002172679,0.0003662059,2,1
0.0001772377,0.0003882468,2,1
0.0001075496,0.0003992672,2,1
2.943412e-05,0.000403643,2,1
-4.787104e-05,0.0004062361,2,1
-0.0001253383,0.0004078567,2,1
-0.0002006986,0.000401212,2,1
-0.0002653627,0.0003806297,2,1
-0.0003141443,0.0003498373,2,1
-0.0003501228,0.0003114278,2,1
-0.0003779981,0.0002657254,2,1
-0.0004071698,0.0002085163,2,1
-0.0004379622,0.0001336421,2,1
-0.0004692408,3.98063e-05,2,1
-0.0005057055,-6.278104e-05,2,1
-0.0005533527,-0.0001592099,2,1
-0.0006120203,-0.000233922,2,1
-0.0006737672,-0.0002752487,2,1
-0.0007269246,-0.0002849726,2,1
-0.0007588515,-0.0002765452,2,1
-0.0007633893,-0.0002624455,2,1
-0.0007465345,-0.0002506147,2,1
-0.0007188214,-0.0002434839,2,1
-0.0006911082,-0.0002318152,2,1
-0.0006687432,-0.0002136638,2,1
-0.0006475127,-0.0001885437,2,1
-0.000623527,-0.0001548341,2,1
-0.0005906277,-0.0001154523,2,1
-0.0005381186,-7.266703e-05,2,1
-0.0004533584,-2.988179e-05,2,1
-0.0003387782,5.448452e-06,2,1
-0.0002206326,2.441009e-05,2,1
-0.0001308485,2.586868e-05,2,1
-8.498399e-05,1.403791e-05,2,1
-7.542214e-05,-2.978945e-06,2,1
-8.060823e-05,-1.918548e-05,2,1
-8.190475e-05,-3.344723e-05,2,1
-6.942573e-05,-4.592625e-05,2,1
-4.122636e-05,-5.986387e-05,2,1
1.257933e-05,-7.833932e-05,2,1
0.0001114392,-0.0001015147,2,1
0.0002641047,-0.0001253383,2,1
0.0004671726,-0.0001386276,2,1
0.0007073536,-0.0001339277,2,1
0.0009687652,-0.0001096179,2,1
0.001227584,-7.218083e-05,2,1
0.001452207,-3.21507e-05,2,1
0.001598876,3.017472e-06,2,1
0.0016227,3.056858e-05,2,1
0.001514116,4.985435e-05,2,1
0.0012963,6.330578e-05,2,1
0.001012361,7.221937e-05,2,1
0.0007159431,8.016057e-05,2,1
0.000450804,8.907416e-05,2,1
0.0002397949,0.0001009049,2,1
8.453633e-05,0.0001145184,2,1
-2.971972e-05,0.0001224596,2,1
-0.0001230693,0.0001229458,2,1
-0.0002143121,0.0001182459,2,1
-0.0003120375,0.000113546,2,1
-0.0004152731,0.0001088461,2,1
-0.000512026,0.0001026876,2,1
-0.0005881967,9.652917e-05,2,1
-0.000623527,9.231547e-05,2,1
-0.0005987309,8.956036e-05,2,1
-0.0005040849,8.761557e-05,2,1
-0.0003410472,8.74535e-05,2,1
-0.0001279313,9.328786e-05,2,1
9.280167e-05,0.000106091,2,1
0.0002628082,0.0001263492,2,1
0.0003399513,0.0001517934,2,1
0.0003148312,0.0001785342,2,1
0.0002179161,0.0002010613,2,1
0.0001017153,0.0002130541,2,1
1.257933e-05,0.0002140265,2,1
-3.26369e-05,0.0002073819,2,1
-4.868137e-05,0.0001963614,2,1
-6.39155e-05,0.0001838824,2,1
-0.0001018388,0.0001741585,2,1
-0.0001697442,0.000170431,2,1
-0.0002509389,0.000168,2,1
-0.0003190063,0.0001626518,2,1
-0.0003485022,0.0001522796,2,1
-0.0003250027,0.0001399627,2,1
-0.0002561249,0.0001305629,2,1
-0.0001724993,0.0001235941,2,1
-0.0001203142,0.0001090082,2,1
-0.0001324691,8.113296e-05,2,1
-0.0002117191,3.818565e-05,2,1
-0.0003298647,-1.25408e-05,2,1
-0.000449955,-6.326724e-05,2,1
-0.0005322842,-0.0001058904,2,1
-0.0005596732,-0.0001353863,2,1
-0.0005329325,-0.0001481895,2,1
-0.0004736166,-0.0001499722,2,1
-0.0004086284,-0.0001462447,2,1
-0.000358064,-0.0001361966,2,1
-0.0003246786,-0.0001190177,2,1
-0.0003015032,-9.486997e-05,2,1
-0.0002768693,-6.715681e-05,2,1
-0.0002473734,-3.960571e-05,2,1
-0.0002055606,-1.821308e-05,2,1
-0.0001468929,-6.220252e-06,2,1
-6.893953e-05,-3.858999e-07,2,1
2.732727e-05,1.002961e-07,2,1
0.0001304008,-6.382317e-06,2,1
0.0002286124,-2.0482e-05,2,1
0.0003096451,-3.652646e-05,2,1
0.0003722023,-5.192267e-05,2,1
0.0004143393,-6.342931e-05,2,1
0.0004300596,-7.412562e-05,2,1
0.0004156358,-8.935975e-05,2,1
0.0003746333,-0.0001110765,2,1
0.0003148312,-0.0001353863,2,1
0.0002551911,-0.0001561307,2,1
0.0002188885,-0.0001681235,2,1
0.0002057612,-0.0001695821,2,1
0.0001984683,-0.0001699062,2,1
0.0001835583,-0.000181737,2,1
0.0001558451,-0.0002128535,2,1
0.0001219734,-0.0002567732,2,1
9.426025e-05,-0.0002976137,2,1
7.448828e-05,-0.0003215994,2,1
5.909208e-05,-0.0003222476,2,1
4.693717e-05,-0.0003015032,2,1
3.624086e-05,-0.0002648765,2,1
2.522042e-05,-0.0002198223,2,1
1.371378e-05,-0.0001695821,2,1
4.47606e-06,-0.0001203142,2,1
-7.100305e-07,-7.493595e-05,2,1
3.503668e-06,-3.68506e-05,2,1
1.808955e-05,-3.789272e-06,2,1
4.158902e-05,2.716521e-05,2,1
6.573675e-05,5.374392e-05,2,1
7.837785e-05,7.254349e-05,2,1
7.756752e-05,7.886404e-05,2,1
7.286763e-05,6.849186e-05,2,1
7.319176e-05,4.661304e-05,2,1
7.967438e-05,2.262738e-05,2,1
8.956036e-05,-2.238346e-07,2,1
9.993253e-05,-2.404744e-05,2,1
0.000108522,-4.819517e-05,2,1
0.0001143563,-7.088431e-05,2,1
0.0001219734,-8.757704e-05,2,1
0.0001344524,-9.535618e-05,2,1
0.0001461212,-9.519411e-05,2,1
0.0001472556,-8.968389e-05,2,1
0.0001386662,-8.125649e-05,2,1
0.0001226217,-7.088431e-05,2,1
0.0001106288,-5.824322e-05,2,1
0.0001180839,-4.38194e-05,2,1
0.0001519555,-3.053005e-05,2,1
0.0002030061,-1.821308e-05,2,1
0.0002495189,-4.113403e-06,2,1
0.0002710735,2.052053e-05,2,1
0.0002600531,6.103686e-05,2,1
0.0002258573,0.0001154908,2,1
0.0001842065,0.0001809652,2,1
0.0001492004,0.0002613496,2,1
0.000121001,0.0003629646,2,1
9.328786e-05,0.0004713863,2,1
6.103686e-05,0.0005611706,2,1
1.825161e-05,0.0006112488,2,1
-2.923353e-05,0.0006156246,2,1
-6.974985e-05,0.0005804563,2,1
-9.308726e-05,0.0005174129,2,1
-9.859748e-05,0.0004368664,2,1
-9.940781e-05,0.0003469201,2,1
-0.0001126972,0.000247412,2,1
-0.0001452723,0.0001367214,2,1
-0.000191623,1.517237e-05,2,1
-0.0002386219,-0.0001083214,2,1
-0.0002734659,-0.0002198223,2,1
-0.0002953447,-0.0003044204,2,1
-0.0003115513,-0.0003527159,2,1
-0.0003275957,-0.0003647087,2,1
-0.0003410472,-0.0003434782,2,1
-0.0003522297,-0.0002987481,2,1
-0.000365357,-0.0002467252,2,1
-0.0003773498,-0.0002032917,2,1
-0.0003765395,-0.0001775233,2,1
-0.0003533641,-0.0001677994,2,1
-0.0003042584,-0.0001715269,2,1
-0.0002374874,-0.0001827094,2,1
-0.0001676373,-0.0001872472,2,1
-0.0001055663,-0.0001749302,2,1
-4.916756e-05,-0.0001452723,2,1
7.393236e-06,-0.0001094559,2,1
6.83298e-05,-7.509801e-05,2,1
0.0001312112,-4.462973e-05,2,1
0.0001864754,-1.691656e-05,2,1
0.0002231022,1.64689e-05,2,1
0.0002310434,5.974033e-05,2,1
0.0002075439,0.0001125736,2,1
0.0001564933,0.000168162,2,1
9.377406e-05,0.0002153231,2,1
4.142696e-05,0.0002470879,2,1
1.387585e-05,0.0002571359,2,1
2.133085e-05,0.0002433604,2,1
6.330578e-05,0.0002111094,2,1
0.000130887,0.0001637863,2,1
0.0002114335,0.0001075496,2,1
0.0002861456,5.082674e-05,2,1
0.0003331446,4.638125e-06,2,1
0.0003370341,-2.599222e-05,2,1
0.0002986247,-4.527799e-05,2,1
0.0002334744,-6.035007e-05,2,1
0.0001628139,-7.23429e-05,2,1
9.912221e-05,-8.044617e-05,2,1
4.693717e-05,-8.530812e-05,2,1
3.827799e-06,-8.838737e-05,2,1
-2.923353e-05,-9.422172e-05,2,1
-4.689865e-05,-0.0001057284,2,1
-4.268495e-05,-0.0001264727,2,1
-1.967167e-05,-0.0001506204,2,1
1.063454e-05,-0.000169258,2,1
3.462021e-05,-0.0001705545,2,1
4.45062e-05,-0.000152079,2,1
4.758544e-05,-0.0001186936,2,1
5.682316e-05,-7.979791e-05,2,1
7.157111e-05,-4.236082e-05,2,1
9.069481e-05,-1.027188e-05,2,1
0.0001150046,1.744129e-05,2,1
0.0001539003,3.60788e-05,2,1
0.0002174299,4.223728e-05,2,1
0.0002984626,3.802358e-05,2,1
0.000373985,2.959619e-05,2,1
0.0004221185,2.489629e-05,2,1
0.0004256839,2.441009e-05,2,1
0.0003856538,2.667901e-05,2,1
0.000319207,3.235129e-05,2,1
0.0002464396,4.402e-05,2,1
0.0001814514,6.265751e-05,2,1
0.0001325077,9.101894e-05,2,1
9.63671e-05,0.0001328318,2,1
6.265751e-05,0.0001842065,2,1
2.359977e-05,0.000234933,2,1
-2.291298e-05,0.0002713977,2,1
-7.104638e-05,0.0002874421,2,1
-0.0001156143,0.0002853353,2,1
-0.0001538618,0.0002720459,2,1
-0.0001870851,0.0002594049,2,1
-0.0002183637,0.0002537325,2,1
-0.000248832,0.0002550291,2,1
-0.0002841623,0.0002571359,2,1
-0.00032322,0.0002517878,2,1
-0.0003515814,0.0002386605,2,1
-0.0003416954,0.0002243987,2,1
-0.0002728177,0.0002106232,2,1
-0.0001425172,0.0001947408,2,1
2.716521e-05,0.000173024,2,1
0.000200413,0.0001435281,2,1
0.000339141,0.0001054428,2,1
0.0004182289,6.362991e-05,2,1
0.0004355699,2.457216e-05,2,1
0.0004021844,-4.761664e-06,2,1
0.0003290929,-1.837515e-05,2,1
0.0002213195,-1.724069e-05,2,1
8.907416e-05,-9.137427e-06,2,1
-4.252288e-05,-5.479652e-07,2,1
-0.0001486757,6.582909e-06,2,1
-0.0002154466,1.290346e-05,2,1
-0.0002472114,2.01964e-05,2,1
-0.0002580697,3.073064e-05,2,1
-0.0002616352,4.272347e-05,2,1
-0.0002669833,5.260946e-05,2,1
-0.0002793003,5.406805e-05,2,1
-0.0003006929,3.93201e-05,2,1
-0.0003334301,6.420843e-06,2,1
-0.0003791325,-3.733679e-05,2,1
-0.0004358554,-8.287715e-05,2,1
-0.0004974402,-0.000119666,2,1
-0.00055157,-0.0001449482,2,1
-0.0005812279,-0.0001587237,2,1
-0.0005582146,-0.0001613168,2,1
-0.0004625961,-0.0001566169,2,1
-0.0002942103,-0.0001481895,2,1
-6.974985e-05,-0.0001396,2,1
0.0001692965,-0.0001339277,2,1
0.0003681507,-0.000134576,2,1
0.0004811103,-0.000144462,2,1
0.0004900239,-0.0001647201,2,1
0.0004120704,-0.0001874093,2,1
0.0002850112,-0.0002083157,2,1
0.0001477418,-0.0002282497,2,1
2.992031e-05,-0.0002454286,2,1
-5.143648e-05,-0.0002583939,2,1
-9.033215e-05,-0.0002695764,2,1
-9.000802e-05,-0.0002802727,2,1
-6.731888e-05,-0.0002869174,2,1
-4.641245e-05,-0.0002817312,2,1
-4.527799e-05,-0.0002645523,2,1
-6.44017e-05,-0.0002391081,2,1
-9.422172e-05,-0.0002086398,2,1
-0.0001230693,-0.0001747682,2,1
-0.0001433275,-0.000134738,2,1
-0.0001567789,-8.644259e-05,2,1
-0.0001665028,-3.344723e-05,2,1
-0.00016942,1.419998e-05,2,1
-0.0001632615,4.693717e-05,2,1
-0.0001477033,6.541262e-05,2,1
-0.0001261486,7.270556e-05,2,1
-0.0001092938,6.768154e-05,2,1
-0.0001079973,5.050261e-05,2,1
-0.0001238797,2.992031e-05,2,1
-0.0001423551,1.792748e-05,2,1
-0.0001383035,2.295151e-05,2,1
-8.498399e-05,4.871989e-05,2,1
2.943412e-05,9.361199e-05,2,1
0.0001832341,0.0001440143,2,1
0.0003305515,0.0001872858,2,1
0.0004290873,0.0002166196,2,1
0.0004569625,0.000232502,2,1
0.0004157979,0.0002380122,2,1
0.0003279585,0.0002376881,2,1
0.0002196988,0.0002360674,2,1
0.0001188942,0.0002337985,2,1
3.640293e-05,0.0002323399,2,1
-2.988179e-05,0.0002326641,2,1
-8.07703e-05,0.0002360674,2,1
-0.0001162626,0.0002376881,2,1
-0.0001378173,0.0002321778,2,1
-0.0001452723,0.0002231022,2,1
-0.0001352242,0.0002149989,2,1
-0.0001089697,0.0002093267,2,1
-7.850138e-05,0.0002054371,2,1
-5.613637e-05,0.00019782,2,1
-5.078821e-05,0.0001837203,2,1
-6.48879e-05,0.0001667035,2,1
-9.081835e-05,0.0001461212,2,1
-0.0001193418,0.0001177597,2,1
-0.0001459206,7.951231e-05,2,1
-0.0001695821,3.397195e-05,2,1
-0.0001859507,-1.221667e-05,2,1
-0.0001853024,-4.673658e-05,2,1
-0.0001616409,-5.69467e-05,2,1
-0.0001243659,-4.05781e-05,2,1
-9.000802e-05,-4.761664e-06,2,1
-7.704279e-05,4.35338e-05,2,1
-9.2439e-05,9.344993e-05,2,1
-0.0001263107,0.0001328318,2,1
-0.0001632615,0.0001603829,2,1
-0.00018433,0.0001808031,2,1
-0.0001752544,0.00019782,2,1
-0.0001334415,0.0002041406,2,1
-7.120844e-05,0.0001939304,2,1
-1.059602e-05,0.0001676758,2,1
3.202716e-05,0.0001320215,2,1
5.471631e-05,9.831188e-05,2,1
6.962632e-05,7.400208e-05,2,1
9.085688e-05,6.071273e-05,2,1
0.0001260251,5.179914e-05,2,1
0.0001697827,4.045456e-05,2,1
0.0002122438,2.230325e-05,2,1
0.000242388,-3.14101e-06,2,1
0.0002513016,-3.571614e-05,2,1
0.0002336365,-7.428769e-05,2,1
0.0001884202,-0.0001211246,2,1
0.0001239182,-0.000179306,2,1
5.374392e-05,-0.0002444563,2,1
-1.724069e-05,-0.0003102548,2,1
-8.903562e-05,-0.0003720016,2,1
-0.0001541859,-0.0004233763,2,1
-0.0002032917,-0.0004614617,2,1
-0.0002232257,-0.0004877163,2,1
-0.0002018331,-0.0005037607,2,1
-0.0001397621,-0.000512026,2,1
-5.030202e-05,-0.0005173742,2,1
4.110282e-05,-0.0005202913,2,1
0.0001052807,-0.0005206155,2,1
0.0001248906,-0.0005129984,2,1
0.0001004187,-0.0004880404,2,1
4.82337e-05,-0.0004405553,2,1
-7.840905e-06,-0.0003760533,2,1
-4.819517e-05,-0.0003018274,2,1
-6.148453e-05,-0.0002272773,2,1
-4.317115e-05,-0.0001609926,2,1
2.207145e-06,-0.0001083214,2,1
6.087479e-05,-7.104638e-05,2,1
0.0001193804,-4.981582e-05,2,1
0.0001701068,-4.203669e-05,2,1
0.0002114335,-4.398147e-05,2,1
0.0002407673,-4.511593e-05,2,1
0.0002527602,-3.668853e-05,2,1
0.0002490327,-1.513384e-05,2,1
0.0002414156,1.938607e-05,2,1
0.0002409294,6.281957e-05,2,1
0.0002564877,0.0001091703,2,1
0.0002916559,0.0001540623,2,1
0.0003418961,0.000192796,2,1
0.0003974845,0.0002261814,2,1
0.0004474007,0.0002581083,2,1
0.0004841895,0.00029198,2,1
0.0005073649,0.0003274723,2,1
0.0005182233,0.0003608578,2,1
0.0005178991,0.0003884089,2,1
0.0005031512,0.0004049396,2,1
0.0004678209,0.0004070464,2,1
0.000410936,0.0003965121,2,1
0.0003378445,0.000376416,2,1
0.0002545429,0.0003551855,2,1
0.0001642725,0.0003373583,2,1
6.687121e-05,0.0003263378,2,1
-3.328516e-05,0.0003222862,2,1
-0.0001258245,0.0003214759,2,1
-0.0001994021,0.0003164518,2,1
-0.0002468872,0.000304297,2,1
-0.0002690902,0.0002814457,2,1
-0.0002747625,0.0002506533,2,1
-0.0002828657,0.0002203471,2,1
-0.0003063652,0.0001926339,2,1
-0.0003463953,0.0001650828,2,1
-0.0003893426,0.0001341283,2,1
-0.0004230522,9.588091e-05,2,1
-0.0004376381,5.001642e-05,2,1
-0.0004248349,-1.034161e-06,2,1
-0.0003763774,-5.386745e-05,2,1
-0.0002966413,-0.0001020008,2,1
-0.0001961608,-0.000137007,2,1
-9.29252e-05,-0.0001507825,2,1
-1.520357e-06,-0.0001389517,2,1
7.140904e-05,-0.0001086455,2,1
0.0001378558,-7.007399e-05,2,1
0.0002260194,-3.231277e-05,2,1
0.0003642611,-5.479652e-07,2,1
0.0005632775,2.165498e-05,2,1
0.0008089686,3.202716e-05,2,1
0.001061143,2.846173e-05,2,1
0.001256432,1.825161e-05,2,1
0.001339895,8.689758e-06,2,1
0.001284793,5.772582e-06,2,1
0.001104252,9.500085e-06,2,1
0.0008430023,1.97102e-05,2,1
0.0005600362,3.429608e-05,2,1
0.0003099692,4.499239e-05,2,1
0.0001185701,4.434413e-05,2,1
-1.983374e-05,3.640293e-05,2,1
-0.0001274451,3.170304e-05,2,1
-0.000223874,4.110282e-05,2,1
-0.000310903,6.314371e-05,2,1
-0.0003640605,8.696731e-05,2,1
-0.0003510952,0.0001031738,2,1
-0.0002627696,0.0001052807,2,1
-0.0001212866,8.631905e-05,2,1
2.862379e-05,4.661304e-05,2,1
0.0001347766,-1.043395e-05,2,1
0.0001620036,-8.012204e-05,2,1
0.0001044704,-0.0001535376,2,1
-2.210265e-05,-0.0002211189,2,1
-0.0001838438,-0.0002788141,2,1
-0.0003462333,-0.0003241924,2,1
-0.000482206,-0.0003536883,2,1
-0.000573935,-0.0003609812,2,1
-0.000621258,-0.0003454229,2,1
-0.0006319543,-0.000315765,2,1
-0.0006222305,-0.0002828657,2,1
-0.0006089411,-0.0002543422,2,1
-0.0006060239,-0.0002310048,2,1
-0.0006188271,-0.0002105846,2,1
-0.0006426507,-0.0001908126,2,1
-0.0006723086,-0.0001729855,2,1
-0.0006977529,-0.0001575893,2,1
-0.0007058561,-0.0001418689,2,1
-0.0006859221,-0.0001208004,2,1
-0.0006356818,-9.017008e-05,2,1
-0.0005625904,-5.305713e-05,2,1
-0.0004731304,-1.62683e-05,2,1
-0.0003707051,1.468618e-05,2,1
-0.0002603387,4.175109e-05,2,1
-0.0001556445,6.897806e-05,2,1
-7.639453e-05,0.0001002567,2,1
-3.668853e-05,0.0001380179,2,1
-3.409549e-05,0.0001842065,2,1
-5.59743e-05,0.0002380122,2,1
-8.579432e-05,0.0002923041,2,1
-0.0001102662,0.0003349273,2,1
-0.0001204763,0.0003550234,2,1
-0.0001058904,0.0003495132,2,1
-5.986387e-05,0.0003261758,2,1
4.80019e-06,0.000297004,2,1
6.103686e-05,0.0002678322,2,1
8.631905e-05,0.0002367157,2,1
6.670914e-05,0.0002021958,2,1
8.689758e-06,0.0001668655,2,1
-6.342931e-05,0.0001323456,2,1
-0.0001264727,9.766362e-05,2,1
-0.0001700683,6.379197e-05,2,1
-0.0001969711,4.013043e-05,2,1
-0.000219012,3.235129e-05,2,1
-0.000246401,3.721326e-05,2,1
-0.0002703867,4.142696e-05,2,1
-0.0002697385,3.705119e-05,2,1
-0.0002258187,2.230325e-05,2,1
-0.0001360346,5.448452e-06,2,1
-2.712668e-05,-1.844488e-06,2,1
6.606088e-05,7.879432e-06,2,1
0.0001179218,3.299956e-05,2,1
0.0001244044,6.379197e-05,2,1
0.0001044704,8.810177e-05,2,1
8.145709e-05,9.750156e-05,2,1
6.751948e-05,9.555677e-05,2,1
6.217132e-05,8.46984e-05,2,1
6.184718e-05,6.622294e-05,2,1
5.747142e-05,4.223728e-05,2,1
4.45062e-05,1.744129e-05,2,1
2.473423e-05,-7.840905e-06,2,1
5.86492e-07,-3.474375e-05,2,1
-2.583016e-05,-6.148453e-05,2,1
-4.90055e-05,-8.644259e-05,2,1
-6.731888e-05,-0.0001083214,2,1
-7.833932e-05,-0.0001258245,2,1
-8.417367e-05,-0.0001360346,2,1
-8.919769e-05,-0.0001355484,2,1
-9.535618e-05,-0.0001227452,2,1
-0.0001041077,-9.956988e-05,2,1
-0.0001067007,-6.958779e-05,2,1
-9.503204e-05,-3.604027e-05,2,1
-6.278104e-05,-6.058186e-06,2,1
-1.886135e-05,9.175954e-06,2,1
1.54965e-05,-2.238346e-07,2,1
1.938607e-05,-3.474375e-05,2,1
-1.108221e-05,-8.417367e-05,2,1
-6.229485e-05,-0.0001342519,2,1
-0.0001083214,-0.0001739578,2,1
-0.0001267968,-0.0001971332,2,1
-0.0001036215,-0.0002060468,2,1
-3.652646e-05,-0.0002094502,2,1
5.94162e-05,-0.0002094502,2,1
0.0001658931,-0.0002088019,2,1
0.0002636185,-0.0002079916,2,1
0.0003412479,-0.0002021572,2,1
0.0003825745,-0.000189192,2,1
0.0003778746,-0.0001716889,2,1
0.0003269861,-0.0001512687,2,1
0.0002444948,-0.0001305243,2,1
0.0001589243,-0.0001112386,2,1
9.31258e-05,-9.697683e-05,2,1
5.844381e-05,-9.065628e-05,2,1
5.374392e-05,-9.373552e-05,2,1
7.286763e-05,-0.0001091317,2,1
0.0001070634,-0.0001344139,2,1
0.0001454729,-0.000159534,2,1
0.0001795066,-0.0001674752,2,1
0.000205275,-0.0001504584,2,1
0.0002271538,-0.0001110765,2,1
0.0002527602,-5.824322e-05,2,1
0.0002901973,-8.720959e-07,2,1
0.0003435168,5.406805e-05,2,1
0.0004015361,0.0001062531,2,1
0.0004496696,0.0001592484,2,1
0.0004728449,0.0002169437,2,1
0.0004649037,0.0002767458,2,1
0.0004321665,0.0003336308,2,1
0.0003890571,0.0003827366,2,1
0.0003498373,0.0004198496,2,1
0.0003218,0.0004417284,2,1
0.0003099692,0.0004512903,2,1
0.0003179104,0.0004533971,2,1
0.0003438409,0.0004572867,2,1
0.0003770643,0.0004689553,2,1
0.0004016982,0.0004817585,2,1
0.0004086671,0.0004838654,2,1
0.0003950536,0.0004709002,2,1
0.0003602095,0.0004470765,2,1
0.0003007315,0.0004261701,2,1
0.0002133783,0.0004162841,2,1
0.0001002567,0.0004166082,2,1
-2.826114e-05,0.0004208219,2,1
-0.0001501342,0.0004146635,2,1
-0.0002428356,0.0003840331,2,1
-0.0002903207,0.000321638,2,1
-0.000288538,0.0002318537,2,1
-0.0002499665,0.0001250527,2,1
-0.0001964849,1.209313e-05,2,1
-0.0001472171,-0.0001041077,2,1
-0.000117235,-0.0002194982,2,1
-0.000119666,-0.0003301888,2,1
-0.0001571031,-0.000432452,2,1
-0.0002182017,-0.0005230465,2,1
-0.0002812451,-0.0005990551,2,1
-0.0003250027,-0.0006536711,2,1
-0.000335537,-0.0006813843,2,1
-0.0003074997,-0.0006763602,2,1
-0.0002476975,-0.0006376266,2,1
-0.0001713648,-0.0005695592,2,1
-9.827335e-05,-0.0004880404,2,1
-4.414354e-05,-0.0004087905,2,1
-1.724069e-05,-0.0003407231,2,1
-1.545797e-05,-0.0002854588,2,1
-2.84232e-05,-0.0002392702,2,1
-4.025397e-05,-0.000199078,2,1
-3.555408e-05,-0.0001658546,2,1
-7.354709e-06,-0.0001381414,2,1
4.061663e-05,-0.0001109144,2,1
9.782569e-05,-8.222889e-05,2,1
0.0001547106,-5.629844e-05,2,1
0.0002025199,-3.506788e-05,2,1
0.0002281262,-1.594417e-05,2,1
0.0002232643,2.207145e-06,2,1
0.0001942546,1.808955e-05,2,1
0.0001598967,3.218923e-05,2,1
0.000148228,4.304761e-05,2,1
0.0001791825,4.82337e-05,2,1
0.0002545429,4.742337e-05,2,1
0.0003504856,4.013043e-05,2,1
0.0004242253,2.716521e-05,2,1
0.0004397836,9.338019e-06,2,1
0.0003726885,-1.62683e-05,2,1
0.0002218057,-5.386745e-05,2,1
1.517237e-05,-0.0001028112,2,1
-0.0002112329,-0.0001572651,2,1
-0.0004212695,-0.0002135018,2,1
-0.0005849554,-0.0002645523,2,1
-0.0006813843,-0.0003057169,2,1
-0.000698077,-0.0003374817,2,1
-0.0006462161,-0.0003533641,2,1
-0.0005630766,-0.0003434782,2,1
-0.0004857715,-0.0003037722,2,1
-0.0004378002,-0.0002358668,2,1
-0.0004266177,-0.0001481895,2,1
-0.0004426621,-5.2733e-05,2,1
-0.0004624341,3.786152e-05,2,1
-0.0004637306,0.0001140322,2,1
-0.0004290486,0.0001764274,2,1
-0.0003485022,0.0002282883,2,1
-0.000216419,0.0002738286,2,1
-3.117831e-05,0.0003145071,2,1
0.0002021958,0.0003512959,2,1
0.0004747897,0.0003853296,2,1
0.0007736384,0.0004200116,2,1
0.001080915,0.0004616624,2,1
0.001359667,0.0005162785,2,1
0.001572946,0.0005858046,2,1
0.001692874,0.0006569512,2,1
0.001710378,0.000710757,2,1
0.001636151,0.0007347427,2,1
0.001488672,0.0007219395,2,1
0.001291276,0.0006770474,2,1
0.001068435,0.000609304,2,1
0.0008506195,0.0005248679,2,1
0.0006763991,0.0004292493,2,1
0.0005700842,0.0003282826,2,1
0.0005131993,0.0002308813,2,1
0.0004546936,0.0001454729,2,1
0.0003472443,8.064677e-05,2,1
0.0001712413,3.964424e-05,2,1
-4.884343e-05,1.857574e-05,2,1
-0.0002632558,1.112074e-05,2,1
-0.0004243487,1.306552e-05,2,1
-0.0005078124,1.792748e-05,2,1
-0.0005186707,2.278944e-05,2,1
-0.000479613,2.603075e-05,2,1
-0.0004190006,2.700314e-05,2,1
-0.0003650328,2.149292e-05,2,1
-0.0003348887,6.096713e-06,2,1
-0.0003413713,-2.113026e-05,2,1
-0.0003922598,-5.840528e-05,2,1
-0.0004841508,-9.778715e-05,2,1
-0.0006003517,-0.0001292278,2,1
-0.0007125008,-0.0001460826,2,1
-0.0007949921,-0.0001512687,2,1
-0.0008384255,-0.0001522411,2,1
-0.0008497701,-0.000159372,2,1
-0.0008515528,-0.0001741199,2,1
-0.0008572251,-0.0001908126,2,1
-0.0008701903,-0.0002028055,2,1
-0.0008823453,-0.0002037779,2,1
-0.0008860728,-0.0001912988,2,1
-0.0008823453,-0.0001661787,2,1
-0.0008692179,-0.0001289037,2,1
-0.0008471771,-7.979791e-05,2,1
-0.0008168708,-2.599222e-05,2,1
-0.000785106,2.149292e-05,2,1
-0.000755124,5.471631e-05,2,1
-0.0007285453,6.995045e-05,2,1
-0.0007034251,6.83298e-05,2,1
-0.0006752257,5.050261e-05,2,1
-0.0006478368,1.776542e-05,2,1
-0.0006316302,-2.242678e-05,2,1
-0.0006342233,-6.618442e-05,2,1
-0.0006499436,-0.0001089697,2,1
-0.0006666363,-0.0001473791,2,1
-0.0006714982,-0.0001783336,2,1
-0.0006580469,-0.0002026434,2,1
-0.0006272545,-0.0002297083,2,1
-0.0005779866,-0.0002603387,2,1
-0.0005060296,-0.0002896725,2,1
-0.0004117076,-0.0003066893,2,1
-0.0003002067,-0.0003099306,2,1
-0.0001818991,-0.0002982619,2,1
-7.039812e-05,-0.0002737901,2,1
2.327564e-05,-0.0002446183,2,1
9.458438e-05,-0.0002183637,2,1
0.0001448246,-0.0001934057,2,1
0.0001783722,-0.000166827,2,1
0.0001989545,-0.0001373311,2,1
0.0002098128,-0.0001055663,2,1
0.0002169437,-7.704279e-05,2,1
0.0002279642,-5.532604e-05,2,1
0.0002438466,-4.074016e-05,2,1
0.0002632944,-2.745081e-05,2,1
0.0002890628,-1.173047e-05,2,1
0.0003190449,6.582909e-06,2,1
0.000351458,2.133085e-05,2,1
0.000388733,3.202716e-05,2,1
0.0004289252,4.272347e-05,2,1
0.0004684692,5.730935e-05,2,1
0.0004969927,7.562274e-05,2,1
0.0005000719,9.620504e-05,2,1
0.0004733311,0.0001143563,2,1
0.0004248736,0.0001273216,2,1
0.0003723644,0.0001367214,2,1
0.0003328204,0.0001503349,2,1
0.0003188828,0.0001683241,2,1
0.0003290929,0.0001838824,2,1
0.0003569682,0.0001923098,2,1
0.0003866261,0.0001923098,2,1
0.0004029947,0.0001871237,2,1
0.0003989431,0.0001832341,2,1
0.0003793332,0.0001845306,2,1
0.0003584268,0.0001850168,2,1
0.0003495132,0.0001820997,2,1
0.0003577785,0.0001775618,2,1
0.0003827366,0.0001710792,2,1
0.0004187151,0.0001670276,2,1
0.0004558281,0.0001650828,2,1
0.0004799758,0.0001663793,2,1
0.0004785172,0.0001689724,2,1
0.0004465904,0.000173024,2,1
0.0003901916,0.0001809652,2,1
0.0003256896,0.0001889064,2,1
0.0002767458,0.000192796,2,1
0.0002563256,0.0001921477,2,1
0.0002594049,0.0001856651,2,1
0.0002645909,0.0001694586,2,1
0.000250005,0.0001438522,2,1
0.0002049509,0.0001169494,2,1
0.0001341283,9.426025e-05,2,1
5.61749e-05,7.448828e-05,2,1
-7.516774e-06,5.487838e-05,2,1
-4.868137e-05,3.640293e-05,2,1
-6.958779e-05,1.954813e-05,2,1
-7.931171e-05,5.86492e-07,2,1
-7.963584e-05,-1.610624e-05,2,1
-7.412562e-05,-3.117831e-05,2,1
-6.569822e-05,-4.268495e-05,2,1
-5.775702e-05,-5.159854e-05,2,1
-5.32192e-05,-5.759496e-05,2,1
-5.483985e-05,-6.132246e-05,2,1
-6.44017e-05,-6.229485e-05,2,1
-8.271508e-05,-6.0188e-05,2,1
-0.0001107524,-5.905355e-05,2,1
-0.0001439758,-6.002594e-05,2,1
-0.0001721751,-6.035007e-05,2,1
-0.0001846542,-6.164659e-05,2,1
-0.0001715269,-6.715681e-05,2,1
-0.0001256624,-7.963584e-05,2,1
-4.706071e-05,-9.762509e-05,2,1
5.390598e-05,-0.0001167488,2,1
0.0001590864,-0.0001339277,2,1
0.0002456293,-0.0001504584,2,1
0.0003021901,-0.0001663408,2,1
0.0003276344,-0.0001831956,2,1
0.0003303894,-0.0002008607,2,1
0.0003209897,-0.0002175534,2,1
0.0003046211,-0.0002287359,2,1
0.0002773941,-0.0002324634,2,1
0.0002365536,-0.000231491,2,1
0.000180479,-0.0002248464,2,1
0.0001096565,-0.0002105846,2,1
2.230325e-05,-0.0001911368,2,1
-7.639453e-05,-0.0001721751,2,1
-0.0001773612,-0.0001558065,2,1
-0.0002746004,-0.0001447861,2,1
-0.0003634122,-0.0001387897,2,1
-0.0004394208,-0.0001374932,2,1
-0.0004972781,-0.0001374932,2,1
-0.0005343911,-0.0001392759,2,1
-0.0005462218,-0.0001442999,2,1
-0.0005303394,-0.0001475412,2,1
-0.0004856094,-0.0001460826,2,1
-0.0004202971,-0.0001389517,2,1
-0.0003403989,-0.0001242038,2,1
-0.0002486699,-0.0001021629,2,1
-0.0001480274,-7.201877e-05,2,1
-4.932962e-05,-3.782299e-05,2,1
3.672706e-05,-3.14101e-06,2,1
0.0001046324,2.667901e-05,2,1
0.0001526038,4.758544e-05,2,1
0.0001775618,5.893001e-05,2,1
0.0001843686,6.395404e-05,2,1
0.0001846927,6.525056e-05,2,1
0.0001859892,6.508849e-05,2,1
0.0001856651,6.768154e-05,2,1
0.0001743205,7.594687e-05,2,1
0.0001441764,8.956036e-05,2,1
0.0001022015,0.0001072255,2,1
7.108491e-05,0.0001295905,2,1
6.946425e-05,0.0001548727,2,1
9.750156e-05,0.0001798307,2,1
0.0001514693,0.0002021958,2,1
0.0002360674,0.0002190506,2,1
0.0003704196,0.0002282883,2,1
0.0005702463,0.0002302331,2,1
0.0008269579,0.0002289366,2,1
0.001099714,0.0002333123,2,1
0.001322554,0.0002553532,2,1
0.001434866,0.0003008936,2,1
0.001414446,0.0003636129,2,1
0.001285603,0.0004300596,2,1
0.001104252,0.0004851619,2,1
0.0009222524,0.000515144,2,1
0.0007574318,0.0005115786,2,1
0.0006012007,0.0004749518,2,1
0.0004414042,0.0004151496,2,1
0.0002751252,0.0003433547,2,1
0.0001182459,0.0002684805,2,1
5.448452e-06,0.0001976579,2,1
-2.518189e-05,0.000138342,2,1
4.304761e-05,9.020862e-05,2,1
0.0001906891,4.871989e-05,2,1
0.0003686369,8.527692e-06,2,1
0.0005153061,-3.069211e-05,2,1
0.0005747841,-6.715681e-05,2,1
0.0005166026,-0.0001007043,2,1
0.0003475684,-0.0001350622,2,1
0.000108522,-0.000174282,2,1
-0.000144624,-0.0002146363,2,1
-0.0003702189,-0.000246401,2,1
-0.000549301,-0.000256287,2,1
-0.0006833291,-0.0002342462,2,1
-0.0007838095,-0.0001859507,2,1
-0.0008698662,-0.0001263107,2,1
-0.000951223,-6.602235e-05,2,1
-0.001030473,-1.173047e-05,2,1
-0.001110371,3.380988e-05,2,1
-0.001195942,7.497447e-05,2,1
-0.00128216,0.0001163011,2,1
-0.001356224,0.0001595726,2,1
-0.00140614,0.0001947408,2,1
-0.00142024,0.0002073819,2,1
-0.00139042,0.0001902029,2,1
-0.001312629,0.0001440143,2,1
-0.001192214,7.837785e-05,2,1
-0.00104911,4.80019e-06,2,1
-0.000909248,-6.667062e-05,2,1
-0.0007915886,-0.0001316588,2,1
-0.0007048837,-0.0001904885,2,1
-0.0006470265,-0.0002457528,2,1
-0.0006082929,-0.0003015032,2,1
-0.0005771763,-0.0003544986,2,1
-0.000544115,-0.0003980942,2,1
-0.0005021401,-0.0004290486,2,1
-0.0004395829,-0.0004535205,2,1
-0.000350447,-0.0004788027,2,1
-0.0002408908,-0.0005141329,2,1
-0.0001225832,-0.0005625904,2,1
-1.221667e-05,-0.0006194753,2,1
8.016057e-05,-0.0006744154,2,1
0.0001540623,-0.0007219006,2,1
0.0002091646,-0.0007567446,2,1
0.0002495189,-0.0007688995,2,1
0.0002882525,-0.0007535033,2,1
0.000336548,-0.0007032631,2,1
0.0003991052,-0.0006116962,2,1
0.0004697657,-0.0004773441,2,1
0.0005439916,-0.0003105789,2,1
0.0006185417,-0.0001363587,2,1
0.0006825576,1.54965e-05,2,1
0.0007225877,0.000128456,2,1
0.0007287462,0.0001987924,2,1
0.000701033,0.0002401191,2,1
0.0006494962,0.0002639427,2,1
0.0005762426,0.0002827423,2,1
0.0004762483,0.000304297,2,1
0.0003452995,0.0003286068,2,1
0.0001949028,0.0003558337,2,1
4.985435e-05,0.0003880847,2,1
-6.229485e-05,0.0004273046,2,1
-0.0001280934,0.0004684692,2,1
-0.0001501342,0.0004994237,2,1
-0.0001384655,0.0005063924,2,1
-0.0001057284,0.000482893,2,1
-6.748094e-05,0.0004303838,2,1
-3.652646e-05,0.0003644232,2,1
-2.372331e-05,0.0003036487,2,1
-3.004385e-05,0.0002642668,2,1
-5.062615e-05,0.0002532463,2,1
-7.104638e-05,0.0002655633,2,1
-8.352541e-05,0.0002911697,2,1
-9.049421e-05,0.0003182346,2,1
-9.568031e-05,0.0003334687,2,1
-9.892161e-05,0.0003289309,2,1
-9.730096e-05,0.0003046211,2,1
-9.308726e-05,0.0002676702,2,1
-9.000802e-05,0.0002261814,2,1
-8.790117e-05,0.0001880961,2,1
-8.433573e-05,0.0001576278,2,1
-7.65566e-05,0.0001365593,2,1
-5.905355e-05,0.0001299146,2,1
-3.004385e-05,0.0001406109,2,1
7.393236e-06,0.000165569,2,1
4.466826e-05,0.0001942546,2,1
6.589881e-05,0.0002167816,2,1
5.471631e-05,0.0002256952,2,1
5.124321e-06,0.0002231022,2,1
-7.55842e-05,0.00021273,2,1
-0.0001647201,0.0001965235,2,1
-0.0002426735,0.0001739964,2,1
-0.0003021515,0.0001451488,2,1
-0.0003408851,0.0001107909,2,1
-0.0003588744,7.351589e-05,2,1
-0.0003627639,3.478228e-05,2,1
-0.0003561192,-2.238346e-07,2,1
-0.0003369955,-2.712668e-05,2,1
-0.0003018274,-4.641245e-05,2,1
-0.0002494803,-6.164659e-05,2,1
-0.000181737,-7.201877e-05,2,1
-0.0001036215,-7.769106e-05,2,1
-2.955766e-05,-7.817725e-05,2,1
1.825161e-05,-7.380149e-05,2,1
2.829966e-05,-6.586029e-05,2,1
1.079661e-05,-5.419158e-05,2,1
-2.492749e-06,-3.782299e-05,2,1
1.744129e-05,-1.967167e-05,2,1
7.481241e-05,-1.844488e-06,2,1
0.0001540623,1.290346e-05,2,1
0.0002402811,2.408596e-05,2,1
0.0003289309,3.089271e-05,2,1
0.0004208219,3.624086e-05,2,1
0.0005086614,4.320967e-05,2,1
0.0005738117,5.260946e-05,2,1
0.0005989318,6.46023e-05,2,1
0.0005783495,7.691926e-05,2,1
0.0005264886,8.696731e-05,2,1
0.0004726828,9.442231e-05,2,1
0.0004530729,9.53947e-05,2,1
0.0004960203,8.664318e-05,2,1
0.0005997422,6.687121e-05,2,1
0.0007342565,3.753739e-05,2,1
0.0008564538,3.179537e-06,2,1
0.0009298695,-3.069211e-05,2,1
0.0009441312,-5.889148e-05,2,1
0.000916256,-8.02841e-05,2,1
0.0008739569,-9.746302e-05,2,1
0.0008392748,-0.0001109144,2,1
0.0008135065,-0.0001162626,2,1
0.0007817416,-0.0001112386,2,1
0.0007274497,-9.827335e-05,2,1
0.0006481997,-8.222889e-05,2,1
0.0005519328,-6.310517e-05,2,1
0.0004522626,-4.171256e-05,2,1
0.0003605336,-1.756482e-05,2,1
0.0002806354,6.258778e-06,2,1
0.0002132162,2.570662e-05,2,1
0.0001568175,3.753739e-05,2,1
0.0001070634,4.239934e-05,2,1
5.341979e-05,4.272347e-05,2,1
-1.707863e-05,3.93201e-05,2,1
-0.0001105903,3.283749e-05,2,1
-0.000219012,2.603075e-05,2,1
-0.0003274337,2.197911e-05,2,1
-0.0004214316,2.538249e-05,2,1
-0.0004891749,3.478228e-05,2,1
-0.0005317981,4.72613e-05,2,1
-0.0005609698,5.487838e-05,2,1
-0.000583983,5.52025e-05,2,1
-0.0006008379,4.580272e-05,2,1
-0.0006044033,2.959619e-05,2,1
-0.0005877105,1.160693e-05,2,1
-0.0005470322,-7.100305e-07,2,1
-0.000487068,-4.923729e-06,2,1
-0.0004193247,1.072688e-06,2,1
-0.0003630881,1.582063e-05,2,1
-0.0003369955,3.073064e-05,2,1
-0.000342992,3.850978e-05,2,1
-0.0003611433,3.543054e-05,2,1
-0.0003697327,1.906194e-05,2,1
-0.0003575778,-9.623623e-06,2,1
-0.000328244,-4.835724e-05,2,1
-0.0002990722,-9.017008e-05,2,1
-0.0002898345,-0.0001303623,2,1
-0.0003143064,-0.0001635857,2,1
-0.0003668155,-0.0001898403,2,1
-0.0004309934,-0.0002104225,2,1
-0.0004823681,-0.0002217671,2,1
-0.0004946851,-0.0002245222,2,1
-0.0004444448,-0.000224036,2,1
-0.0003224097,-0.0002261429,2,1
-0.000147055,-0.0002308428,2,1
5.034055e-05,-0.0002347323,2,1
0.0002461155,-0.0002319772,2,1
0.0004266563,-0.0002222533,2,1
0.0005849942,-0.0002076674,2,1
0.0007080019,-0.0001943781,2,1
0.0007793107,-0.0001882196,2,1
0.0007859553,-0.000186761,2,1
0.0007251808,-0.00018433,2,1
0.0006046041,-0.0001754164,2,1
0.0004371906,-0.0001577513,2,1
0.0002406053,-0.0001366828,2,1
4.126489e-05,-0.000119828,2,1
-0.0001311726,-0.0001139937,2,1
-0.000258718,-0.0001161005,2,1
-0.0003339163,-0.0001224211,2,1
-0.0003548227,-0.0001293899,2,1
-0.0003237062,-0.000134576,2,1
-0.0002481838,-0.0001381414,2,1
-0.0001431655,-0.0001339277,2,1
-3.863332e-05,-0.0001212866,2,1
3.413401e-05,-0.0001050801,2,1
5.228533e-05,-8.903562e-05,2,1
1.484824e-05,-7.120844e-05,2,1
-5.953974e-05,-5.062615e-05,2,1
-0.0001447861,-2.89094e-05,2,1
-0.0002217671,-1.124428e-05,2,1
-0.0002817312,1.234753e-06,2,1
-0.0003214373,1.112074e-05,2,1
-0.0003418575,1.889987e-05,2,1
-0.0003454229,2.505836e-05,2,1
-0.0003399127,3.413401e-05,2,1
-0.0003313232,5.034055e-05,2,1
-0.0003225718,6.816773e-05,2,1
-0.0003078238,8.664318e-05,2,1
-0.0002682799,0.0001094944,2,1
-0.0001802784,0.0001409351,2,1
-2.712668e-05,0.0001786963,2,1
0.00018291,0.0002158093,2,1
0.0004119083,0.0002446569,2,1
0.0006180556,0.0002538946,2,1
0.0007626179,0.0002419018,2,1
0.0008162616,0.0002153231,2,1
0.0007749349,0.00018291,2,1
0.0006652166,0.00015309,2,1
0.0005277851,0.0001304008,2,1
0.0003965121,0.0001150046,2,1
0.0002838767,0.0001075496,2,1
0.0001863134,0.000106091,2,1
9.53947e-05,0.0001064152,2,1
9.824215e-06,0.0001067393,2,1
-7.169464e-05,0.0001073875,2,1
-0.0001459206,0.0001083599,2,1
-0.0002126914,0.0001114392,2,1
-0.000273628,0.0001187321,2,1
-0.0003271096,0.0001295905,2,1
-0.0003700569,0.0001420695,2,1
-0.0003972838,0.0001535762,2,1
-0.0004061974,0.0001616794,2,1
-0.0003948528,0.0001637863,2,1
-0.00036795,0.0001592484,2,1
-0.0003371576,0.0001560072,2,1
-0.000318196,0.0001615174,2,1
-0.0003261372,0.0001757791,2,1
-0.0003663294,0.0001966855,2,1
-0.0004314796,0.0002185644,2,1
-0.0005053814,0.0002367157,2,1
-0.0005852795,0.0002482223,2,1
-0.0006734431,0.0002529222,2,1
-0.0007607963,0.000250005,2,1
-0.0008183295,0.0002409294,2,1
-0.0008134675,0.0002239125,2,1
-0.0007431312,0.0001936063,2,1
-0.0006350336,0.0001474177,2,1
-0.0005274223,9.26396e-05,2,1
-0.0004405553,3.251336e-05,2,1
-0.0003820497,-2.826114e-05,2,1
-0.0003460712,-8.935975e-05,2,1
-0.0003178718,-0.0001468929,2,1
-0.0002758969,-0.000191785,2,1
-0.0002021572,-0.0002186879,2,1
-9.584238e-05,-0.0002263049,2,1
2.927205e-05,-0.0002261429,2,1
0.0001522796,-0.0002335979,2,1
0.000254867,-0.0002553146,2,1
0.0003282826,-0.0002895104,2,1
0.0003743092,-0.0003300267,2,1
0.0004020224,-0.0003638984,2,1
0.0004192013,-0.0003801049,2,1
0.0004321665,-0.0003695707,2,1
0.0004448076,-0.0003277578,2,1
0.0004602039,-0.0002598524,2,1
0.0004738173,-0.0001765509,2,1
0.0004825689,-9.681477e-05,2,1
0.0004840274,-3.668853e-05,2,1
0.0004736553,-5.409925e-06,2,1
0.0004546936,1.234753e-06,2,1
0.0004376768,-7.192643e-06,2,1
0.0004341113,-1.513384e-05,2,1
0.0004451317,-1.610624e-05,2,1
0.0004624728,-1.108221e-05,2,1
0.0004699278,-2.654814e-06,2,1
0.0004555039,8.203562e-06,2,1
0.0004130428,1.857574e-05,2,1
0.0003478926,3.18651e-05,2,1
0.0002683184,4.985435e-05,2,1
0.0001812893,7.400208e-05,2,1
9.118101e-05,9.523264e-05,2,1
1.095867e-05,0.0001047945,2,1
-4.560212e-05,0.0001013911,2,1
-6.926366e-05,9.361199e-05,2,1
-6.099833e-05,8.939829e-05,2,1
-3.053005e-05,9.361199e-05,2,1
7.069105e-06,9.717743e-05,2,1
3.397195e-05,8.972242e-05,2,1
3.915804e-05,6.46023e-05,2,1
2.376183e-05,2.457216e-05,2,1
-6.058186e-06,-2.372331e-05,2,1
-4.284701e-05,-7.704279e-05,2,1
-8.125649e-05,-0.0001276072,2,1
-0.0001146419,-0.0001673132,2,1
-0.0001344139,-0.000194216,2,1
-0.0001314967,-0.0002123673,2,1
-9.584238e-05,-0.0002306807,2,1
-2.388537e-05,-0.0002540181,2,1
7.821578e-05,-0.0002768693,2,1
0.0001931201,-0.0002867553,2,1
0.0003002453,-0.0002744383,2,1
0.0003905157,-0.0002334358,2,1
0.0004671726,-0.0001661787,2,1
0.000534754,-7.574627e-05,2,1
0.0005866149,3.105477e-05,2,1
0.0006130316,0.0001391524,2,1
0.000614166,0.0002321778,2,1
0.0005958526,0.0002981384,2,1
0.0005723531,0.0003252034,2,1
0.0005642498,0.0003096451,2,1
0.0005848321,0.000262322,2,1
0.0006373413,0.000205275,2,1
0.0007055709,0.000160545,2,1
0.0007656972,0.0001373696,2,1
0.0007921138,0.0001346145,2,1
0.0007571077,0.0001464453,2,1
0.0006499824,0.0001626518,2,1
0.0004887274,0.0001720516,2,1
0.0003052694,0.0001675138,2,1
0.0001300767,0.0001480659,2,1
-1.610624e-05,0.0001174356,2,1
-0.0001203142,8.210535e-05,2,1
-0.0001810887,4.969229e-05,2,1
-0.0002118811,2.01964e-05,2,1
-0.0002421874,-1.124428e-05,2,1
-0.000295993,-4.90055e-05,2,1
-0.0003822118,-9.130454e-05,2,1
-0.0004877163,-0.0001300382,2,1
-0.000586414,-0.0001564548,2,1
-0.0006564262,-0.0001627754,2,1
-0.0006901358,-0.000144462,2,1
-0.0006935392,-0.0001039456,2,1
-0.0006765223,-4.187462e-05,2,1
-0.0006489712,3.332369e-05,2,1
-0.0006167202,0.0001091703,2,1
-0.0005841451,0.0001757791,2,1
-0.0005525423,0.000225047,2,1
-0.0005228845,0.0002547049,2,1
-0.0004961436,0.0002696149,2,1
-0.0004732924,0.000272208,2,1
-0.0004556273,0.0002615117,2,1
-0.0004436345,0.0002388225,2,1
-0.0004279142,0.0002075439,2,1
-0.0003998769,0.0001739964,2,1
-0.0003567675,0.0001440143,2,1
-0.0003055549,0.0001224596,2,1
-0.0002543422,0.0001117633,2,1
-0.0002081536,0.000113546,2,1
-0.000174282,0.0001218114,2,1
-0.0001590478,0.0001339663,2,1
-0.0001639098,0.0001451488,2,1
-0.000181737,0.0001503349,2,1
-0.0002024813,0.000143204,2,1
-0.0002169052,0.0001227837,2,1
-0.000213988,9.296373e-05,2,1
-0.0001872472,5.925414e-05,2,1
-0.0001394379,2.505836e-05,2,1
-7.947377e-05,-9.137427e-06,2,1
-2.388537e-05,-4.171256e-05,2,1
1.209313e-05,-6.829127e-05,2,1
1.954813e-05,-8.725291e-05,2,1
1.558884e-06,-0.0001002181,2,1
-3.036798e-05,-0.0001091317,2,1
-6.116039e-05,-0.0001161005,2,1
-7.623246e-05,-0.0001204763,2,1
-6.748094e-05,-0.0001203142,2,1
-3.296103e-05,-0.0001149661,2,1
2.473423e-05,-0.0001068628,2,1
9.879808e-05,-0.0001032974,2,1
0.0001743205,-0.0001118868,2,1
0.0002381743,-0.0001361966,2,1
0.0002926282,-0.0001687718,2,1
0.0003475684,-0.0001956746,2,1
0.0004070464,-0.0002052365,2,1
0.0004621486,-0.0001914609,2,1
0.0004969927,-0.0001543479,2,1
0.0004945617,-9.697683e-05,2,1
0.0004485351,-2.226472e-05,2,1
0.0003642611,6.314371e-05,2,1
0.0002577842,0.0001475797,2,1
0.0001487142,0.0002193747,2,1
5.277153e-05,0.0002710735,2,1
-2.015787e-05,0.0003025142,2,1
-6.650855e-05,0.0003156415,2,1
-8.741498e-05,0.0003141829,2,1
-8.82253e-05,0.0003005694,2,1
-7.995997e-05,0.0002806354,2,1
-7.088431e-05,0.0002615117,2,1
-6.375344e-05,0.000252274,2,1
-5.678463e-05,0.0002511395,2,1
-4.787104e-05,0.0002590807,2,1
-3.425755e-05,0.0002757735,2,1
-1.934754e-05,0.000294573,2,1
-1.140634e-05,0.0003041349,2,1
-1.351319e-05,0.0002986247,2,1
-2.031993e-05,0.0002775562,2,1
-2.647842e-05,0.0002435224,2,1
-3.652646e-05,0.0002025199,2,1
-5.32192e-05,0.0001584381,2,1
-7.23429e-05,0.0001195424,2,1
-8.579432e-05,9.458438e-05,2,1
-7.574627e-05,8.46984e-05,2,1
-2.031993e-05,8.405014e-05,2,1
0.0001004187,8.923623e-05,2,1
0.0002905214,9.604298e-05,2,1
0.0005243817,9.53947e-05,2,1
0.0007515975,7.740546e-05,2,1
0.0009170663,4.02925e-05,2,1
0.0009895095,-1.189254e-05,2,1
0.0009653618,-7.088431e-05,2,1
0.0008608295,-0.0001318209,2,1
0.0007039502,-0.0001932436,2,1
0.000520168,-0.0002540181,2,1
0.0003339549,-0.0003141443,2,1
0.000168,-0.0003687603,2,1
3.867184e-05,-0.0004147869,2,1
-4.625038e-05,-0.0004489826,2,1
-9.211487e-05,-0.0004719959,2,1
-0.0001133454,-0.0004854474,2,1
-0.0001303623,-0.0004839888,2,1
-0.0001572651,-0.0004676201,2,1
-0.0002011848,-0.000435045,2,1
-0.000261149,-0.0003869116,2,1
-0.0003233821,-0.0003292164,2,1
-0.0003697327,-0.0002739521,2,1
-0.0003869116,-0.0002329496,2,1
-0.0003779981,-0.0002079916,2,1
-0.0003562813,-0.0001956746,2,1
-0.000343154,-0.0001895161,2,1
-0.0003574158,-0.0001833576,2,1
-0.0003971218,-0.0001702304,2,1
-0.0004468758,-0.0001477033,2,1
-0.0004857715,-0.0001146419,2,1
-0.0004938748,-7.752899e-05,2,1
-0.0004591928,-4.284701e-05,2,1
-0.0003896668,-1.853722e-05,2,1
-0.0003044204,-1.059602e-05,2,1
-0.0002183637,-2.356124e-05,2,1
-0.0001353863,-5.435365e-05,2,1
-5.678463e-05,-9.422172e-05,2,1
6.90704e-06,-0.0001319829,2,1
4.239934e-05,-0.0001575893,2,1
4.466826e-05,-0.0001630995,2,1
1.792748e-05,-0.0001447861,2,1
-2.631635e-05,-0.0001024871,2,1
-7.574627e-05,-4.365734e-05,2,1
-0.0001206384,1.59827e-05,2,1
-0.0001493239,6.119892e-05,2,1
-0.0001548341,8.502253e-05,2,1
-0.0001363587,9.020862e-05,2,1
-0.0001031353,7.918817e-05,2,1
-6.796714e-05,5.585077e-05,2,1
-4.268495e-05,2.81376e-05,2,1
-3.798505e-05,1.720949e-06,2,1
-5.305713e-05,-2.242678e-05,2,1
-7.947377e-05,-4.090223e-05,2,1
-0.0001031353,-5.062615e-05,2,1
-0.0001175591,-4.884343e-05,2,1
-0.0001242038,-3.377136e-05,2,1
-0.0001255003,-6.058186e-06,2,1
-0.0001164247,2.959619e-05,2,1
-8.725291e-05,7.011252e-05,2,1
-3.68506e-05,0.0001137081,2,1
2.359977e-05,0.0001595726,2,1
7.6271e-05,0.000207706,2,1
0.0001103047,0.0002495189,2,1
0.0001274836,0.0002735045,2,1
0.0001355869,0.0002741528,2,1
0.0001477418,0.0002569738,2,1
0.0001725378,0.0002308813,2,1
0.0002059233,0.0002021958,2,1
0.0002328261,0.0001782101,2,1
0.0002365536,0.0001615174,2,1
0.0002119197,0.000150659,2,1
0.0001663793,0.0001445005,2,1
0.0001141943,0.0001422316,2,1
7.173317e-05,0.0001443384,2,1
3.964424e-05,0.0001522796,2,1
1.12828e-05,0.0001654069,2,1
-1.918548e-05,0.0001799928,2,1
-5.013995e-05,0.0001902029,2,1
-7.882551e-05,0.0001937684,2,1
-0.0001086455,0.0001874478,2,1
-0.0001436516,0.000168,2,1
-0.0001833576,0.0001401247,2,1
-0.000221443,0.0001120874,2,1
-0.000251263,9.231547e-05,2,1
-0.0002647144,8.340187e-05,2,1
-0.0002570974,8.259155e-05,2,1
-0.0002344082,8.032264e-05,2,1
-0.0002204706,6.687121e-05,2,1
-0.0002386219,3.510641e-05,2,1
-0.0002919414,-1.108221e-05,2,1
-0.0003645466,-5.69467e-05,2,1
-0.0004335865,-9.276313e-05,2,1
-0.0004763717,-0.0001165867,2,1
-0.0004797751,-0.0001310105,2,1
-0.0004433104,-0.0001418689,2,1
-0.0003755671,-0.0001527273,2,1
-0.0002836761,-0.0001639098,2,1
-0.0001776853,-0.0001746061,2,1
-6.958779e-05,-0.0001822232,2,1
2.684107e-05,-0.0001854645,2,1
9.717743e-05,-0.0001840059,2,1
0.0001375317,-0.0001820611,2,1
0.0001624898,-0.000179306,2,1
0.0001914995,-0.0001750923,2,1
0.0002328261,-0.000166827,2,1
0.0002811216,-0.0001596961,2,1
0.0003269861,-0.0001575893,2,1
0.0003623164,-0.0001598582,2,1
0.0003828986,-0.0001621271,2,1
0.0003939191,-0.0001588858,2,1
0.0004041292,-0.0001468929,2,1
0.0004219564,-0.0001279313,2,1
0.0004469145,-0.0001042698,2,1
0.0004728449,-7.461182e-05,2,1
0.0004882411,-3.960571e-05,2,1
0.0004906721,-2.978945e-06,2,1
0.0004952099,3.218923e-05,2,1
0.0005161164,6.525056e-05,2,1
0.0005589016,0.0001012291,2,1
0.0006169211,0.0001415833,2,1
0.0006716992,0.0001830721,2,1
0.0007052467,0.0002235884,2,1
0.0007110811,0.0002581083,2,1
0.0006911471,0.0002791768,2,1
0.0006493342,0.0002803113,2,1
0.0005851563,0.0002618358,2,1
0.0005044477,0.0002310434,2,1
0.0004226047,0.0001997648,2,1
0.0003577785,0.0001761032,2,1
0.0003153174,0.0001618415,2,1
0.0002898731,0.0001509831,2,1
0.0002686426,0.0001347766,2,1
0.0002363916,0.0001094944,2,1
0.0001859892,7.691926e-05,2,1
0.0001169494,4.191315e-05,2,1
3.753739e-05,1.112074e-05,2,1
-3.992984e-05,-1.270286e-05,2,1
-0.0001055663,-3.344723e-05,2,1
-0.0001596961,-5.143648e-05,2,1
-0.000206533,-6.326724e-05,2,1
-0.000258718,-6.958779e-05,2,1
-0.0003228959,-6.553616e-05,2,1
-0.0003895047,-5.030202e-05,2,1
-0.0004444448,-3.085418e-05,2,1
-0.000479613,-1.643037e-05,2,1
-0.0004883645,-1.010982e-05,2,1
-0.0004663236,-7.516774e-06,2,1
-0.0004180282,-4.275467e-06,2,1
-0.0003609812,9.986281e-06,2,1
-0.0003178718,4.013043e-05,2,1
-0.0003055549,8.242948e-05,2,1
-0.0003253268,0.0001336421,2,1
-0.0003726499,0.0001872858,2,1
-0.0004361795,0.0002376881,2,1
-0.0005000332,0.0002825802,2,1
-0.0005536768,0.0003179104,2,1
-0.0005856037,0.0003378445,2,1
-0.0005898174,0.0003368721,2,1
-0.0005635628,0.0003132105,2,1
-0.0005084606,0.0002683184,2,1
-0.0004384484,0.0002081922,2,1
-0.0003695707,0.0001370455,2,1
-0.0003079858,6.330578e-05,2,1
-0.0002535319,-6.868513e-06,2,1
-0.0002083157,-6.796714e-05,2,1
-0.0001650443,-0.0001156143,2,1
-0.0001007043,-0.0001532135,2,1
4.962256e-06,-0.0001794681,2,1
0.0001492004,-0.0001937298,2,1
0.000302028,-0.0001979435,2,1
0.0004287631,-0.000194216,2,1
0.000500396,-0.0001835197,2,1
0.0005086614,-0.0001684476,2,1
0.0004756001,-0.0001540238,2,1
0.0004328148,-0.0001413827,2,1
0.0004093153,-0.0001298761,2,1
0.0004167703,-0.0001151281,2,1
0.0004462662,-9.438378e-05,2,1
0.0004709002,-7.023606e-05,2,1
0.0004647417,-5.030202e-05,2,1
0.0004089912,-3.701266e-05,2,1
0.0002997591,-3.328516e-05,2,1
0.0001490383,-4.138842e-05,2,1
-1.740276e-05,-6.407757e-05,2,1
-0.0001715269,-9.859748e-05,2,1
-0.0002971275,-0.000142031,2,1
-0.0003812394,-0.0001874093,2,1
-0.0004256453,-0.0002248464,2,1
-0.0004386105,-0.000246401,2,1
-0.0004290486,-0.0002527216,2,1
-0.0004121938,-0.0002481838,2,1
-0.0003958252,-0.0002415391,2,1
-0.0003744326,-0.0002379736,2,1
-0.0003369955,-0.0002376495,2,1
-0.000278652,-0.0002386219,2,1
-0.0002075054,-0.0002400805,2,1
-0.0001376552,-0.0002405667,2,1
-7.55842e-05,-0.0002392702,2,1
-1.221667e-05,-0.0002342462,2,1
6.670914e-05,-0.0002222533,2,1
0.0001624898,-0.0001981056,2,1
0.000272208,-0.0001592099,2,1
0.0003981328,-0.0001107524,2,1
0.0005590637,-6.002594e-05,2,1
0.0007755831,-7.192643e-06,2,1
0.001054012,4.385793e-05,2,1
0.001364529,9.507057e-05,2,1
0.001651872,0.0001435281,2,1
0.001853644,0.0001892305,2,1
0.001925925,0.0002370398,2,1
0.001847971,0.0002914938,2,1
0.001627076,0.0003483787,2,1
0.001300027,0.0004015361,2,1
0.0009266282,0.0004477248,2,1
0.0005717048,0.0004824068,2,1
0.000277232,0.0005026649,2,1
5.163707e-05,0.000507527,2,1
-0.0001251762,0.0004968306,2,1
-0.0002830278,0.0004715484,2,1
-0.000442338,0.0004363802,2,1
-0.0006048895,0.0003994293,2,1
-0.0007496137,0.0003676645,2,1
-0.0008500942,0.0003427064,2,1
-0.0008953104,0.0003240689,2,1
-0.0008987138,0.0003122381,2,1
-0.0008930415,0.0003046211,2,1
-0.0009053585,0.0002923041,2,1
-0.0009382577,0.0002692908,2,1
-0.0009765052,0.0002318537,2,1
-0.0009956289,0.0001825859,2,1
-0.0009739121,0.0001313732,2,1
-0.0009001724,9.247754e-05,2,1
-0.0007815406,7.935024e-05,2,1
-0.0006471885,9.361199e-05,2,1
-0.0005347152,0.0001250527,2,1
-0.0004749131,0.0001569795,2,1
-0.0004716718,0.0001770756,2,1
-0.0005040849,0.000177886,2,1
-0.0005356876,0.0001623277,2,1
-0.0005330946,0.0001393144,2,1
-0.0004865818,0.0001150046,2,1
-0.0004130042,8.907416e-05,2,1
-0.0003376438,5.471631e-05,2,1
-0.0002825416,3.341602e-06,2,1
-0.000251263,-6.553616e-05,2,1
-0.000233922,-0.0001425172,2,1
-0.0002173914,-0.0002096122,2,1
-0.000186761,-0.0002530457,2,1
-0.0001339277,-0.0002707109,2,1
-6.326724e-05,-0.0002703867,2,1
9.66215e-06,-0.000266011,2,1
6.654708e-05,-0.000268766,2,1
9.426025e-05,-0.0002851347,2,1
8.810177e-05,-0.0003151167,2,1
5.212327e-05,-0.0003562813,2,1
-6.176923e-08,-0.000407656,2,1
-5.581224e-05,-0.0004632444,2,1
-0.0001060525,-0.0005183466,2,1
-0.0001451102,-0.000568911,2,1
-0.0001720131,-0.0006147755,2,1
-0.000189192,-0.0006629088,2,1
-0.0002062088,-0.0007137973,2,1
-0.0002280877,-0.0007585274,2,1
-0.000258718,-0.000780082,2,1
-0.0002969654,-0.00076501,2,1
-0.0003319715,-0.0007068285,2,1
-0.0003496366,-0.0006115342,2,1
-0.0003491504,-0.0004929024,2,1
-0.0003361852,-0.0003663294,2,1
-0.0003245165,-0.0002486699,2,1
-0.0003322956,-0.0001507825,2,1
-0.0003742705,-7.282909e-05,2,1
-0.0004450931,-1.189254e-05,2,1
-0.00052175,3.445814e-05,2,1
-0.0005726385,7.027458e-05,2,1
-0.0005766901,0.0001013911,2,1
-0.0005238568,0.0001368834,2,1
-0.0004222419,0.0001795066,2,1
-0.0002963172,0.0002253711,2,1
-0.0001734716,0.0002676702,2,1
-7.380149e-05,0.0002968419,2,1
4.151929e-06,0.0003104554,2,1
7.157111e-05,0.0003107795,2,1
0.0001438522,0.0003004074,2,1
0.0002278021,0.0002829043,2,1
0.0003248792,0.0002650771,2,1
0.0004331389,0.0002511395,2,1
0.0005503122,0.0002469258,2,1
0.0006744543,0.0002581083,2,1
0.0008102651,0.0002885766,2,1
0.0009694134,0.0003380065,2,1
0.001161623,0.0004029947,2,1
0.001374253,0.0004791655,2,1
0.001568246,0.0005545259,2,1
0.001691578,0.0006190279,2,1
0.001705516,0.0006676476,2,1
0.001599038,0.0006998986,2,1
0.00139986,0.0007117294,2,1
0.00116373,0.0006974676,2,1
0.0009561241,0.0006551685,2,1
0.0008254994,0.0005930975,2,1
0.0007869278,0.0005206542,2,1
0.0008203132,0.0004439973,2,1
0.0008827084,0.0003655576,2,1
0.000928573,0.0002817699,2,1
0.0009290591,0.0001913374,2,1
0.0008705535,9.831188e-05,2,1
0.0007551629,1.160693e-05,2,1
0.0005901803,-5.532604e-05,2,1
0.0003924605,-9.697683e-05,2,1
0.0001856651,-0.0001195039,2,1
-8.975362e-06,-0.0001349001,2,1
-0.0001844921,-0.0001498101,2,1
-0.0003399127,-0.0001665028,2,1
-0.0004752372,-0.0001818991,2,1
-0.000588845,-0.0001984297,2,1
-0.0006804119,-0.0002225774,2,1
-0.0007398899,-0.000253856,2,1
-0.0007599859,-0.0002862691,2,1
-0.0007445897,-0.0003104168,2,1
-0.0007082871,-0.0003250027,2,1
-0.0006724707,-0.0003290543,2,1
-0.0006515643,-0.0003214373,2,1
-0.0006488092,-0.0003074997,2,1
-0.0006595054,-0.0002916173,2,1
-0.0006794395,-0.0002780038,2,1
-0.0007050458,-0.0002716832,2,1
-0.0007329211,-0.0002773555,2,1
-0.0007604721,-0.0002890242,2,1
-0.0007847819,-0.0002930758,2,1
-0.0008019609,-0.0002789762,2,1
-0.000804878,-0.0002455907,2,1
-0.0007888335,-0.000201509,2,1
-0.0007483172,-0.0001592099,2,1
-0.0006833291,-0.000127121,2,1
-0.0005940311,-0.0001054042,2,1
-0.0004841508,-9.405965e-05,2,1
-0.0003651949,-9.081835e-05,2,1
-0.0002543422,-8.903562e-05,2,1
-0.0001634236,-8.368748e-05,2,1
-9.697683e-05,-7.817725e-05,2,1
-5.32192e-05,-7.833932e-05,2,1
-2.696461e-05,-8.417367e-05,2,1
-4.275467e-06,-8.773911e-05,2,1
3.721326e-05,-8.239095e-05,2,1
0.0001137081,-6.715681e-05,2,1
0.0002187264,-5.240886e-05,2,1
0.0003289309,-4.47918e-05,2,1
0.0004167703,-4.462973e-05,2,1
0.000458259,-4.576419e-05,2,1
0.0004414042,-4.43056e-05,2,1
0.0003718782,-3.766092e-05,2,1
0.0002683184,-3.101625e-05,2,1
0.000163138,-2.501983e-05,2,1
9.280167e-05,-1.448558e-05,2,1
9.344993e-05,2.693341e-06,2,1
0.0001725378,2.424803e-05,2,1
0.0003036487,4.515445e-05,2,1
0.0004441593,6.071273e-05,2,1
0.0005550121,7.140904e-05,2,1
0.0006089798,7.951231e-05,2,1
0.0005979594,8.761557e-05,2,1
0.0005363746,9.733949e-05,2,1
0.0004535592,0.0001127357,2,1
0.000378847,0.0001368834,2,1
0.0003247172,0.0001735102,2,1
0.0002898731,0.0002245608,2,1
0.0002637806,0.0002887387,2,1
0.0002363916,0.000359075,2,1
0.0002055991,0.0004268184,2,1
0.0001691344,0.0004838654,2,1
0.0001193804,0.0005237334,2,1
5.536457e-05,0.000542371,2,1
-7.516774e-06,0.0005417228,2,1
-4.47918e-05,0.0005277851,2,1
-2.988179e-05,0.0005094717,2,1
4.839576e-05,0.0004914824,2,1
0.0001761032,0.0004721967,2,1
0.0003276344,0.0004504799,2,1
0.0004720346,0.0004266563,2,1
0.0005898562,0.0004016982,2,1
0.0006684579,0.0003765781,2,1
0.0007018434,0.000351458,2,1
0.0006867713,0.0003239069,2,1
0.0006274553,0.0002931144,2,1
0.0005345919,0.0002566497,2,1
0.0004273046,0.0002115956,2,1
0.0003195311,0.0001571416,2,1
0.0002146748,9.442231e-05,2,1
0.0001145184,3.008238e-05,2,1
2.424803e-05,-3.036798e-05,2,1
-5.289507e-05,-8.012204e-05,2,1
-0.0001167488,-0.0001167488,2,1
-0.0001697442,-0.0001415448,2,1
-0.0002156086,-0.0001572651,2,1
-0.0002509389,-0.0001673132,2,1
-0.0002716832,-0.0001788198,2,1
-0.0002827037,-0.0002003745,2,1
-0.0002882139,-0.0002347323,2,1
-0.0002951827,-0.0002818933,2,1
-0.0003068514,-0.0003379679,2,1
-0.0003193304,-0.0003971218,2,1
-0.000320789,-0.0004528722,2,1
-0.0002943724,-0.000501978,2,1
-0.0002371633,-0.0005413599,2,1
-0.0001746061,-0.0005685869,2,1
-0.0001452723,-0.0005828486,2,1
-0.0001754164,-0.0005851175,2,1
-0.0002616352,-0.0005807417,2,1
-0.0003744326,-0.0005734488,2,1
-0.0004864197,-0.0005668041,2,1
-0.000583983,-0.0005575664,2,1
-0.0006650157,-0.0005382806,2,1
-0.0007283832,-0.0005055434,2,1
-0.0007698719,-0.0004569239,2,1
-0.0007870508,-0.0003919357,2,1
-0.0007813785,-0.0003178718,2,1
-0.0007586894,-0.0002452666,2,1
-0.0007249799,-0.0001823853,2,1
-0.0006878669,-0.0001326312,2,1
-0.0006538332,-9.600444e-05,2,1
-0.0006206098,-6.877746e-05,2,1
-0.0005881967,-5.208474e-05,2,1
-0.0005574043,-4.527799e-05,2,1
-0.0005293671,-4.268495e-05,2,1
-0.000509433,-3.766092e-05,2,1
-0.0005058676,-2.599222e-05,2,1
-0.0005173742,-1.075808e-05,2,1
-0.0005298533,6.90704e-06,2,1
-0.000526774,2.327564e-05,2,1
-0.0004980884,3.834771e-05,2,1
-0.0004434724,5.504044e-05,2,1
-0.0003626019,7.610894e-05,2,1
-0.0002532078,0.0001026876,2,1
-0.0001211246,0.0001339663,2,1
2.197911e-05,0.000162976,2,1
0.000163138,0.000180479,2,1
0.000289387,0.0001825859,2,1
0.0003914881,0.0001759412,2,1
0.0004636072,0.0001649207,2,1
0.0004973168,0.0001501728,2,1
0.0004856481,0.0001365593,2,1
0.0004268184,0.0001291043,2,1
0.0003331446,0.0001313732,2,1
0.0002266676,0.0001420695,2,1
0.0001305629,0.000158114,2,1
5.99024e-05,0.0001764274,2,1
2.538249e-05,0.0001974959,2,1
3.380988e-05,0.0002232643,2,1
9.182927e-05,0.0002501671,2,1
0.0001999268,0.0002743149,2,1
0.0003467581,0.0002931144,2,1
0.000505258,0.0003034866,2,1
0.0006422033,0.0003046211,2,1
0.0007284221,0.0002960316,2,1
0.0007473837,0.0002807975,2,1
0.0006979538,0.0002666978,2,1
0.0006003904,0.0002600531,2,1
0.0004893756,0.0002660495,2,1
0.0003932708,0.000287118,2,1
0.000321638,0.0003209897,2,1
0.0002692908,0.0003644232,2,1
0.0002263435,0.0004093153,2,1
0.0001762653,0.0004491834,2,1
0.0001120874,0.0004790034,2,1
3.60788e-05,0.0004952099,2,1
-4.511593e-05,0.0004947237,2,1
-0.0001177212,0.000480462,2,1
-0.0001580754,0.000463121,2,1
-0.0001472171,0.0004540453,2,1
-8.384954e-05,0.0004572867,2,1
1.825161e-05,0.0004639314,2,1
0.0001313732,0.0004611762,2,1
0.0002303951,0.0004384871,2,1
0.0003030004,0.0003906778,2,1
0.0003440029,0.0003175863,2,1
0.0003553475,0.0002243987,2,1
0.000339141,0.0001193804,2,1
0.0002957075,1.533444e-05,2,1
0.0002295848,-8.40116e-05,2,1
0.0001440143,-0.0001878955,2,1
3.672706e-05,-0.0003065273,2,1
-9.584238e-05,-0.0004366657,2,1
-0.0002478596,-0.0005588629,2,1
-0.0003979321,-0.0006565883,2,1
-0.0005178604,-0.0007241695,2,1
-0.0005891691,-0.0007643617,2,1
-0.0006128307,-0.0007846198,2,1
-0.0005995413,-0.0007901301,2,1
-0.0005596732,-0.0007815406,2,1
-0.0004959816,-0.0007583653,2,1
-0.0004070078,-0.0007197938,2,1
-0.0002872415,-0.0006648536,2,1
-0.0001480274,-0.000591276,2,1
-1.740276e-05,-0.0004987367,2,1
7.6271e-05,-0.0003989045,2,1
0.0001166253,-0.0003052308,2,1
0.0001062531,-0.0002256567,2,1
6.217132e-05,-0.0001650443,2,1
7.393236e-06,-0.000119666,2,1
-4.025397e-05,-8.368748e-05,2,1
-7.18567e-05,-5.743289e-05,2,1
-8.547019e-05,-4.300908e-05,2,1
-8.514606e-05,-4.155049e-05,2,1
-7.315322e-05,-5.127441e-05,2,1
-5.419158e-05,-6.569822e-05,2,1
-2.696461e-05,-7.671866e-05,2,1
1.695509e-05,-7.850138e-05,2,1
9.085688e-05,-6.748094e-05,2,1
0.0002051129,-4.560212e-05,2,1
0.0003576164,-1.788895e-05,2,1
0.0005465847,1.144487e-05,2,1
0.0007691005,4.385793e-05,2,1
0.001003771,7.918817e-05,2,1
0.001224505,0.0001148425,2,1
0.001412339,0.0001472556,2,1
0.001551553,0.0001743205,2,1
0.001624159,0.0001984683,2,1
0.001625293,0.0002206712,2,1
0.001559981,0.0002394708,2,1
0.001446535,0.0002514636,2,1
0.001301972,0.0002553532,2,1
0.001139582,0.0002551911,2,1
0.000970548,0.0002547049,2,1
0.0008092928,0.0002561635,2,1
0.0006705648,0.0002590807,2,1
0.0005610085,0.0002607014,2,1
0.0004757621,0.0002603772,2,1
0.0003974845,0.0002560015,2,1
0.0003062417,0.0002448189,2,1
0.0001921477,0.0002273159,2,1
5.730935e-05,0.0002046267,2,1
-8.903562e-05,0.0001786963,2,1
-0.0002303566,0.0001487142,2,1
-0.0003459091,0.0001150046,2,1
-0.0004217557,7.983644e-05,2,1
-0.0004603272,4.499239e-05,2,1
-0.000472158,1.274139e-05,2,1
-0.000467134,-1.335113e-05,2,1
-0.0004549791,-3.490581e-05,2,1
-0.0004452552,-5.2733e-05,2,1
-0.0004460655,-6.132246e-05,2,1
-0.0004595169,-5.678463e-05,2,1
-0.0004877163,-3.425755e-05,2,1
-0.0005306636,1.014835e-05,2,1
-0.0005791211,7.319176e-05,2,1
-0.0006225546,0.000143204,2,1
-0.0006585331,0.000210137,2,1
-0.0006886772,0.0002663737,2,1
-0.000717849,0.0003096451,2,1
-0.0007500999,0.0003461098,2,1
-0.0007872129,0.0003783608,2,1
-0.0008256224,0.0004059119,2,1
-0.0008590078,0.0004237391,2,1
-0.0008787798,0.0004261701,2,1
-0.0008789418,0.0004114222,2,1
-0.000861925,0.0003825745,2,1
-0.0008389117,0.0003454615,2,1
-0.000817357,0.0003004074,2,1
-0.0008011505,0.0002482223,2,1
-0.00079483,0.0001880961,2,1
-0.0008045539,0.0001188942,2,1
-0.0008283774,4.077869e-05,2,1
-0.0008572251,-4.219875e-05,2,1
-0.0008813728,-0.0001193418,2,1
-0.0008953104,-0.0001869231,2,1
-0.0008927174,-0.0002444563,2,1
-0.0008640318,-0.0002937241,2,1
-0.0008043919,-0.0003345645,2,1
-0.0007168766,-0.0003626019,2,1
-0.0006228787,-0.0003757291,2,1
-0.0005410357,-0.0003749188,2,1
-0.0004778303,-0.0003637363,2,1
-0.0004308313,-0.0003517435,2,1
-0.0003942046,-0.0003483401,2,1
-0.0003609812,-0.0003559572,2,1
-0.0003272716,-0.0003744326,2,1
-0.0002805968,-0.0003956632,2,1
-0.0002175534,-0.000407656,2,1
-0.0001452723,-0.0003998769,2,1
-7.55842e-05,-0.0003715154,2,1
-2.437157e-05,-0.0003308371,2,1
-1.682422e-06,-0.000286107,2,1
-8.975362e-06,-0.000243808,2,1
-3.976777e-05,-0.0002070192,2,1
-8.709085e-05,-0.0001775233,2,1
-0.0001473791,-0.0001540238,2,1
-0.0002131776,-0.0001310105,2,1
-0.0002729798,-0.0001058904,2,1
-0.0003154408,-8.271508e-05,2,1
-0.0003303509,-6.877746e-05,2,1
-0.0003112272,-6.261898e-05,2,1
-0.0002528836,-5.986387e-05,2,1
-0.0001572651,-5.451572e-05,2,1
-3.960571e-05,-4.122636e-05,2,1
8.42122e-05,-1.934754e-05,2,1
0.000195227,8.689758e-06,2,1
0.000284687,4.547859e-05,2,1
0.0003650715,9.199134e-05,2,1
0.0004676588,0.0001404489,2,1
0.0006295622,0.0001769136,2,1
0.0008616399,0.0001926339,2,1
0.0011284,0.0001906891,2,1
0.001365988,0.00018291,2,1
0.001511199,0.0001817755,2,1
0.001529998,0.0001934442,2,1
0.001429842,0.0002143507,2,1
0.001250273,0.0002336365,2,1
0.001046395,0.0002467637,2,1
0.0008640709,0.000254867,2,1
0.0007324737,0.0002602152,2,1
0.0006626236,0.0002666978,2,1
0.0006456067,0.0002751252,2,1
0.0006668373,0.0002832284,2,1
0.0007055709,0.0002850112,2,1
0.0007290703,0.0002767458,2,1
0.0007065432,0.0002608634,2,1
0.0006225934,0.000239957,2,1
0.0004838654,0.0002171058,2,1
0.000316938,0.000192796,2,1
0.0001574657,0.0001616794,2,1
3.721326e-05,0.0001198666,2,1
-2.696461e-05,7.043665e-05,2,1
-2.583016e-05,2.376183e-05,2,1
3.786152e-05,-1.237873e-05,2,1
0.0001430419,-3.911951e-05,2,1
0.0002540567,-5.808115e-05,2,1
0.0003440029,-6.991193e-05,2,1
0.0004044533,-7.574627e-05,2,1
0.0004467524,-7.833932e-05,2,1
0.0004848378,-8.012204e-05,2,1
0.0005281092,-8.060823e-05,2,1
0.0005809425,-8.44978e-05,2,1
0.0006383138,-9.276313e-05,2,1
0.0006802886,-0.0001050801,2,1
0.0006827196,-0.0001125351,2,1
0.000626807,-0.0001101041,2,1
0.0005083373,-9.794922e-05,2,1
0.0003371962,-8.303922e-05,2,1
0.000130887,-7.380149e-05,2,1
-8.692878e-05,-7.866345e-05,2,1
-0.000285945,-9.551824e-05,2,1
-0.0004363416,-0.0001180453,2,1
-0.0005261258,-0.000137007,2,1
-0.0005608077,-0.0001417068,2,1
-0.0005510838,-0.0001242038,2,1
-0.0005105674,-8.838737e-05,2,1
-0.0004583824,-4.398147e-05,2,1
-0.0004170558,-3.858999e-07,2,1
-0.0004063595,2.959619e-05,2,1
-0.0004295348,3.640293e-05,2,1
-0.0004760476,1.906194e-05,2,1
-0.0005269361,-1.237873e-05,2,1
-0.0005601594,-5.240886e-05,2,1
-0.0005580526,-0.0001008664,2,1
-0.0005141329,-0.0001583996,2,1
-0.0004241867,-0.0002167431,2,1
-0.0002758969,-0.0002614731,2,1
-6.991193e-05,-0.0002818933,2,1
0.0001718896,-0.000276221,2,1
0.0004041292,-0.0002527216,2,1
0.0005749461,-0.0002201465,2,1
0.0006431757,-0.0001874093,2,1
0.0006007145,-0.0001608306,2,1
0.0004623107,-0.0001391138,2,1
0.0002642668,-0.0001173971,2,1
5.439218e-05,-9.260107e-05,2,1
-0.0001240417,-6.278104e-05,2,1
-0.0002378116,-3.231277e-05,2,1
-0.0002729798,-7.192643e-06,2,1
-0.0002357047,8.365628e-06,2,1
-0.0001579134,1.484824e-05,2,1
-7.833932e-05,1.403791e-05,2,1
-2.939559e-05,1.257933e-05,2,1
-2.404744e-05,1.825161e-05,2,1
-6.116039e-05,3.251336e-05,2,1
-0.0001269589,5.341979e-05,2,1
-0.0002028055,7.691926e-05,2,1
-0.0002707109,9.879808e-05,2,1
-0.0003212752,0.0001177597,2,1
-0.0003536883,0.0001316974,2,1
-0.0003715154,0.0001415833,2,1
-0.0003789705,0.0001500107,2,1
-0.0003814014,0.0001600588,2,1
-0.0003867496,0.0001722137,2,1
-0.0004021458,0.0001856651,2,1
-0.0004321279,0.000200251,2,1
-0.0004744269,0.0002128921,2,1
-0.00051705,0.0002187264,2,1
-0.0005463839,0.0002146748,2,1
-0.0005536768,0.0002033302,2,1
-0.0005382806,0.0001910133,2,1
-0.0005053814,0.0001848548,2,1
-0.0004525481,0.0001897167,2,1
-0.0003757291,0.0002047888,2,1
-0.0002805968,0.000222616,2,1
-0.000176875,0.0002402811,2,1
-7.850138e-05,0.0002600531,2,1
-1.034161e-06,0.0002804733,2,1
4.142696e-05,0.0003015418,2,1
3.996837e-05,0.0003261758,2,1
-1.520357e-06,0.0003561579,2,1
-6.602235e-05,0.0003903536,2,1
-0.000129714,0.0004266563,2,1
-0.0001791439,0.0004569625,2,1
-0.0002122053,0.0004726828,2,1
-0.0002280877,0.0004670106,2,1
-0.0002285739,0.000438325,2,1
-0.0002180396,0.0003922984,2,1
-0.0002039399,0.0003427064,2,1
-0.0001961608,0.0002940868,2,1
-0.0002037779,0.0002475741,2,1
-0.0002267911,0.0002005751,2,1
-0.0002592042,0.0001500107,2,1
-0.0002906449,9.652917e-05,2,1
-0.0003079858,4.385793e-05,2,1
-0.0003086341,-8.327101e-06,2,1
-0.0002956689,-5.921561e-05,2,1
-0.0002703867,-0.0001067007,2,1
-0.0002331117,-0.0001459206,2,1
-0.0001807646,-0.0001752544,2,1
-0.0001120489,-0.0001961608,2,1
-3.004385e-05,-0.0002183637,2,1
5.585077e-05,-0.0002483458,2,1
0.0001352628,-0.0002857829,2,1
0.0002013854,-0.0003188442,2,1
0.0002491947,-0.0003369955,2,1
0.0002827423,-0.0003344025,2,1
0.0003055935,-0.0003151167,2,1
0.0003203414,-0.0002883759,2,1
0.0003326584,-0.0002656868,2,1
0.0003449753,-0.000251101,2,1
0.000356482,-0.0002449425,2,1
0.0003600474,-0.0002485079,2,1
0.0003462718,-0.0002596904,2,1
0.0003099692,-0.0002728177,2,1
0.0002561635,-0.0002817312,2,1
0.0001999268,-0.0002773555,2,1
0.0001600588,-0.0002509389,2,1
0.0001513072,-0.0002000504,2,1
0.0001770756,-0.0001303623,2,1
0.0002190506,-5.889148e-05,2,1
0.0002472499,-1.358292e-06,2,1
0.0002407673,2.943412e-05,2,1
0.0001981441,3.121684e-05,2,1
0.0001351007,1.1769e-05,2,1
7.059871e-05,-1.691656e-05,2,1
1.241726e-05,-4.657452e-05,2,1
-4.673658e-05,-7.752899e-05,2,1
-0.0001167488,-0.0001156143,2,1
-0.0001940539,-0.000166827,2,1
-0.0002554767,-0.0002253326,2,1
-0.0002737901,-0.0002770314,2,1
-0.000236353,-0.0003117133,2,1
-0.0001585616,-0.0003308371,2,1
-7.23429e-05,-0.0003468815,2,1
-1.034161e-06,-0.0003737844,2,1
5.034055e-05,-0.0004096008,2,1
9.247754e-05,-0.0004476861,2,1
0.0001440143,-0.0004776682,2,1
0.0002235884,-0.0004940368,2,1
0.0003354135,-0.0004940368,2,1
0.0004616624,-0.0004757234,2,1
0.0005725152,-0.0004355313,2,1
0.0006410689,-0.0003737844,2,1
0.0006493342,-0.0002919414,2,1
0.0006003904,-0.0001940539,2,1
0.0005214646,-9.000802e-05,2,1
0.0004569625,7.23117e-06,2,1
0.000453235,8.405014e-05,2,1
0.0005425331,0.0001389903,2,1
0.0007245325,0.0001785342,2,1
0.0009645515,0.0002158093,2,1
0.001204571,0.0002602152,2,1
0.001386894,0.0003149933,2,1
0.001480568,0.0003769022,2,1
0.00149872,0.000435894,2,1
0.001483486,0.0004799758,2,1
0.001470682,0.0005047718,2,1
0.001473599,0.0005089855,2,1
0.001472789,0.0004947237,2,1
0.001427249,0.0004645796,2,1
0.001300675,0.0004226047,2,1
0.001087397,0.0003700955,2,1
0.00080751,0.0003073762,2,1
0.0004961824,0.0002347709,2,1
0.0001916615,0.0001571416,2,1
-8.644259e-05,8.599492e-05,2,1
-0.0003298647,3.688912e-05,2,1
-0.0005381186,1.630683e-05,2,1
-0.0007103939,2.489629e-05,2,1
-0.0008530114,5.666109e-05,2,1
-0.0009705087,9.717743e-05,2,1
-0.001061914,0.0001325077,2,1
-0.001118799,0.0001527658,2,1
-0.001136626,0.0001566554,2,1
-0.001123823,0.0001503349,2,1
-0.001094975,0.0001385041,2,1
-0.00106402,0.0001273216,2,1
-0.001037604,0.000123432,2,1
-0.001023342,0.0001257009,2,1
-0.001018642,0.0001268354,2,1
-0.001010215,0.000120839,2,1
-0.0009729397,0.0001090082,2,1
-0.0008898003,9.474644e-05,2,1
-0.0007624169,8.648112e-05,2,1
-0.0006139652,8.972242e-05,2,1
-0.0004788027,0.000105929,2,1
-0.0003914495,0.0001318594,2,1
-0.0003669776,0.0001608691,2,1
-0.0003972838,0.0001864754,2,1
-0.0004595169,0.0002051129,2,1
-0.0005301774,0.0002161334,2,1
-0.000586414,0.0002214815,2,1
-0.0006144513,0.0002213195,2,1
-0.0006103997,0.0002140265,2,1
-0.0005826865,0.0001976579,2,1
-0.0005452494,0.0001671896,2,1
-0.0005138087,0.0001203528,2,1
-0.0004967919,6.281957e-05,2,1
-0.0004836646,6.90704e-06,2,1
-0.0004601652,-3.749886e-05,2,1
-0.0004224039,-6.586029e-05,2,1
-0.0003690845,-7.007399e-05,2,1
-0.0003036101,-5.127441e-05,2,1
-0.0002327876,-1.562004e-05,2,1
-0.0001689338,2.943412e-05,2,1
-0.0001242038,7.30297e-05,2,1
-9.794922e-05,0.0001038221,2,1
-8.352541e-05,0.0001125736,2,1
-7.23429e-05,9.977047e-05,2,1
-6.521203e-05,7.756752e-05,2,1
-7.201877e-05,5.439218e-05,2,1
-9.130454e-05,3.494434e-05,2,1
-0.0001070249,1.59827e-05,2,1
-0.000104918,-1.034161e-06,2,1
-7.590833e-05,-1.399939e-05,2,1
-2.145439e-05,-2.177852e-05,2,1
5.115087e-05,-2.761287e-05,2,1
0.0001242423,-3.182657e-05,2,1
0.0001712413,-3.749886e-05,2,1
0.0001701068,-4.85193e-05,2,1
0.0001107909,-6.650855e-05,2,1
1.883015e-06,-8.935975e-05,2,1
-0.0001324691,-0.0001128592,2,1
-0.0002583939,-0.0001394379,2,1
-0.0003468815,-0.0001666649,2,1
-0.00038286,-0.0001849783,2,1
-0.0003664914,-0.0001833576,2,1
-0.0003147926,-0.0001642339,2,1
-0.0002564491,-0.000137169,2,1
-0.0002151224,-0.0001167488,2,1
-0.0001972953,-0.000112211,2,1
-0.0001849783,-0.0001280934,2,1
-0.0001480274,-0.0001622891,2,1
-5.889148e-05,-0.0002113949,2,1
9.733949e-05,-0.0002681178,2,1
0.0003198552,-0.0003214373,2,1
0.0005880735,-0.0003569296,2,1
0.0008634226,-0.0003619536,2,1
0.00109939,-0.0003363473,2,1
0.001259511,-0.0002898345,2,1
0.00132531,-0.000233922,2,1
0.001307644,-0.0001726613,2,1
0.001228394,-0.0001031353,2,1
0.001109114,-2.955766e-05,2,1
0.0009742755,3.55926e-05,2,1
0.0008493229,8.453633e-05,2,1
0.0007656972,0.0001107909,2,1
0.0007447907,0.0001161391,2,1
0.0007903311,0.0001073875,2,1
0.0008781706,0.0001000946,2,1
0.0009681169,0.0001049566,2,1
0.001020464,0.0001265113,2,1
0.001008471,0.0001571416,2,1
0.0009182008,0.0001902029,2,1
0.0007543526,0.000217592,2,1
0.0005413986,0.000234933,2,1
0.0003125623,0.0002380122,2,1
9.766362e-05,0.0002286124,2,1
-8.190475e-05,0.0002138645,2,1
-0.0002162569,0.0002068957,2,1
-0.0003006929,0.0002140265,2,1
-0.0003442885,0.0002289366,2,1
-0.0003619536,0.0002397949,2,1
-0.0003685983,0.0002292607,2,1
-0.0003771877,0.0001871237,2,1
-0.0003922598,0.0001138702,2,1
-0.0004131662,2.489629e-05,2,1
-0.000434883,-6.229485e-05,2,1
-0.0004561135,-0.0001289037,2,1
-0.0004778303,-0.0001700683,2,1
-0.0005014918,-0.0001912988,2,1
-0.0005282326,-0.0002052365,2,1
-0.0005535148,-0.0002254946,2,1
-0.0005693972,-0.0002596904,2,1
-0.0005702075,-0.0003053928,2,1
-0.000556594,-0.0003559572,2,1
-0.0005382806,-0.0004047388,2,1
-0.0005254775,-0.0004441207,2,1
-0.0005222362,-0.0004705373,2,1
-0.0005238568,-0.0004749131,2,1
-0.0005287188,-0.0004491447,2,1
-0.0005279084,-0.0003929081,2,1
-0.0005092709,-0.0003134961,2,1
-0.0004664857,-0.000223874,2,1
-0.0004081422,-0.0001334415,2,1
-0.0003493125,-4.997789e-05,2,1
-0.0003065273,2.035846e-05,2,1
-0.0002805968,7.416415e-05,2,1
-0.0002669833,0.000111115,2,1
-0.0002525595,0.0001321835,2,1
-0.0002293842,0.0001412592,2,1
-0.0001938919,0.0001419075,2,1
-0.0001468929,0.0001398006,2,1
-9.405965e-05,0.0001375317,2,1
-4.252288e-05,0.0001321835,2,1
-2.238346e-07,0.0001237561,2,1
2.975825e-05,0.0001124116,2,1
4.158902e-05,0.0001009049,2,1
3.121684e-05,9.231547e-05,2,1
-4.761664e-06,8.777764e-05,2,1
-6.44017e-05,8.550872e-05,2,1
-0.0001323071,8.550872e-05,2,1
-0.0001869231,8.696731e-05,2,1
-0.0002092881,9.16672e-05,2,1
-0.0001861127,0.0001013911,2,1
-0.0001149661,0.000120839,2,1
-7.030578e-06,0.0001487142,2,1
0.0001161391,0.0001788584,2,1
0.0002294227,0.0002088404,2,1
0.0003175863,0.000239957,2,1
0.0003793332,0.0002705873,2,1
0.0004303838,0.0002968419,2,1
0.0004835413,0.0003156415,2,1
0.0005456123,0.0003256896,2,1
0.0006029835,0.0003281205,2,1
0.0006326414,0.0003250413,2,1
0.0006193521,0.0003177483,2,1
0.0005686256,0.0003075383,2,1
0.0005021787,0.0002955454,2,1
0.0004443214,0.0002819319,2,1
0.0004102877,0.0002670219,2,1
0.0004044533,0.0002506533,2,1
0.0004245494,0.0002363916,2,1
0.0004568005,0.0002219677,2,1
0.0004801379,0.0002033302,2,1
0.0004632831,0.0001765894,2,1
0.0003897054,0.000140773,2,1
0.0002683184,0.0001039842,2,1
0.0001263492,7.400208e-05,2,1
-1.432352e-05,5.374392e-05,2,1
-0.0001418689,3.996837e-05,2,1
-0.0002468872,2.667901e-05,2,1
-0.0003264613,1.144487e-05,2,1
-0.0003831841,-1.844488e-06,2,1
-0.0004198109,-7.516774e-06,2,1
-0.000434883,-1.844488e-06,2,1
-0.0004269418,1.193106e-05,2,1
-0.000400039,2.959619e-05,2,1
-0.0003609812,5.050261e-05,2,1
-0.0003167374,7.513654e-05,2,1
-0.0002723315,0.0001009049,2,1
-0.0002352185,0.0001221355,2,1
-0.0002081536,0.0001323456,2,1
-0.0001914609,0.0001265113,2,1
-0.0001759026,0.0001039842,2,1
-0.0001387897,6.914012e-05,2,1
-4.835724e-05,2.619281e-05,2,1
0.0001214872,-2.339918e-05,2,1
0.0003731747,-7.137051e-05,2,1
0.0006720233,-0.0001110765,2,1
0.0009543414,-0.0001392759,2,1
0.001149468,-0.0001598582,2,1
0.001206191,-0.0001763888,2,1
0.001111059,-0.0001943781,2,1
0.000899077,-0.0002225774,2,1
0.0006344241,-0.0002619593,2,1
0.0003900295,-0.0003063652,2,1
0.0002263435,-0.0003468815,2,1
0.0001809652,-0.0003783222,2,1
0.0002532463,-0.0003995528,2,1
0.0003927847,-0.0004118697,2,1
0.0005256782,-0.0004181903,2,1
0.0005851563,-0.0004172179,2,1
0.0005362125,-0.000402794,2,1
0.0003832228,-0.0003690845,2,1
0.0001590864,-0.0003201407,2,1
-8.417367e-05,-0.0002655248,2,1
-0.0002995585,-0.0002151224,2,1
-0.0004540067,-0.0001778474,2,1
-0.0005408737,-0.0001561307,2,1
-0.0005766901,-0.0001467309,2,1
-0.0005805797,-0.0001441378,2,1
-0.000568911,-0.0001439758,2,1
-0.0005512458,-0.0001436516,2,1
-0.000529205,-0.0001457585,2,1
-0.0004990608,-0.0001504584,2,1
-0.0004574101,-0.000159534,2,1
-0.000407656,-0.0001759026,2,1
-0.0003643846,-0.0001948643,2,1
-0.0003436402,-0.0002076674,2,1
-0.0003520676,-0.0002078295,2,1
-0.0003870737,-0.0001921092,2,1
-0.0004321279,-0.0001603444,2,1
-0.0004651892,-0.0001151281,2,1
-0.0004694029,-6.586029e-05,2,1
-0.0004356933,-1.950961e-05,2,1
-0.0003648708,2.035846e-05,2,1
-0.0002731418,5.536457e-05,2,1
-0.0001853024,8.291568e-05,2,1
-0.0001159385,9.814982e-05,2,1
-6.829127e-05,0.0001004187,2,1
-4.47918e-05,9.896015e-05,2,1
-4.868137e-05,0.000101067,2,1
-7.914964e-05,0.0001104668,2,1
-0.0001280934,0.0001247285,2,1
-0.0001815749,0.0001433661,2,1
-0.0002227395,0.0001670276,2,1
-0.0002429977,0.0001973338,2,1
-0.0002459149,0.0002303951,2,1
-0.0002451045,0.0002608634,2,1
-0.0002501286,0.0002807975,2,1
-0.000266011,0.0002854973,2,1
-0.0002942103,0.0002764217,2,1
-0.0003254889,0.0002592428,2,1
-0.0003423437,0.0002401191,2,1
-0.0003199787,0.000225047,2,1
-0.0002300324,0.0002167816,2,1
-5.257093e-05,0.0002162954,2,1
0.0002096508,0.000220023,2,1
0.0005214646,0.0002237505,2,1
0.0008233925,0.0002265056,2,1
0.001050932,0.0002256952,2,1
0.001156113,0.0002137024,2,1
0.001128724,0.0001814514,2,1
0.0009901578,0.0001354248,2,1
0.0007827141,9.199134e-05,2,1
0.0005519328,7.011252e-05,2,1
0.0003352514,8.080883e-05,2,1
0.0001573037,0.0001211631,2,1
2.635488e-05,0.0001786963,2,1
-6.44017e-05,0.0002355812,2,1
-0.0001311726,0.0002767458,2,1
-0.0001854645,0.0002944109,2,1
-0.0002311669,0.0002947351,2,1
-0.0002697385,0.000297004,2,1
-0.0003013411,0.0003195311,2,1
-0.000325651,0.0003649094,2,1
-0.0003460712,0.0004175806,2,1
-0.0003611433,0.0004525868,2,1
-0.0003707051,0.0004527488,2,1
-0.0003750809,0.0004122325,2,1
-0.0003755671,0.0003386548,2,1
-0.0003682741,0.0002516257,2,1
-0.0003522297,0.0001641104,2,1
-0.0003308371,8.113296e-05,2,1
-0.0003068514,4.962256e-06,2,1
-0.0002815692,-6.0188e-05,2,1
-0.0002575835,-0.0001084835,2,1
-0.0002405667,-0.0001336036,2,1
-0.0002350565,-0.0001408965,2,1
-0.000238946,-0.0001413827,2,1
-0.0002447804,-0.000149486,2,1
-0.0002442942,-0.0001759026,2,1
-0.0002357047,-0.0002254946,2,1
-0.0002224154,-0.0002898345,2,1
-0.0002079916,-0.0003548227,2,1
-0.0001994021,-0.0004112214,2,1
-0.0002000504,-0.000459841,2,1
-0.000206695,-0.0005108916,2,1
-0.0002130156,-0.0005747453,2,1
-0.0002104225,-0.000650916,2,1
-0.000191623,-0.0007217386,2,1
-0.0001543479,-0.0007653341,2,1
-0.0001026491,-0.0007684134,2,1
-4.300908e-05,-0.0007345417,2,1
1.663096e-05,-0.0006791154,2,1
6.168512e-05,-0.0006204477,2,1
8.080883e-05,-0.0005668041,2,1
7.043665e-05,-0.0005107295,2,1
3.802358e-05,-0.0004421759,2,1
-5.409925e-06,-0.0003540124,2,1
-4.738484e-05,-0.0002451045,2,1
-7.931171e-05,-0.000122097,2,1
-9.794922e-05,2.207145e-06,2,1
-0.0001016767,0.0001154908,2,1
-8.887356e-05,0.0002111094,2,1
-5.727083e-05,0.000284687,2,1
-1.20546e-05,0.0003328204,2,1
3.462021e-05,0.0003561579,2,1
7.20573e-05,0.0003587509,2,1
9.766362e-05,0.0003482167,2,1
0.0001156529,0.0003308757,2,1
0.0001305629,0.0003086727,2,1
0.0001373696,0.0002782044,2,1
0.0001237561,0.0002419018,2,1
8.437427e-05,0.0002017096,2,1
3.60788e-05,0.0001584381,2,1
6.096713e-06,0.0001137081,2,1
1.954813e-05,7.351589e-05,2,1
9.280167e-05,4.547859e-05,2,1
0.0002278021,3.397195e-05,2,1
0.0004107739,3.753739e-05,2,1
0.0006123833,5.374392e-05,2,1
0.0007856312,7.789165e-05,2,1
0.0008833567,0.0001075496,2,1
0.0008893532,0.0001401247,2,1
0.0008245269,0.0001746447,2,1
0.00072826,0.0002094887,2,1
0.0006332897,0.0002440086,2,1
0.0005486915,0.0002762596,2,1
0.0004694416,0.0003023522,2,1
0.000388733,0.0003200173,2,1
0.0003086727,0.0003344411,2,1
0.0002341226,0.0003506476,2,1
0.0001796687,0.0003730126,2,1
0.0001650828,0.0004005638,2,1
0.0002015475,0.0004226047,2,1
0.000274801,0.0004316803,2,1
0.0003487029,0.0004247115,2,1
0.00038614,0.0003984569,2,1
0.0003712299,0.0003532407,2,1
0.0003060797,0.0002926282,2,1
0.0002083542,0.0002198609,2,1
9.231547e-05,0.0001401247,2,1
-3.101625e-05,5.876794e-05,2,1
-0.0001554824,-1.659243e-05,2,1
-0.000276221,-8.060823e-05,2,1
-0.0003859393,-0.0001259865,2,1
-0.0004737787,-0.0001465688,2,1
-0.000534229,-0.0001433275,2,1
-0.0005724764,-0.0001235555,2,1
-0.0005930586,-0.0001016767,2,1
-0.0005967862,-9.227693e-05,2,1
-0.0005802555,-0.0001081593,2,1
-0.0005347152,-0.0001540238,2,1
-0.0004507654,-0.0002212809,2,1
-0.0003274337,-0.0002969654,2,1
-0.0001700683,-0.0003647087,2,1
9.106227e-07,-0.0004155972,2,1
0.0001586002,-0.000444931,2,1
0.0002936006,-0.0004585445,2,1
0.0004112601,-0.0004642168,2,1
0.0005193577,-0.0004637306,2,1
0.0006222692,-0.000454817,2,1
0.0007152948,-0.000437314,2,1
0.0007820658,-0.0004167317,2,1
0.0008016757,-0.0003906392,2,1
0.0007613214,-0.0003611433,2,1
0.0006606788,-0.0003269475,2,1
0.0005140096,-0.0002856209,2,1
0.0003508097,-0.0002378116,2,1
0.0002057612,-0.0001887058,2,1
0.0001026876,-0.0001408965,2,1
4.953022e-05,-9.211487e-05,2,1
3.591673e-05,-3.895745e-05,2,1
3.624086e-05,1.857574e-05,2,1
2.441009e-05,7.853991e-05,2,1
-1.25408e-05,0.0001410971,2,1
-6.748094e-05,0.0002023578,2,1
-0.0001248521,0.0002589186,2,1
-0.0001791439,0.0003077003,2,1
-0.0002285739,0.0003454615,2,1
-0.0002642282,0.0003683128,2,1
-0.0002699005,0.0003772264,2,1
-0.0002318152,0.0003757678,2,1
-0.0001491618,0.0003702575,2,1
-3.393342e-05,0.000366368,2,1
8.891209e-05,0.0003652335,2,1
0.0001918236,0.0003644232,2,1
0.0002470879,0.0003605336,2,1
0.0002441707,0.0003521062,2,1
0.0001950649,0.0003381686,2,1
0.0001245665,0.0003221241,2,1
6.136099e-05,0.000302028,2,1
2.505836e-05,0.0002751252,2,1
1.776542e-05,0.000242388,2,1
2.927205e-05,0.0002112714,2,1
4.596478e-05,0.000190365,2,1
4.888196e-05,0.0001838824,2,1
2.619281e-05,0.0001906891,2,1
-3.166451e-05,0.0002025199,2,1
-0.0001293899,0.0002133783,2,1
-0.0002585559,0.0002229401,2,1
-0.0004037664,0.0002295848,2,1
-0.0005501114,0.0002289366,2,1
-0.0006862463,0.0002192126,2,1
-0.0008035815,0.0001989545,2,1
-0.0008970932,0.0001718896,2,1
-0.0009590021,0.0001415833,2,1
-0.0009808809,0.0001130598,2,1
-0.0009590021,9.31258e-05,2,1
-0.0008975794,8.372601e-05,2,1
-0.0008141157,8.145709e-05,2,1
-0.0007382692,8.113296e-05,2,1
-0.0006951598,8.097089e-05,2,1
-0.0006990494,7.853991e-05,2,1
-0.0007426449,6.703327e-05,2,1
-0.0008069849,4.239934e-05,2,1
-0.000871811,7.717366e-06,2,1
-0.0009192961,-3.004385e-05,2,1
-0.000938906,-6.375344e-05,2,1
-0.0009249684,-8.903562e-05,2,1
-0.0008729455,-0.0001099421,2,1
-0.0007760304,-0.0001337657,2,1
-0.0006274165,-0.0001622891,2,1
-0.0004329382,-0.0001887058,2,1
-0.0002039399,-0.0002055606,2,1
4.434413e-05,-0.000206695,2,1
0.0002931144,-0.000189192,2,1
0.000522599,-0.0001579134,2,1
0.0007222636,-0.000119828,2,1
0.0008856256,-8.320128e-05,2,1
0.001007499,-5.986387e-05,2,1
0.001084156,-5.727083e-05,2,1
0.001109114,-7.396356e-05,2,1
0.001081725,-0.0001005423,2,1
0.00101463,-0.0001240417,2,1
0.0009288971,-0.0001399241,2,1
0.0008527263,-0.0001509446,2,1
0.0008050791,-0.0001614788,2,1
0.0007877381,-0.0001780095,2,1
0.0007880622,-0.0002049123,2,1
0.0007947069,-0.000238784,2,1
0.0008105893,-0.000268766,2,1
0.000832144,-0.0002856209,2,1
0.0008515919,-0.0002817312,2,1
0.0008598572,-0.0002621213,2,1
0.0008598572,-0.0002368392,2,1
0.0008562917,-0.0002154466,2,1
0.0008415438,-0.0001987538,2,1
0.0007914656,-0.0001825473,2,1
0.000686123,-0.000164396,2,1
0.0005217887,-0.0001481895,2,1
0.0003135347,-0.0001360346,2,1
8.79397e-05,-0.0001305243,2,1
-0.000127283,-0.0001334415,2,1
-0.0003131719,-0.0001447861,2,1
-0.0004694029,-0.0001577513,2,1
-0.0006016482,-0.000164396,2,1
-0.0007160662,-0.0001574272,2,1
-0.000814764,-0.0001365208,2,1
-0.0008969311,-0.0001011905,2,1
-0.0009578677,-5.516398e-05,2,1
-0.000991091,-7.354709e-06,2,1
-0.0009941703,3.510641e-05,2,1
-0.0009672674,6.427817e-05,2,1
-0.0009167031,7.659513e-05,2,1
-0.0008497701,7.335383e-05,2,1
-0.0007734374,6.136099e-05,2,1
-0.0006945116,5.19612e-05,2,1
-0.0006163961,5.309566e-05,2,1
-0.0005374703,6.314371e-05,2,1
-0.0004559515,7.124698e-05,2,1
-0.0003690845,6.654708e-05,2,1
-0.0002771934,4.807163e-05,2,1
-0.0001864369,2.376183e-05,2,1
-0.0001110765,3.827799e-06,2,1
-5.581224e-05,-1.682422e-06,2,1
-1.756482e-05,9.824215e-06,2,1
1.12828e-05,3.18651e-05,2,1
4.742337e-05,5.876794e-05,2,1
0.0001083599,8.891209e-05,2,1
0.0002008992,0.0001231079,2,1
0.0003203414,0.0001594105,2,1
0.0004498317,0.0001924718,2,1
0.0005676532,0.0002190506,2,1
0.0006472273,0.0002334744,2,1
0.0006569512,0.0002344468,2,1
0.0005845079,0.0002268297,2,1
0.0004373526,0.0002167816,2,1
0.0002477361,0.0001999268,2,1
6.362991e-05,0.0001765894,2,1
-7.23429e-05,0.0001511452,2,1
-0.0001426792,0.0001305629,2,1
-0.0001648822,0.0001237561,2,1
-0.0001674752,0.0001331559,2,1
-0.0001762268,0.0001470936,2,1
-0.000206695,0.0001524417,2,1
-0.0002643903,0.0001448246,2,1
-0.0003460712,0.0001227837,2,1
-0.0004452552,8.939829e-05,2,1
-0.0005510838,4.82337e-05,2,1
-0.0006502678,1.883015e-06,2,1
-0.0007241695,-4.706071e-05,2,1
-0.0007594998,-9.551824e-05,2,1
-0.0007470207,-0.0001373311,2,1
-0.0006834911,-0.0001695821,2,1
-0.0005625904,-0.0001945401,2,1
-0.000370543,-0.0002191741,2,1
-0.0001002181,-0.000251263,2,1
0.0002333123,-0.0002979378,2,1
0.0005812666,-0.0003577399,2,1
0.0008796292,-0.0004212695,2,1
0.001078321,-0.0004755614,2,1
0.001163568,-0.0005105674,2,1
0.001156437,-0.0005183466,2,1
0.001096473,-0.0004959816,2,1
0.001017385,-0.000442338,2,1
0.000941052,-0.0003611433,2,1
0.0008836808,-0.0002642282,2,1
0.0008596951,-0.0001695821,2,1
0.0008754155,-9.438378e-05,2,1
0.000923711,-4.625038e-05,2,1
0.0009895095,-2.129233e-05,2,1
0.001051743,-9.299493e-06,2,1
0.00107897,-7.100305e-07,2,1
0.001041857,9.013889e-06,2,1
0.0009276005,2.359977e-05,2,1
0.0007421977,4.304761e-05,2,1
0.0005106062,6.930219e-05,2,1
0.0002752873,0.0001049566,2,1
8.226741e-05,0.0001517934,2,1
-4.041603e-05,0.0002060853,2,1
-8.255302e-05,0.0002589186,2,1
-4.657452e-05,0.0003021901,2,1
6.184718e-05,0.0003286068,2,1
0.0002352571,0.0003349273,2,1
0.000450804,0.000321638,2,1
0.0006684579,0.0002966799,2,1
0.0008373301,0.0002668598,2,1
0.0009170663,0.0002427121,2,1
