EMG1,EMG2,class,user
0.0006676476,-0.000263742,2,1
0.0007540284,-0.0002549905,2,1
0.0008342508,-0.000248832,2,1
0.0008653674,-0.000246239,2,1
0.0008266338,-0.0002470493,2,1
0.0007152948,-0.0002502906,2,1
0.0005420469,-0.0002515871,2,1
0.0003305515,-0.0002460769,2,1
0.0001156529,-0.0002303566,2,1
-6.942573e-05,-0.0002068571,2,1
-0.0002102605,-0.0001814128,2,1
-0.0003073376,-0.0001574272,2,1
-0.0003685983,-0.0001374932,2,1
-0.000402632,-0.0001182074,2,1
-0.0004053871,-9.616651e-05,2,1
-0.0003567675,-6.926366e-05,2,1
-0.0002329496,-3.766092e-05,2,1
-2.826114e-05,-5.57199e-06,2,1
0.0002180782,2.230325e-05,2,1
0.0004300596,4.596478e-05,2,1
0.0005428572,6.83298e-05,2,1
0.0005454503,9.16672e-05,2,1
0.0004861343,0.0001146805,2,1
0.0004420525,0.0001349386,2,1
0.0004815964,0.0001534141,2,1
0.0006297242,0.0001739964,2,1
0.0008541849,0.0001966855,2,1
0.00107978,0.0002182402,2,1
0.001226449,0.0002334744,2,1
0.001239415,0.0002383363,2,1
0.001103766,0.0002318537,2,1
0.0008400852,0.000217592,2,1
0.0005013684,0.0001987924,2,1
0.0001633001,0.0001846927,2,1
-0.0001149661,0.0001812893,2,1
-0.0003121996,0.0001872858,2,1
-0.0004382863,0.0001963614,2,1
-0.0005206155,0.0002012234,2,1
-0.0005825245,0.0001989545,2,1
-0.0006392473,0.000192796,2,1
-0.0006972667,0.0001876099,2,1
-0.0007536653,0.0001850168,2,1
-0.0008026091,0.0001846927,2,1
-0.0008343739,0.0001872858,2,1
-0.0008436117,0.0001936063,2,1
-0.0008319429,0.0002021958,2,1
-0.0007953162,0.0002109473,2,1
-0.0007296797,0.0002154851,2,1
-0.0006442713,0.00021273,2,1
-0.0005658317,0.0002015475,2,1
-0.0005228845,0.0001861513,2,1
-0.0005300153,0.0001726999,2,1
-0.0005778245,0.0001639484,2,1
-0.0006411921,0.0001584381,2,1
-0.0006907841,0.0001501728,2,1
-0.0007103939,0.0001355869,2,1
-0.0007011562,0.0001088461,2,1
-0.0006703638,7.367795e-05,2,1
-0.0006293613,3.251336e-05,2,1
-0.0005859278,-1.075808e-05,2,1
-0.0005382806,-5.354332e-05,2,1
-0.0004825302,-8.838737e-05,2,1
-0.0004190006,-0.0001102662,2,1
-0.000353202,-0.000122259,2,1
-0.0002971275,-0.0001289037,2,1
-0.0002572594,-0.0001327933,2,1
-0.0002370013,-0.0001339277,2,1
-0.0002357047,-0.0001357104,2,1
-0.000253694,-0.0001396,2,1
-0.0002899966,-0.0001488377,2,1
-0.000333106,-0.0001665028,2,1
-0.0003681121,-0.000189192,2,1
-0.000382698,-0.0002096122,2,1
-0.0003718396,-0.0002217671,2,1
-0.0003421817,-0.000224036,2,1
-0.0003052308,-0.0002224154,2,1
-0.0002664971,-0.0002206326,2,1
-0.0002253326,-0.0002194982,2,1
-0.0001762268,-0.0002178775,2,1
-0.000112211,-0.0002136638,2,1
-3.053005e-05,-0.0002094502,2,1
6.379197e-05,-0.0002050744,2,1
0.0001590864,-0.0002003745,2,1
0.0002422259,-0.0001909747,2,1
0.0003051073,-0.000174282,2,1
0.000349027,-0.0001489998,2,1
0.0003856538,-0.0001182074,2,1
0.0004277907,-8.757704e-05,2,1
0.0004801379,-6.180866e-05,2,1
0.0005425331,-4.511593e-05,2,1
0.0006177314,-3.749886e-05,2,1
0.0007041123,-3.798505e-05,2,1
0.0007942207,-4.106429e-05,2,1
0.0008759017,-4.203669e-05,2,1
0.0009412141,-3.992984e-05,2,1
0.0009924268,-3.247483e-05,2,1
0.001036022,-1.594417e-05,2,1
0.00107038,1.274139e-05,2,1
0.001071515,5.244739e-05,2,1
0.001011713,9.328786e-05,2,1
0.0008856256,0.0001235941,2,1
0.000710757,0.0001402868,2,1
0.0005141716,0.0001483901,2,1
0.0003305515,0.000153252,2,1
0.0001936063,0.0001587623,2,1
0.0001221355,0.0001649207,2,1
0.0001096565,0.000170593,2,1
0.000130725,0.0001731861,2,1
0.0001521176,0.0001709172,2,1
0.0001488763,0.0001652449,2,1
0.0001140322,0.0001574657,2,1
5.487838e-05,0.0001521176,2,1
-1.237873e-05,0.0001500107,2,1
-7.056019e-05,0.0001487142,2,1
-0.0001104282,0.0001396385,2,1
-0.0001310105,0.0001221355,2,1
-0.0001413827,9.879808e-05,2,1
-0.0001512687,7.740546e-05,2,1
-0.0001627754,6.427817e-05,2,1
-0.0001734716,6.379197e-05,2,1
-0.0001806025,7.140904e-05,2,1
-0.0001715269,8.064677e-05,2,1
-0.0001340898,8.777764e-05,2,1
-6.553616e-05,9.426025e-05,2,1
1.144487e-05,0.0001015532,2,1
5.957827e-05,0.0001069013,2,1
5.082674e-05,0.000105929,2,1
-1.351319e-05,0.0001004187,2,1
-0.0001075111,9.069481e-05,2,1
-0.0002044261,7.886404e-05,2,1
-0.0002843243,6.622294e-05,2,1
-0.0003335922,5.406805e-05,2,1
-0.0003438023,4.564065e-05,2,1
-0.0003143064,4.304761e-05,2,1
-0.0002472114,4.709924e-05,2,1
-0.0001559686,6.006447e-05,2,1
-6.748094e-05,7.853991e-05,2,1
-7.030578e-06,9.409818e-05,2,1
9.986281e-06,0.0001000946,2,1
-6.220252e-06,9.199134e-05,2,1
-3.134038e-05,7.481241e-05,2,1
-4.657452e-05,5.795762e-05,2,1
-5.532604e-05,4.418206e-05,2,1
-7.153257e-05,3.299956e-05,2,1
-0.0001034594,2.052053e-05,2,1
-0.0001442999,1.072688e-06,2,1
-0.0001707166,-2.291298e-05,2,1
-0.0001624512,-4.527799e-05,2,1
-0.00010978,-6.359137e-05,2,1
-1.448558e-05,-7.639453e-05,2,1
0.0001175977,-8.303922e-05,2,1
0.0002710735,-8.838737e-05,2,1
0.0004201737,-9.681477e-05,2,1
0.0005345919,-0.0001091317,2,1
0.0005898562,-0.0001232314,2,1
0.0005713807,-0.0001360346,2,1
0.0004802999,-0.0001428413,2,1
0.0003329825,-0.0001387897,2,1
0.000155521,-0.0001224211,2,1
-2.550602e-05,-9.746302e-05,2,1
-0.0001828714,-7.023606e-05,2,1
-0.0002989102,-4.80331e-05,2,1
-0.0003749188,-3.506788e-05,2,1
-0.0004198109,-3.21507e-05,2,1
-0.0004431483,-3.604027e-05,2,1
-0.000442338,-4.284701e-05,2,1
-0.000419973,-4.916756e-05,2,1
-0.0003920977,-5.532604e-05,2,1
-0.0003789705,-6.261898e-05,2,1
-0.0003869116,-7.088431e-05,2,1
-0.0004055492,-7.979791e-05,2,1
-0.0004117076,-9.000802e-05,2,1
-0.0003797808,-9.859748e-05,2,1
-0.0002992343,-0.0001050801,2,1
-0.0001754164,-0.0001067007,2,1
-2.712668e-05,-0.0001018388,2,1
0.0001150046,-8.660465e-05,2,1
0.0002279642,-5.889148e-05,2,1
0.0002976523,-2.388537e-05,2,1
0.0003158036,6.90704e-06,2,1
0.0002825802,2.489629e-05,2,1
0.0002068957,2.846173e-05,2,1
0.0001052807,2.748934e-05,2,1
-7.354709e-06,3.040651e-05,2,1
-0.0001175591,4.288554e-05,2,1
-0.000211557,6.735741e-05,2,1
-0.0002731418,9.361199e-05,2,1
-0.0002893484,0.0001103047,2,1
-0.0002595283,0.0001078737,2,1
-0.0001950263,8.583286e-05,2,1
-0.0001161005,5.050261e-05,2,1
-3.782299e-05,1.64689e-05,2,1
3.769945e-05,-1.682422e-06,2,1
0.0001182459,1.396819e-06,2,1
0.0002078681,2.165498e-05,2,1
0.000289387,5.001642e-05,2,1
0.0003310377,7.286763e-05,2,1
0.0003102934,8.259155e-05,2,1
0.0002266676,8.323981e-05,2,1
0.0001096565,8.210535e-05,2,1
-4.761664e-06,8.372601e-05,2,1
-9.632857e-05,9.328786e-05,2,1
-0.0001554824,0.0001143563,2,1
-0.0001804405,0.0001453108,2,1
-0.0001754164,0.000177886,2,1
-0.0001439758,0.0002046267,2,1
-9.600444e-05,0.0002268297,2,1
-4.965376e-05,0.0002483844,2,1
-1.99958e-05,0.0002757735,2,1
-1.108221e-05,0.0003185587,2,1
-1.756482e-05,0.0003859779,2,1
-2.971972e-05,0.0004794896,2,1
-4.268495e-05,0.0005883976,2,1
-5.889148e-05,0.0006901747,2,1
-7.850138e-05,0.0007558112,2,1
-9.940781e-05,0.0007676419,2,1
-0.0001219349,0.0007269635,2,1
-0.0001457585,0.0006446343,2,1
-0.0001729855,0.0005271368,2,1
-0.0001982676,0.0003796573,2,1
-0.0002133397,0.0002104611,2,1
-0.0002156086,3.316162e-05,2,1
-0.0002112329,-0.0001305243,2,1
-0.0002062088,-0.000268766,2,1
-0.0002011848,-0.0003804291,2,1
-0.0001901644,-0.0004702132,2,1
-0.0001679614,-0.0005387668,2,1
-0.0001280934,-0.0005877105,2,1
-6.667062e-05,-0.0006188271,2,1
1.355172e-05,-0.0006382749,2,1
0.0001104668,-0.0006536711,2,1
0.0002137024,-0.0006630709,2,1
0.0003064038,-0.0006572366,2,1
0.0003697714,-0.0006293613,2,1
0.0003976466,-0.0005823624,2,1
0.0003953777,-0.0005251534,2,1
0.0003754436,-0.0004694029,2,1
0.0003496752,-0.0004224039,2,1
0.0003214759,-0.0003920977,2,1
0.0002882525,-0.0003846427,2,1
0.0002488706,-0.0004010113,2,1
0.0002059233,-0.0004397449,2,1
0.000162976,-0.0004959816,2,1
0.0001232699,-0.000561456,2,1
8.907416e-05,-0.0006253097,2,1
6.055066e-05,-0.0006711741,2,1
3.413401e-05,-0.0006857601,2,1
1.112074e-05,-0.0006598296,2,1
-5.479652e-07,-0.0005951655,2,1
7.717366e-06,-0.0005029504,2,1
3.494434e-05,-0.0004008493,2,1
6.427817e-05,-0.0003055549,2,1
7.6271e-05,-0.0002272773,2,1
5.811968e-05,-0.0001655305,2,1
1.112074e-05,-0.0001125351,2,1
-6.06742e-05,-5.905355e-05,2,1
-0.0001546721,-7.100305e-07,2,1
-0.0002715212,6.119892e-05,2,1
-0.0004073319,0.0001229458,2,1
-0.0005504355,0.0001790204,2,1
-0.000683167,0.0002265056,2,1
-0.0007891576,0.0002675081,2,1
-0.0008530114,0.0003026763,2,1
-0.0008627353,0.0003323342,2,1
-0.0008131433,0.000356644,2,1
-0.0007121767,0.0003744712,2,1
-0.0005810658,0.0003848434,2,1
-0.0004381243,0.0003864641,2,1
-0.0002921034,0.0003781987,2,1
-0.0001459206,0.0003584268,2,1
5.86492e-07,0.0003281205,2,1
0.0001454729,0.0002918179,2,1
0.000282256,0.0002543808,2,1
0.0004033189,0.0002222919,2,1
0.0005073649,0.0002039785,2,1
0.0006000663,0.0002039785,2,1
0.0006992503,0.0002171058,2,1
0.0008292268,0.0002362295,2,1
0.001000044,0.000257298,2,1
0.001198088,0.0002838767,2,1
0.001385112,0.0003153174,2,1
0.001528864,0.0003443271,2,1
0.001617028,0.0003628026,2,1
0.001656248,0.000368799,2,1
0.001655113,0.0003681507,2,1
0.001609411,0.0003673404,2,1
0.001521247,0.0003710679,2,1
0.001402777,0.0003806297,2,1
0.001275879,0.0003960259,2,1
0.001165027,0.0004148255,2,1
0.001094528,0.0004342734,2,1
0.001072163,0.000450804,2,1
0.001083832,0.0004621486,2,1
0.001087397,0.0004623107,2,1
0.001033429,0.0004480489,2,1
0.0008904876,0.0004222805,2,1
0.0006550064,0.0003903536,2,1
0.0003483787,0.0003587509,2,1
1.1769e-05,0.0003310377,2,1
-0.0002992343,0.0003080245,2,1
-0.000541684,0.0002882525,2,1
-0.0007042355,0.000267184,2,1
-0.0008014747,0.0002433604,2,1
-0.0008633836,0.0002158093,2,1
-0.0009167031,0.0001832341,2,1
-0.0009753707,0.0001498487,2,1
-0.001046679,0.000120839,2,1
-0.001126902,9.896015e-05,2,1
-0.001202424,7.951231e-05,2,1
-0.001257364,6.03886e-05,2,1
-0.00128686,3.737532e-05,2,1
-0.001298205,8.365628e-06,2,1
-0.001302419,-2.615429e-05,2,1
-0.00130647,-5.986387e-05,2,1
-0.001306146,-8.773911e-05,2,1
-0.001284429,-0.00010978,2,1
-0.001223979,-0.000127121,2,1
-0.001123985,-0.0001417068,2,1
-0.001000977,-0.0001561307,2,1
-0.000879266,-0.0001712027,2,1
-0.0007797579,-0.0001820611,2,1
-0.0007121767,-0.0001857886,2,1
-0.0006766844,-0.0001814128,2,1
-0.0006656639,-0.0001721751,2,1
-0.0006638812,-0.0001637477,2,1
-0.0006486471,-0.0001582375,2,1
-0.0005998655,-0.0001562927,2,1
-0.0005100812,-0.0001590478,2,1
-0.0003895047,-0.0001655305,2,1
-0.0002436459,-0.0001726613,2,1
-7.299116e-05,-0.0001771992,2,1
0.0001094944,-0.0001797922,2,1
0.0002735045,-0.0001848162,2,1
0.0003830607,-0.0001925954,2,1
0.0004130428,-0.0001997262,2,1
0.0003692851,-0.0002029675,2,1
0.0002851732,-0.0001961608,2,1
0.0001991165,-0.0001794681,2,1
0.0001393144,-0.0001596961,2,1
0.000111115,-0.0001434896,2,1
0.0001007429,-0.0001316588,2,1
8.84259e-05,-0.0001225832,2,1
5.747142e-05,-0.0001151281,2,1
9.013889e-06,-0.0001089697,2,1
-3.571614e-05,-0.0001034594,2,1
-5.548811e-05,-9.373552e-05,2,1
-4.787104e-05,-7.785312e-05,2,1
-3.166451e-05,-5.467778e-05,2,1
-3.134038e-05,-2.874733e-05,2,1
-5.953974e-05,-1.358292e-06,2,1
-0.0001125351,2.522042e-05,2,1
-0.000174444,4.612685e-05,2,1
-0.0002327876,6.006447e-05,2,1
-0.0002831898,6.995045e-05,2,1
-0.0003240303,8.161915e-05,2,1
-0.0003541745,9.507057e-05,2,1
-0.0003674638,0.0001077117,2,1
-0.0003551469,0.0001190562,2,1
-0.0003199787,0.0001287802,2,1
-0.0002817312,0.0001336421,2,1
-0.0002556388,0.0001297526,2,1
-0.000236353,0.0001190562,2,1
-0.0002058847,0.0001056048,2,1
-0.0001460826,9.296373e-05,2,1
-4.560212e-05,8.42122e-05,2,1
0.0001044704,7.821578e-05,2,1
0.0003059176,7.059871e-05,2,1
0.0005316747,5.795762e-05,2,1
0.0007370116,4.175109e-05,2,1
0.0008723363,2.81376e-05,2,1
0.0009041011,1.744129e-05,2,1
0.0008285785,9.175954e-06,2,1
0.0006749405,1.072688e-06,2,1
0.0004968306,-9.137427e-06,2,1
0.0003423823,-2.145439e-05,2,1
0.0002401191,-3.506788e-05,2,1
0.0001986303,-5.030202e-05,2,1
0.0002159713,-6.472583e-05,2,1
0.0002932765,-7.704279e-05,2,1
0.0004266563,-8.887356e-05,2,1
0.0005916389,-0.0001005423,2,1
0.0007449528,-0.0001099421,2,1
0.0008527263,-0.0001191798,2,1
0.0009073424,-0.0001323071,2,1
0.0009201455,-0.000147055,2,1
0.0008911358,-0.0001618029,2,1
0.0008055653,-0.0001737958,2,1
0.0006541961,-0.0001775233,2,1
0.0004418904,-0.0001746061,2,1
0.0001931201,-0.0001736337,2,1
-5.386745e-05,-0.0001812508,2,1
-0.0002579077,-0.000199078,2,1
-0.0003857772,-0.0002196603,2,1
-0.000419973,-0.0002335979,2,1
-0.0003668155,-0.0002394322,2,1
-0.0002566112,-0.0002392702,2,1
-0.0001274451,-0.0002381357,2,1
-1.545797e-05,-0.0002412149,2,1
5.066468e-05,-0.0002470493,2,1
4.72613e-05,-0.0002519113,2,1
-3.198864e-05,-0.0002507768,2,1
-0.0001564548,-0.0002410529,2,1
-0.0002699005,-0.000221605,2,1
-0.0003253268,-0.0001972953,2,1
-0.000301017,-0.0001724993,2,1
-0.0002058847,-0.0001533756,2,1
-6.294311e-05,-0.0001399241,2,1
0.0001049566,-0.0001313347,2,1
0.000277232,-0.0001259865,2,1
0.000448211,-0.0001225832,2,1
0.0006180556,-0.0001161005,2,1
0.0007763935,-0.0001076731,2,1
0.0008974564,-9.632857e-05,2,1
0.0009617964,-7.785312e-05,2,1
0.0009700617,-5.192267e-05,2,1
0.0009337591,-2.161646e-05,2,1
0.0008635847,3.827799e-06,2,1
0.0007575939,1.954813e-05,2,1
0.0006146522,2.76514e-05,2,1
0.0004373526,3.688912e-05,2,1
0.0002422259,4.936815e-05,2,1
5.325772e-05,6.492643e-05,2,1
-0.0001078352,7.999851e-05,2,1
-0.0002374874,9.555677e-05,2,1
-0.0003415334,0.0001104668,2,1
-0.0004245108,0.0001263492,2,1
-0.0004851232,0.0001492004,2,1
-0.0005183466,0.0001739964,2,1
-0.000524181,0.000195227,2,1
-0.0005089468,0.0002093267,2,1
-0.0004898231,0.0002171058,2,1
-0.0004830164,0.0002218057,2,1
-0.0004890127,0.0002282883,2,1
-0.0005023021,0.0002381743,2,1
-0.0005141329,0.0002480603,2,1
-0.0005235327,0.0002540567,2,1
-0.0005379565,0.0002514636,2,1
-0.0005635628,0.0002402811,2,1
-0.0005943552,0.0002299089,2,1
-0.0006128307,0.0002243987,2,1
-0.0006006758,0.0002227781,2,1
-0.0005476804,0.0002247229,2,1
-0.0004616237,0.0002273159,2,1
-0.0003669776,0.0002295848,2,1
-0.0002934,0.0002286124,2,1
-0.000253694,0.0002235884,2,1
-0.0002460769,0.0002112714,2,1
-0.000261149,0.0001910133,2,1
-0.0002857829,0.0001686482,2,1
-0.000313334,0.0001498487,2,1
-0.0003378059,0.0001378558,2,1
-0.0003538503,0.0001292664,2,1
-0.0003619536,0.0001198666,2,1
-0.0003642225,0.0001104668,2,1
-0.0003600088,0.0001044704,2,1
-0.0003476919,0.0001005808,2,1
-0.0003235441,9.31258e-05,2,1
-0.0002943724,8.194328e-05,2,1
-0.0002679557,6.768154e-05,2,1
-0.000251101,5.487838e-05,2,1
-0.0002452666,4.515445e-05,2,1
-0.0002467252,3.429608e-05,2,1
-0.0002421874,1.257933e-05,2,1
-0.0002196603,-1.805102e-05,2,1
-0.000171851,-4.932962e-05,2,1
-9.730096e-05,-7.250496e-05,2,1
-6.868513e-06,-8.741498e-05,2,1
7.853991e-05,-9.973194e-05,2,1
0.0001368834,-0.0001102662,2,1
0.0001579519,-0.0001156143,2,1
0.0001448246,-0.0001164247,2,1
0.0001073875,-0.0001175591,2,1
5.649903e-05,-0.0001233935,2,1
4.151929e-06,-0.0001282554,2,1
-3.522994e-05,-0.0001336036,2,1
-4.641245e-05,-0.0001397621,2,1
-2.437157e-05,-0.0001428413,2,1
2.181705e-05,-0.0001412206,2,1
7.562274e-05,-0.0001374932,2,1
0.000120839,-0.0001363587,2,1
0.0001485521,-0.0001373311,2,1
0.0001587623,-0.0001365208,2,1
0.0001592484,-0.0001331174,2,1
0.000155521,-0.0001274451,2,1
0.0001547106,-0.0001233935,2,1
0.0001587623,-0.0001229073,2,1
0.0001660552,-0.0001258245,2,1
0.0001718896,-0.0001295519,2,1
0.000168,-0.0001298761,2,1
0.0001514693,-0.0001243659,2,1
0.0001276457,-0.000112211,2,1
0.0001039842,-9.632857e-05,2,1
9.31258e-05,-7.898758e-05,2,1
0.000101067,-6.002594e-05,2,1
0.0001245665,-3.587821e-05,2,1
0.0001527658,-3.14101e-06,2,1
0.0001739964,3.55926e-05,2,1
0.0001884202,7.286763e-05,2,1
0.0001957132,9.879808e-05,2,1
0.0002023578,0.0001117633,2,1
0.0002130541,0.000115977,2,1
0.0002265056,0.0001193804,2,1
0.00024255,0.0001229458,2,1
0.0002658874,0.0001289422,2,1
0.0003124002,0.0001347766,2,1
0.0004025085,0.0001402868,2,1
0.000537509,0.0001445005,2,1
0.0006929298,0.0001509831,2,1
0.0008190167,0.0001650828,2,1
0.0008694191,0.0001845306,2,1
0.0008240407,0.0002039785,2,1
0.0006986021,0.0002205092,2,1
0.0005302161,0.000230071,2,1
0.0003579406,0.0002297469,2,1
0.0002085163,0.0002198609,2,1
8.988449e-05,0.0002007372,2,1
-7.100305e-07,0.0001762653,2,1
-7.282909e-05,0.0001516314,2,1
-0.0001327933,0.0001325077,2,1
-0.0001823853,0.0001192183,2,1
-0.0002280877,0.0001098185,2,1
-0.0002718453,0.0001017153,2,1
-0.0003146305,9.555677e-05,2,1
-0.0003515814,9.409818e-05,2,1
-0.0003645466,0.0001013911,2,1
-0.0003421817,0.0001143563,2,1
-0.0002898345,0.0001294284,2,1
-0.0002243602,0.0001420695,2,1
-0.0001682856,0.0001480659,2,1
-0.0001449482,0.0001508211,2,1
-0.0001624512,0.0001521176,2,1
-0.0002135018,0.0001573037,2,1
-0.0002822175,0.0001634622,2,1
-0.0003517435,0.0001616794,2,1
-0.0004099249,0.0001480659,2,1
-0.0004459034,0.0001201907,2,1
-0.0004595169,7.999851e-05,2,1
-0.0004556273,3.543054e-05,2,1
-0.0004413656,-6.176923e-08,2,1
-0.0004198109,-2.031993e-05,2,1
-0.0003807532,-2.404744e-05,2,1
-0.0003125237,-1.643037e-05,2,1
-0.0002154466,-4.599598e-06,2,1
-0.0001000561,5.124321e-06,2,1
1.533444e-05,1.047248e-05,2,1
0.000118408,8.851824e-06,2,1
0.0002229401,-3.951337e-06,2,1
0.0003579406,-2.566809e-05,2,1
0.000534754,-5.402952e-05,2,1
0.0007253428,-8.660465e-05,2,1
0.0008812498,-0.0001232314,2,1
0.0009590413,-0.0001656925,2,1
0.0009476967,-0.0002182017,2,1
0.0008695811,-0.0002755728,2,1
0.0007661834,-0.0003271096,2,1
0.0006767232,-0.0003609812,2,1
0.0006200004,-0.0003739464,2,1
0.0005971491,-0.0003664914,2,1
0.0005977973,-0.0003386162,2,1
0.0006154625,-0.0002966413,2,1
0.0006485239,-0.0002504527,2,1
0.0006890402,-0.0002099363,2,1
0.0007154569,-0.0001815749,2,1
0.0006998986,-0.0001707166,2,1
0.0006311828,-0.0001771992,2,1
0.0005081752,-0.0001961608,2,1
0.0003404375,-0.0002219292,2,1
0.000145797,-0.0002501286,2,1
-5.64605e-05,-0.000276221,2,1
-0.0002451045,-0.000295993,2,1
-0.0003989045,-0.0003036101,2,1
-0.0004950092,-0.0002940482,2,1
-0.0005105674,-0.0002653627,2,1
-0.0004360174,-0.0002206326,2,1
-0.0002809209,-0.0001702304,2,1
-7.412562e-05,-0.0001211246,2,1
0.000145797,-6.958779e-05,2,1
0.0003440029,-1.464765e-05,2,1
0.0004918066,4.142696e-05,2,1
0.0005576051,8.956036e-05,2,1
0.0005277851,0.0001219734,2,1
0.0004132049,0.0001352628,2,1
0.0002456293,0.0001339663,2,1
5.56887e-05,0.0001273216,2,1
-0.0001302002,0.0001239182,2,1
-0.0002875656,0.0001299146,2,1
-0.0003997148,0.0001427178,2,1
-0.0004677822,0.0001561692,2,1
-0.0005000332,0.0001652449,2,1
-0.0005100812,0.0001658931,2,1
-0.0005092709,0.0001566554,2,1
-0.0004946851,0.0001422316,2,1
-0.0004577342,0.0001299146,2,1
-0.0003940425,0.0001253768,2,1
-0.0003143064,0.0001310491,2,1
-0.0002418632,0.0001466074,2,1
-0.0002002124,0.0001678379,2,1
-0.0001995642,0.0001892305,2,1
-0.000231491,0.0002083542,2,1
-0.0002789762,0.000225209,2,1
-0.0003319715,0.0002409294,2,1
-0.0003917736,0.0002545429,2,1
-0.0004562756,0.0002632944,2,1
-0.0005173742,0.0002652392,2,1
-0.000556756,0.0002626462,2,1
-0.0005632387,0.0002582704,2,1
-0.0005411978,0.0002542187,2,1
-0.0004988988,0.0002464396,2,1
-0.000447362,0.0002299089,2,1
-0.0004036044,0.0002080301,2,1
-0.0003830221,0.0001940925,2,1
-0.0003932322,0.0002021958,2,1
-0.000427428,0.0002290986,2,1
-0.0004705373,0.0002611876,2,1
-0.0005031124,0.0002918179,2,1
-0.000507002,0.0003122381,2,1
-0.0004818819,0.0003156415,2,1
-0.0004434724,0.000299597,2,1
-0.0004136524,0.0002641047,2,1
-0.0004039285,0.0002137024,2,1
-0.0004159214,0.0001534141,2,1
-0.0004467137,9.118101e-05,2,1
-0.0004904714,3.397195e-05,2,1
-0.0005316359,-1.383732e-05,2,1
-0.000559187,-5.078821e-05,2,1
-0.0005672903,-7.752899e-05,2,1
-0.0005533527,-9.746302e-05,2,1
-0.0005164018,-0.0001135075,2,1
-0.0004627582,-0.0001253383,2,1
-0.0004006872,-0.0001319829,2,1
-0.0003392644,-0.0001396,2,1
-0.0002833519,-0.0001515928,2,1
-0.0002326255,-0.0001673132,2,1
-0.0001853024,-0.0001861127,2,1
-0.0001303623,-0.0002047502,2,1
-5.127441e-05,-0.0002130156,2,1
6.152305e-05,-0.000204102,2,1
0.0001961994,-0.0001784957,2,1
0.0003182346,-0.000149486,2,1
0.000393757,-0.0001361966,2,1
0.0004107739,-0.0001496481,2,1
0.0003791712,-0.0001878955,2,1
0.0003256896,-0.0002376495,2,1
0.0002809595,-0.0002854588,2,1
0.0002639427,-0.0003217614,2,1
0.0002783665,-0.0003478539,2,1
0.000316776,-0.0003702189,2,1
0.0003606957,-0.0003930701,2,1
0.0003913261,-0.0004149489,2,1
0.0003947294,-0.0004327761,2,1
0.000373985,-0.0004459034,2,1
0.0003399513,-0.0004493068,2,1
0.00030689,-0.0004392588,2,1
0.0002843629,-0.0004159214,2,1
0.0002676702,-0.0003823738,2,1
0.0002438466,-0.0003415334,2,1
0.0002038164,-0.0002980999,2,1
0.0001398006,-0.0002507768,2,1
5.682316e-05,-0.0001977815,2,1
-3.182657e-05,-0.0001405724,2,1
-0.0001084835,-8.190475e-05,2,1
-0.0001634236,-2.680255e-05,2,1
-0.0001951884,2.181705e-05,2,1
-0.000206533,6.703327e-05,2,1
-0.000201671,0.0001122495,2,1
-0.000184168,0.0001550348,2,1
-0.0001556445,0.0001916615,2,1
-0.000119828,0.0002224539,2,1
-8.093236e-05,0.0002466017,2,1
-4.187462e-05,0.0002675081,2,1
-3.789272e-06,0.0002861456,2,1
3.056858e-05,0.0003021901,2,1
5.860588e-05,0.0003213138,2,1
7.481241e-05,0.0003436788,2,1
7.967438e-05,0.0003678266,2,1
7.465034e-05,0.0003903536,2,1
6.379197e-05,0.0004062361,2,1
5.763349e-05,0.0004076947,2,1
6.314371e-05,0.0003948915,2,1
8.810177e-05,0.0003736609,2,1
0.0001487142,0.0003561579,2,1
0.0002618358,0.0003524304,2,1
0.000428277,0.0003613439,2,1
0.0006238899,0.0003778746,2,1
0.0008102651,0.000391164,2,1
0.0009621205,0.0003901916,2,1
0.001075404,0.0003760919,2,1
0.001155951,0.0003593992,2,1
0.001211864,0.0003423823,2,1
0.001250273,0.0003247172,2,1
0.001279283,0.0003049452,2,1
0.001306834,0.0002832284,2,1
0.001319799,0.0002616738,2,1
0.001290141,0.0002383363,2,1
0.001200519,0.0002122438,2,1
0.001050446,0.0001864754,2,1
0.0008442989,0.0001613553,2,1
0.0005862907,0.0001354248,2,1
0.0002953834,0.0001056048,2,1
4.80019e-06,7.367795e-05,2,1
-0.0002433218,4.369587e-05,2,1
-0.0004202971,1.338965e-05,2,1
-0.0005126743,-1.578211e-05,2,1
-0.0005264499,-4.495386e-05,2,1
-0.0004831784,-7.363943e-05,2,1
-0.0004186764,-0.0001008664,2,1
-0.0003642225,-0.000127283,2,1
-0.0003384541,-0.0001548341,2,1
-0.0003391024,-0.000181737,2,1
-0.0003507711,-0.0002053985,2,1
-0.0003591985,-0.0002219292,2,1
-0.0003514194,-0.0002285739,2,1
-0.0003152788,-0.0002300324,2,1
-0.0002541802,-0.0002284118,2,1
-0.0001844921,-0.000223874,2,1
-0.0001232314,-0.0002180396,2,1
-7.882551e-05,-0.00021415,2,1
-5.208474e-05,-0.0002123673,2,1
-3.960571e-05,-0.0002120432,2,1
-4.203669e-05,-0.0002123673,2,1
-5.64605e-05,-0.0002105846,2,1
-8.352541e-05,-0.000206533,2,1
-0.0001186936,-0.0001997262,2,1
-0.0001430034,-0.0001921092,2,1
-0.0001224211,-0.0001908126,2,1
-3.231277e-05,-0.0001987538,2,1
0.0001151667,-0.0002117191,2,1
0.0002778803,-0.0002201465,2,1
0.0003997535,-0.0002198223,2,1
0.0004354078,-0.0002088019,2,1
0.0003697714,-0.0001912988,2,1
0.0002305572,-0.0001715269,2,1
7.011252e-05,-0.0001511067,2,1
-5.451572e-05,-0.0001332795,2,1
-9.746302e-05,-0.000122259,2,1
-4.560212e-05,-0.0001173971,2,1
6.136099e-05,-0.0001149661,2,1
0.0001603829,-0.0001114006,2,1
0.0001965235,-0.0001031353,2,1
0.0001378558,-8.984595e-05,2,1
-1.270286e-05,-6.91016e-05,2,1
-0.0002201465,-4.317115e-05,2,1
-0.0004365036,-1.805102e-05,2,1
-0.0006175305,-2.81688e-06,2,1
-0.0007335693,3.341602e-06,2,1
-0.0007732753,7.23117e-06,2,1
-0.0007407002,1.695509e-05,2,1
-0.0006530228,3.705119e-05,2,1
-0.0005332566,6.427817e-05,2,1
-0.0004019837,9.377406e-05,2,1
-0.000276059,0.0001185701,2,1
-0.0001712027,0.0001325077,2,1
-9.66527e-05,0.000138342,2,1
-4.997789e-05,0.0001430419,2,1
-2.664048e-05,0.0001500107,2,1
-2.323711e-05,0.0001574657,2,1
-3.863332e-05,0.0001616794,2,1
-6.81292e-05,0.0001626518,2,1
-0.0001052422,0.0001608691,2,1
-0.0001423551,0.0001566554,2,1
-0.0001723372,0.0001522796,2,1
-0.0001927574,0.0001487142,2,1
-0.0002097743,0.0001483901,2,1
-0.0002310048,0.0001522796,2,1
-0.0002652006,0.0001590864,2,1
-0.0003156029,0.0001673517,2,1
-0.0003731361,0.0001756171,2,1
-0.0004160834,0.0001832341,2,1
-0.0004271038,0.0001859892,2,1
-0.0004045768,0.0001773998,2,1
-0.0003517435,0.0001545486,2,1
-0.000283514,0.0001213252,2,1
-0.000224036,8.518459e-05,2,1
-0.0001984297,5.714729e-05,2,1
-0.0002128535,3.867184e-05,2,1
-0.0002549905,2.716521e-05,2,1
-0.000298424,1.760335e-05,2,1
-0.0003274337,8.365628e-06,2,1
-0.0003408851,-3.858999e-07,2,1
-0.0003468815,-1.140634e-05,2,1
-0.0003543365,-2.437157e-05,2,1
-0.0003640605,-3.928157e-05,2,1
-0.0003755671,-5.775702e-05,2,1
-0.0003896668,-7.947377e-05,2,1
-0.0004032803,-0.0001063766,2,1
-0.000407656,-0.0001396,2,1
-0.000395339,-0.0001747682,2,1
-0.0003583881,-0.0002034537,2,1
-0.0002895104,-0.0002175534,2,1
-0.0001862748,-0.0002169052,2,1
-5.208474e-05,-0.0002058847,2,1
9.21534e-05,-0.0001943781,2,1
0.0002140265,-0.0001900023,2,1
0.0002816078,-0.000194216,2,1
0.0002901973,-0.0002045882,2,1
0.0002600531,-0.0002172293,2,1
0.0002196988,-0.0002256567,2,1
0.0001866375,-0.0002217671,2,1
0.0001539003,-0.0002057227,2,1
0.0001046324,-0.0001844921,2,1
3.073064e-05,-0.0001686097,2,1
-6.504996e-05,-0.0001605064,2,1
-0.00016942,-0.0001590478,2,1
-0.0002642282,-0.0001645581,2,1
-0.0003324577,-0.000171851,2,1
-0.0003566054,-0.0001760647,2,1
-0.0003295405,-0.0001734716,2,1
-0.0002632558,-0.0001616409,2,1
-0.000174282,-0.0001394379,2,1
-7.931171e-05,-0.0001086455,2,1
9.175954e-06,-7.218083e-05,2,1
7.821578e-05,-3.198864e-05,2,1
0.000130725,7.555301e-06,2,1
0.0001798307,4.110282e-05,2,1
0.0002419018,6.265751e-05,2,1
0.0003310377,7.238143e-05,2,1
0.000462959,7.497447e-05,2,1
0.0006378276,7.724339e-05,2,1
0.0008204753,8.307774e-05,2,1
0.0009593654,9.669123e-05,2,1
0.001012523,0.0001177597,2,1
0.0009718445,0.0001433661,2,1
0.0008671501,0.0001676758,2,1
0.0007494906,0.0001864754,2,1
0.0006700786,0.0001976579,2,1
0.000666189,0.000202682,2,1
0.0007525698,0.0002055991,2,1
0.0009172284,0.00021273,2,1
0.001133262,0.0002260194,2,1
0.00136145,0.0002454672,2,1
0.001550905,0.0002670219,2,1
0.001646037,0.0002879283,2,1
0.001620269,0.0003075383,2,1
0.001494992,0.0003219621,2,1
0.001316882,0.0003273102,2,1
0.00112289,0.0003222862,2,1
0.0009267902,0.00030689,2,1
0.0007357151,0.0002861456,2,1
0.0005556603,0.0002644289,2,1
0.0003890571,0.0002461155,2,1
0.00022764,0.0002333123,2,1
6.427817e-05,0.000225047,2,1
-0.0001039456,0.0002195368,2,1
-0.0002674695,0.0002125679,2,1
-0.0004042526,0.0001989545,2,1
-0.0004959816,0.0001785342,2,1
-0.000534229,0.0001577899,2,1
-0.0005283947,0.0001454729,2,1
-0.0005027883,0.000143204,2,1
-0.0004847991,0.0001487142,2,1
-0.0004935506,0.0001560072,2,1
-0.0005298533,0.0001598967,2,1
-0.000581552,0.0001553589,2,1
-0.0006296854,0.0001402868,2,1
-0.000663395,0.0001156529,2,1
-0.0006817085,8.210535e-05,2,1
-0.0006899738,4.661304e-05,2,1
-0.0006982391,1.630683e-05,2,1
-0.0007162283,-2.978945e-06,2,1
-0.0007523688,-1.351319e-05,2,1
-0.0008090917,-2.177852e-05,2,1
-0.0008781315,-3.668853e-05,2,1
-0.0009504127,-6.0188e-05,2,1
-0.001016859,-8.611845e-05,2,1
-0.001065641,-0.0001089697,2,1
-0.001087034,-0.0001245279,2,1
-0.001080875,-0.0001342519,2,1
-0.001051703,-0.0001417068,2,1
-0.001006811,-0.0001468929,2,1
-0.0009570573,-0.0001498101,2,1
-0.0009087619,-0.0001511067,2,1
-0.0008651663,-0.0001553203,2,1
-0.0008275671,-0.0001681235,2,1
-0.0007964507,-0.0001919471,2,1
-0.0007698719,-0.0002246843,2,1
-0.0007381071,-0.0002593663,2,1
-0.0006904599,-0.0002903207,2,1
-0.0006214201,-0.0003227338,2,1
-0.0005308256,-0.0003585502,2,1
-0.0004266177,-0.0003961493,2,1
-0.0003193304,-0.0004316416,2,1
-0.0002211189,-0.0004590307,2,1
-0.0001399241,-0.0004695649,2,1
-7.833932e-05,-0.0004567618,2,1
-2.291298e-05,-0.0004181903,2,1
5.017848e-05,-0.0003527159,2,1
0.0001595726,-0.0002642282,2,1
0.0003080245,-0.0001605064,2,1
0.0004859722,-5.548811e-05,2,1
0.0006830437,3.786152e-05,2,1
0.0008947013,0.000113546,2,1
0.001115759,0.0001714034,2,1
0.001330658,0.0002167816,2,1
0.001507147,0.0002483844,2,1
0.001612652,0.0002650771,2,1
0.001634369,0.0002670219,2,1
0.001586073,0.0002535705,2,1
0.00149872,0.0002273159,2,1
0.001388029,0.0001986303,2,1
0.001249625,0.0001782101,2,1
0.001077673,0.0001671896,2,1
0.0008814119,0.000162976,2,1
0.0006799645,0.0001576278,2,1
0.0004960203,0.000145635,2,1
0.000339303,0.0001271595,2,1
0.0002140265,0.0001056048,2,1
0.0001177597,8.648112e-05,2,1
4.385793e-05,7.465034e-05,2,1
-1.869928e-05,7.400208e-05,2,1
-7.639453e-05,8.599492e-05,2,1
-0.0001311726,0.0001088461,2,1
-0.0001877334,0.0001412592,2,1
-0.0002486699,0.0001790204,2,1
-0.000313334,0.0002198609,2,1
-0.0003786463,0.0002577842,2,1
-0.0004303451,0.0002908455,2,1
-0.0004506033,0.0003158036,2,1
-0.000430021,0.000329255,2,1
-0.0003711913,0.0003308757,2,1
-0.0002917793,0.000324231,2,1
-0.0002182017,0.0003115899,2,1
-0.0001739578,0.0002963557,2,1
-0.0001658546,0.000274801,2,1
-0.0001807646,0.0002453052,2,1
-0.0001906506,0.0002051129,2,1
-0.0001702304,0.0001571416,2,1
-0.0001135075,0.0001088461,2,1
-3.928157e-05,6.573675e-05,2,1
2.878586e-05,2.846173e-05,2,1
7.999851e-05,-6.868513e-06,2,1
0.0001104668,-4.38194e-05,2,1
0.0001222976,-9.130454e-05,2,1
0.0001158149,-0.0001559686,2,1
9.620504e-05,-0.0002345703,2,1
6.995045e-05,-0.0003152788,2,1
4.077869e-05,-0.0003861013,2,1
1.338965e-05,-0.0004365036,2,1
-1.059602e-05,-0.0004619479,2,1
-3.830919e-05,-0.0004577342,2,1
-7.574627e-05,-0.000424997,2,1
-0.0001240417,-0.0003732982,2,1
-0.000176713,-0.0003141443,2,1
-0.0002254946,-0.0002567732,2,1
-0.0002617972,-0.0002021572,2,1
-0.0002831898,-0.0001425172,2,1
-0.0002895104,-7.363943e-05,2,1
-0.0002809209,3.179537e-06,2,1
-0.0002572594,7.805372e-05,2,1
-0.0002196603,0.0001372076,2,1
-0.0001757406,0.0001731861,2,1
-0.0001402483,0.000187934,2,1
-0.0001274451,0.0001872858,2,1
-0.0001425172,0.0001788584,2,1
-0.0001771992,0.0001683241,2,1
-0.0002222533,0.0001573037,2,1
-0.0002750866,0.0001404489,2,1
-0.0003337542,0.0001130598,2,1
-0.000395339,7.335383e-05,2,1
-0.0004591928,1.873781e-05,2,1
-0.0005212637,-4.47918e-05,2,1
-0.0005757177,-0.0001065387,2,1
-0.0006084549,-0.000161965,2,1
-0.000603593,-0.0002105846,2,1
-0.0005574043,-0.0002540181,2,1
-0.0004797751,-0.0002937241,2,1
-0.0003935563,-0.000333268,2,1
-0.000320789,-0.0003781601,2,1
-0.0002767073,-0.0004240246,2,1
-0.000263742,-0.0004640547,2,1
-0.0002742763,-0.000489499,2,1
-0.0002946965,-0.0004984126,2,1
-0.0003146305,-0.0004935506,2,1
-0.0003177098,-0.0004810716,2,1
-0.0002825416,-0.0004619479,2,1
-0.0001890299,-0.0004293727,2,1
-2.599222e-05,-0.0003685983,2,1
0.0001936063,-0.0002676316,2,1
0.0004323286,-0.0001342519,2,1
0.0006473894,8.527692e-06,2,1
0.000804755,0.0001375317,2,1
0.0008911358,0.0002386605,2,1
0.0009102596,0.0003111037,2,1
0.0008796292,0.0003613439,2,1
0.0008224201,0.0003974845,2,1
0.000755325,0.0004245494,2,1
0.0006927677,0.0004435111,2,1
0.0006457687,0.0004503179,2,1
0.0006318311,0.0004427008,2,1
0.0006682958,0.000420984,2,1
0.0007559733,0.0003892192,2,1
0.0008639088,0.0003527545,2,1
0.0009442933,0.0003196932,2,1
0.0009642274,0.0002957075,2,1
0.000918687,0.0002786906,2,1
0.0008216097,0.0002585945,2,1
0.0006945504,0.0002281262,2,1
0.0005605224,0.0001869616,2,1
0.0004384871,0.0001410971,2,1
0.0003422202,9.361199e-05,2,1
0.0002799871,4.402e-05,2,1
0.0002448189,-1.25408e-05,2,1
0.0002154851,-7.963584e-05,2,1
0.0001676758,-0.000152079,2,1
8.988449e-05,-0.0002175534,2,1
-1.173047e-05,-0.0002614731,2,1
-0.0001146419,-0.000276221,2,1
-0.0001898403,-0.0002579077,2,1
-0.0002298704,-0.0002112329,2,1
-0.0002540181,-0.0001462447,2,1
-0.0002896725,-7.817725e-05,2,1
-0.0003494746,-1.724069e-05,2,1
-0.0004253211,2.959619e-05,2,1
-0.0004976023,5.876794e-05,2,1
-0.0005523803,7.043665e-05,2,1
-0.0005828486,7.108491e-05,2,1
-0.0005959758,7.351589e-05,2,1
-0.0005998655,8.79397e-05,2,1
-0.0005967862,0.0001179218,2,1
-0.0005744212,0.0001598967,2,1
-0.00051705,0.0002043026,2,1
-0.0004215936,0.000239957,2,1
-0.0002982619,0.0002613496,2,1
-0.000169258,0.0002621599,2,1
-6.829127e-05,0.0002477361,2,1
-1.805102e-05,0.000227478,2,1
-2.583016e-05,0.0002062474,2,1
-8.174268e-05,0.000185341,2,1
-0.0001622891,0.0001644345,2,1
-0.0002425115,0.0001438522,2,1
-0.0003018274,0.0001221355,2,1
-0.0003374817,0.0001015532,2,1
-0.0003514194,8.405014e-05,2,1
-0.0003559572,7.30297e-05,2,1
-0.0003664914,6.362991e-05,2,1
-0.0003899909,5.066468e-05,2,1
-0.0004251591,3.154097e-05,2,1
-0.0004619479,9.986281e-06,2,1
-0.0004817198,-1.25408e-05,2,1
-0.0004668098,-3.814712e-05,2,1
-0.0004068457,-6.44017e-05,2,1
-0.0003037722,-8.644259e-05,2,1
-0.0001737958,-9.486997e-05,2,1
-4.365734e-05,-8.773911e-05,2,1
5.358185e-05,-7.23429e-05,2,1
9.53947e-05,-5.22468e-05,2,1
7.821578e-05,-3.036798e-05,2,1
2.522042e-05,-9.947754e-06,2,1
-3.150244e-05,4.313994e-06,2,1
-7.299116e-05,9.986281e-06,2,1
-0.0001005423,7.555301e-06,2,1
-0.0001276072,-1.844488e-06,2,1
-0.0001592099,-1.578211e-05,2,1
-0.0001903264,-2.988179e-05,2,1
-0.0002109087,-4.122636e-05,2,1
-0.000216581,-4.738484e-05,2,1
-0.0002083157,-4.544006e-05,2,1
-0.0001810887,-3.377136e-05,2,1
-0.0001289037,-1.464765e-05,2,1
-4.527799e-05,6.744974e-06,2,1
7.140904e-05,2.716521e-05,2,1
0.0002281262,4.564065e-05,2,1
0.0004305459,6.03886e-05,2,1
0.0006763991,7.319176e-05,2,1
0.0009467243,8.46984e-05,2,1
0.001204408,9.426025e-05,2,1
0.001408611,0.0001022015,2,1
0.001529512,0.0001125736,2,1
0.001550581,0.0001257009,2,1
0.001475868,0.0001410971,2,1
0.00132693,0.0001551968,2,1
0.001134072,0.000165569,2,1
0.0009277626,0.0001710792,2,1
0.000735553,0.0001726999,2,1
0.0005754323,0.0001702689,2,1
0.0004566384,0.0001665414,2,1
0.0003692851,0.0001616794,2,1
0.0002957075,0.000155521,2,1
0.0002154851,0.0001493625,2,1
0.0001172735,0.0001441764,2,1
4.962256e-06,0.0001386662,2,1
-0.0001060525,0.0001312112,2,1
-0.000201509,0.0001226217,2,1
-0.0002720074,0.000110953,2,1
-0.0003212752,9.750156e-05,2,1
-0.000350447,8.259155e-05,2,1
-0.000358064,7.140904e-05,2,1
-0.0003428299,6.800567e-05,2,1
-0.0003134961,7.30297e-05,2,1
-0.000285945,8.161915e-05,2,1
-0.0002854588,8.46984e-05,2,1
-0.000333268,7.90261e-05,2,1
-0.0004413656,6.362991e-05,2,1
-0.0006079687,4.369587e-05,2,1
-0.0008149261,2.278944e-05,2,1
-0.001030311,-6.176923e-08,2,1
-0.001205828,-2.453363e-05,2,1
-0.001300636,-4.965376e-05,2,1
-0.001310684,-6.926366e-05,2,1
-0.001264495,-8.125649e-05,2,1
-0.001195942,-8.40116e-05,2,1
-0.001130467,-8.07703e-05,2,1
-0.001081199,-7.979791e-05,2,1
-0.001046355,-8.968389e-05,2,1
-0.001022856,-0.0001118868,2,1
-0.00100827,-0.0001431655,2,1
-0.000996115,-0.0001760647,2,1
-0.0009782879,-0.0002036158,2,1
-0.0009450645,-0.0002219292,2,1
-0.0008940139,-0.0002321393,2,1
-0.0008368049,-0.0002381357,2,1
-0.0007870508,-0.0002433218,2,1
-0.0007405381,-0.0002504527,2,1
-0.0006773326,-0.0002609869,2,1
-0.0005779866,-0.000271035,2,1
-0.0004138145,-0.000278652,2,1
-0.0001556445,-0.0002781658,2,1
0.000205275,-0.0002663351,2,1
0.0006381517,-0.0002455907,2,1
0.001088856,-0.0002258187,2,1
0.001502285,-0.0002149604,2,1
0.001850727,-0.0002169052,2,1
0.002130452,-0.0002306807,2,1
0.002337897,-0.0002449425,2,1
0.002456691,-0.0002489941,2,1
0.002468522,-0.0002365151,2,1
0.002363341,-0.0002088019,2,1
0.002160596,-0.0001712027,2,1
0.001905505,-0.0001339277,2,1
0.00163842,-0.0001079973,2,1
0.001376846,-9.551824e-05,2,1
0.001115597,-9.470791e-05,2,1
0.0008553194,-9.859748e-05,2,1
0.0006059006,-0.0001007043,2,1
0.0003798194,-9.584238e-05,2,1
0.000187934,-8.40116e-05,2,1
4.272347e-05,-6.829127e-05,2,1
-4.85193e-05,-5.208474e-05,2,1
-9.535618e-05,-3.766092e-05,2,1
-0.0001238797,-2.323711e-05,2,1
-0.0001609926,-8.165035e-06,2,1
-0.0002149604,7.717366e-06,2,1
-0.000278652,2.538249e-05,2,1
-0.0003301888,4.369587e-05,2,1
-0.000343154,6.087479e-05,2,1
-0.0003120375,7.562274e-05,2,1
-0.0002519113,8.923623e-05,2,1
-0.0001934057,9.863601e-05,2,1
-0.0001661787,0.0001026876,2,1
-0.0001815749,0.0001038221,2,1
-0.0002334358,0.0001018773,2,1
-0.0003045825,0.000101067,2,1
-0.0003690845,0.0001072255,2,1
-0.0004133283,0.0001214872,2,1
-0.0004331002,0.0001380179,2,1
-0.0004308313,0.0001535762,2,1
-0.0004131662,0.0001658931,2,1
-0.0003898288,0.0001701068,2,1
-0.0003713534,0.0001650828,2,1
-0.0003669776,0.0001571416,2,1
-0.0003758912,0.000155683,2,1
-0.0003857772,0.0001624898,2,1
-0.00038286,0.0001751309,2,1
-0.0003570916,0.0001918236,2,1
-0.0003130099,0.0002060853,2,1
-0.0002708729,0.000210299,2,1
-0.0002559629,0.0002030061,2,1
-0.0002752487,0.0001880961,2,1
-0.0003130099,0.0001717275,2,1
-0.0003491504,0.000160707,2,1
-0.000367788,0.0001584381,2,1
-0.00036795,0.0001634622,2,1
-0.0003617915,0.0001733481,2,1
-0.000360333,0.0001842065,2,1
-0.0003713534,0.0001931201,2,1
-0.0003930701,0.0001965235,2,1
-0.0004253211,0.0001905271,2,1
-0.0004612996,0.0001761032,2,1
-0.0004869059,0.0001553589,2,1
-0.0004878783,0.0001261871,2,1
-0.0004635685,8.810177e-05,2,1
-0.0004204592,4.693717e-05,2,1
-0.0003669776,1.160693e-05,2,1
-0.0003047445,-1.416145e-05,2,1
-0.0002360289,-3.652646e-05,2,1
-0.0001658546,-6.035007e-05,2,1
-0.0001041077,-8.725291e-05,2,1
-5.905355e-05,-0.0001165867,2,1
-3.231277e-05,-0.000144462,2,1
-1.837515e-05,-0.0001640719,2,1
-1.027188e-05,-0.0001739578,2,1
-1.034161e-06,-0.0001789819,2,1
1.079661e-05,-0.0001854645,2,1
2.181705e-05,-0.0001951884,2,1
3.283749e-05,-0.0002079916,2,1
4.499239e-05,-0.0002217671,2,1
5.244739e-05,-0.0002335979,2,1
4.82337e-05,-0.0002394322,2,1
2.522042e-05,-0.0002371633,2,1
-2.194059e-05,-0.0002235498,2,1
-9.503204e-05,-0.0002005366,2,1
-0.0001898403,-0.0001741199,2,1
-0.0002927517,-0.0001491618,2,1
-0.0003760533,-0.0001256624,2,1
-0.0004024699,-0.0001032974,2,1
-0.0003397507,-8.384954e-05,2,1
-0.0001906506,-7.153257e-05,2,1
4.80019e-06,-6.683268e-05,2,1
0.0001770756,-6.715681e-05,2,1
0.0002652392,-6.877746e-05,2,1
0.0002419018,-6.569822e-05,2,1
0.0001218114,-5.548811e-05,2,1
-4.868137e-05,-3.798505e-05,2,1
-0.0002097743,-1.610624e-05,2,1
-0.0003162512,2.04508e-06,2,1
-0.0003541745,1.274139e-05,2,1
-0.0003334301,1.387585e-05,2,1
-0.0002643903,7.069105e-06,2,1
-0.0001572651,4.244267e-07,2,1
-1.886135e-05,-1.196227e-06,2,1
0.0001389903,1.558884e-06,2,1
0.0003000832,9.986281e-06,2,1
0.0004394595,2.846173e-05,2,1
0.0005381573,5.714729e-05,2,1
0.0005874252,9.199134e-05,2,1
0.0006013628,0.0001278078,2,1
0.0006039558,0.0001602208,2,1
0.0006156246,0.0001874478,2,1
0.0006447964,0.0002145127,2,1
0.000681261,0.0002428742,2,1
0.0007052467,0.0002689667,2,1
0.0007020054,0.0002879283,2,1
0.0006728336,0.0002984626,2,1
0.0006379896,0.0002986247,2,1
0.0006203245,0.0002923041,2,1
0.0006313449,0.0002811216,2,1
0.0006689441,0.0002666978,2,1
0.000725829,0.0002560015,2,1
0.0007903311,0.0002504913,2,1
0.0008465679,0.0002496809,2,1
0.0008784947,0.0002519498,2,1
0.0008830326,0.0002571359,2,1
0.0008648812,0.0002631324,2,1
0.0008167478,0.0002696149,2,1
0.0007161052,0.0002718839,2,1
0.000544964,0.0002654013,2,1
0.0003086727,0.0002472499,2,1
4.969229e-05,0.0002190506,2,1
-0.000166827,0.0001845306,2,1
-0.0002869174,0.0001514693,2,1
-0.0002899966,0.0001253768,2,1
-0.0002008607,0.0001112771,2,1
-6.942573e-05,0.0001072255,2,1
4.515445e-05,0.0001094944,2,1
0.0001078737,0.0001091703,2,1
0.0001232699,9.847395e-05,2,1
0.0001313732,7.400208e-05,2,1
0.0001910133,4.320967e-05,2,1
0.0003284447,8.365628e-06,2,1
0.0005221128,-2.712668e-05,2,1
0.0007203188,-6.06742e-05,2,1
0.0008639088,-8.838737e-05,2,1
0.0009011839,-0.0001101041,2,1
0.000802324,-0.0001248521,2,1
0.0005752703,-0.0001319829,2,1
0.0002668598,-0.0001311726,2,1
-5.937768e-05,-0.000122097,2,1
-0.0003472056,-0.0001101041,2,1
-0.00056648,-9.908367e-05,2,1
-0.0007134732,-8.919769e-05,2,1
-0.0007987196,-8.206682e-05,2,1
-0.0008398842,-7.882551e-05,2,1
-0.0008593319,-8.093236e-05,2,1
-0.0008739179,-8.676672e-05,2,1
-0.0008880175,-0.0001002181,2,1
-0.0008953104,-0.0001240417,2,1
-0.000886721,-0.0001554824,2,1
-0.0008526873,-0.0001880575,2,1
-0.0007901301,-0.000216581,2,1
-0.000708125,-0.0002391081,2,1
-0.0006206098,-0.0002522354,2,1
-0.0005397392,-0.0002567732,2,1
-0.0004664857,-0.0002585559,2,1
-0.0003948528,-0.0002639041,2,1
-0.0003222476,-0.000276059,2,1
-0.0002540181,-0.0002938862,2,1
-0.0002024813,-0.0003113892,2,1
-0.0001780095,-0.0003227338,2,1
-0.0001818991,-0.0003237062,2,1
-0.000199078,-0.0003143064,2,1
-0.0002079916,-0.0002942103,2,1
-0.0001909747,-0.0002635799,2,1
-0.0001488377,-0.0002246843,2,1
-9.649064e-05,-0.0001854645,2,1
-5.483985e-05,-0.0001587237,2,1
-3.928157e-05,-0.0001481895,2,1
-5.565017e-05,-0.0001455964,2,1
-0.0001026491,-0.0001386276,2,1
-0.0001710407,-0.0001232314,2,1
-0.0002449425,-9.924574e-05,2,1
-0.000313334,-7.088431e-05,2,1
-0.0003734602,-4.544006e-05,2,1
-0.000427428,-3.782299e-05,2,1
-0.000472158,-5.338126e-05,2,1
-0.0005003574,-8.239095e-05,2,1
-0.0005047331,-0.0001054042,2,1
-0.000489661,-0.0001089697,2,1
-0.0004616237,-9.081835e-05,2,1
-0.0004240246,-5.775702e-05,2,1
-0.0003744326,-1.756482e-05,2,1
-0.0003036101,2.975825e-05,2,1
-0.0002003745,8.74535e-05,2,1
-6.39155e-05,0.0001573037,2,1
8.810177e-05,0.0002352571,2,1
0.0002240746,0.0003091589,2,1
0.000314345,0.0003658818,2,1
0.0003452995,0.0003969983,2,1
0.0003209897,0.0003995914,2,1
0.0002577842,0.0003754436,2,1
0.0001738343,0.0003342791,2,1
9.16672e-05,0.0002879283,2,1
2.781346e-05,0.0002501671,2,1
-1.383732e-05,0.0002315296,2,1
-3.425755e-05,0.0002402811,2,1
-3.279896e-05,0.0002739907,2,1
-5.085794e-06,0.0003261758,2,1
4.531652e-05,0.0003871123,2,1
0.0001047945,0.0004420525,2,1
0.000155521,0.000480462,2,1
0.0001846927,0.0004984512,2,1
0.0001919856,0.0004969927,2,1
0.0001840444,0.0004858102,2,1
0.0001623277,0.0004717105,2,1
0.0001286181,0.0004525868,2,1
8.648112e-05,0.0004203358,2,1
4.288554e-05,0.0003681507,2,1
3.179537e-06,0.0002942489,2,1
-3.004385e-05,0.000202844,2,1
-5.710876e-05,0.0001054428,2,1
-7.477388e-05,1.744129e-05,2,1
-8.222889e-05,-5.240886e-05,2,1
-8.060823e-05,-0.0001054042,2,1
-7.461182e-05,-0.0001541859,2,1
-6.423963e-05,-0.0002122053,2,1
-4.641245e-05,-0.0002807589,2,1
-2.485776e-05,-0.0003593606,2,1
-1.270286e-05,-0.0004437966,2,1
-1.497178e-05,-0.0005262878,2,1
-2.242678e-05,-0.0005971103,2,1
-1.950961e-05,-0.0006413542,2,1
1.720949e-06,-0.000648323,2,1
3.818565e-05,-0.000618665,2,1
7.951231e-05,-0.0005608077,2,1
0.0001098185,-0.000482044,2,1
0.0001180839,-0.0003920977,2,1
9.442231e-05,-0.0003026377,2,1
4.110282e-05,-0.0002295462,2,1
-3.247483e-05,-0.0001878955,2,1
-0.000107349,-0.0001797922,2,1
-0.000152079,-0.0001943781,2,1
-0.0001357104,-0.0002152845,2,1
-5.159854e-05,-0.0002306807,2,1
7.789165e-05,-0.0002332737,2,1
0.0002130541,-0.0002211189,2,1
0.0003089969,-0.0001935677,2,1
0.0003321722,-0.0001546721,2,1
0.000277232,-0.0001101041,2,1
0.0001756171,-6.91016e-05,2,1
7.432621e-05,-3.555408e-05,2,1
1.257933e-05,-8.489166e-06,2,1
3.017472e-06,1.565857e-05,2,1
3.510641e-05,3.915804e-05,2,1
8.923623e-05,6.508849e-05,2,1
0.0001461212,8.972242e-05,2,1
0.0001905271,0.0001099806,2,1
0.0002153231,0.0001242423,2,1
0.0002265056,0.0001289422,2,1
0.0002383363,0.0001237561,2,1
0.0002607014,0.0001148425,2,1
0.0002960316,0.0001093323,2,1
0.0003368721,0.0001096565,2,1
0.0003725265,0.0001166253,2,1
0.000401212,0.0001273216,2,1
0.0004276287,0.0001402868,2,1
0.0004692795,0.0001569795,2,1
0.0005527431,0.0001796687,2,1
0.0007086502,0.0002107852,2,1
0.0009467243,0.0002491947,2,1
0.001228556,0.0002910076,2,1
0.001482999,0.0003331446,2,1
0.001640851,0.0003686369,2,1
0.00166273,0.0003880847,2,1
0.001543126,0.000386302,2,1
0.001310886,0.0003704196,2,1
0.001010578,0.0003519442,2,1
0.0006880678,0.0003399513,2,1
0.0003772264,0.000331848,2,1
0.0001012291,0.0003240689,2,1
-0.0001361966,0.0003141829,2,1
-0.0003361852,0.000299597,2,1
-0.0004972781,0.0002790148,2,1
-0.0006053757,0.0002504913,2,1
-0.0006491333,0.0002145127,2,1
-0.0006327647,0.0001739964,2,1
-0.0005791211,0.0001321835,2,1
-0.0005162397,9.328786e-05,2,1
-0.0004702132,6.281957e-05,2,1
-0.0004629203,4.304761e-05,2,1
-0.0004984126,3.413401e-05,2,1
-0.0005549733,3.478228e-05,2,1
-0.0006029447,3.996837e-05,2,1
-0.0006176926,4.531652e-05,2,1
-0.000588845,5.341979e-05,2,1
-0.0005196431,6.119892e-05,2,1
-0.0004230522,6.265751e-05,2,1
-0.0003214373,5.131294e-05,2,1
-0.0002429977,2.943412e-05,2,1
-0.0002011848,6.096713e-06,2,1
-0.0001872472,-1.156841e-05,2,1
-0.0001760647,-1.821308e-05,2,1
-0.000149486,-1.432352e-05,2,1
-0.000102325,-1.844488e-06,2,1
-4.446767e-05,1.419998e-05,2,1
-1.034161e-06,2.959619e-05,2,1
7.555301e-06,3.883391e-05,2,1
-2.907146e-05,3.656499e-05,2,1
-0.0001092938,2.230325e-05,2,1
-0.0002170672,2.531276e-06,2,1
-0.0003309991,-1.950961e-05,2,1
-0.0004339106,-4.284701e-05,2,1
-0.000519481,-6.359137e-05,2,1
-0.0005812279,-7.931171e-05,2,1
-0.0006116962,-8.82253e-05,2,1
-0.0006055377,-9.260107e-05,2,1
-0.0005653456,-9.486997e-05,2,1
-0.0005045711,-9.535618e-05,2,1
-0.0004407173,-9.66527e-05,2,1
-0.0003815635,-0.0001020008,2,1
-0.0003245165,-0.0001117248,2,1
-0.0002614731,-0.0001264727,2,1
-0.0001846542,-0.0001501342,2,1
-8.741498e-05,-0.0001776853,2,1
3.478228e-05,-0.0002024813,2,1
0.0001736723,-0.0002188499,2,1
0.0003098072,-0.0002269532,2,1
0.0004264942,-0.0002293842,2,1
0.0005109303,-0.000231491,2,1
0.0005600362,-0.0002353806,2,1
0.0005754323,-0.0002404046,2,1
0.0005587396,-0.0002436459,2,1
0.0005143337,-0.0002378116,2,1
0.000448211,-0.0002241981,2,1
0.0003668542,-0.0002083157,2,1
0.0002798251,-0.0001955125,2,1
0.000192796,-0.0001861127,2,1
0.0001051186,-0.000174444,2,1
1.387585e-05,-0.0001585616,2,1
-8.628052e-05,-0.0001383035,2,1
-0.0002013469,-0.0001114006,2,1
-0.0003245165,-7.963584e-05,2,1
-0.000439907,-4.625038e-05,2,1
-0.0005296912,-1.480971e-05,2,1
-0.0005877105,1.355172e-05,2,1
-0.000616234,4.320967e-05,2,1
-0.0006176926,7.481241e-05,2,1
-0.0005906277,0.0001075496,2,1
-0.0005361738,0.0001386662,2,1
-0.0004625961,0.0001623277,2,1
-0.0003873979,0.000175455,2,1
-0.0003254889,0.0001824238,2,1
-0.0002805968,0.0001887444,2,1
-0.0002467252,0.0001950649,2,1
-0.0002136638,0.0002044647,2,1
-0.0001796301,0.0002141886,2,1
-0.0001483515,0.0002231022,2,1
-0.0001243659,0.0002289366,2,1
-0.0001052422,0.0002329882,2,1
-9.081835e-05,0.0002328261,2,1
-8.352541e-05,0.0002287745,2,1
-8.012204e-05,0.0002187264,2,1
-7.914964e-05,0.0002033302,2,1
-6.991193e-05,0.0001835583,2,1
-3.555408e-05,0.0001598967,2,1
2.424803e-05,0.0001334801,2,1
8.858796e-05,0.0001062531,2,1
0.0001235941,7.853991e-05,2,1
0.0001112771,4.677511e-05,2,1
6.136099e-05,9.500085e-06,2,1
3.989864e-06,-2.955766e-05,2,1
-3.458168e-05,-6.294311e-05,2,1
-5.127441e-05,-8.125649e-05,2,1
-6.180866e-05,-8.02841e-05,2,1
-7.995997e-05,-6.667062e-05,2,1
-0.0001063766,-5.013995e-05,2,1
-0.0001366828,-3.847125e-05,2,1
-0.000166989,-3.393342e-05,2,1
-0.0001908126,-3.63644e-05,2,1
-0.0002112329,-4.122636e-05,2,1
-0.0002329496,-4.787104e-05,2,1
-0.000251101,-5.354332e-05,2,1
-0.000246401,-5.64605e-05,2,1
-0.0001968091,-5.710876e-05,2,1
-9.551824e-05,-5.889148e-05,2,1
4.110282e-05,-6.48879e-05,2,1
0.0001851789,-7.65566e-05,2,1
0.0003127243,-9.146661e-05,2,1
0.0004106118,-0.0001099421,2,1
0.0004733311,-0.0001302002,2,1
0.0004909963,-0.0001535376,2,1
0.0004555039,-0.0001754164,2,1
0.0003678266,-0.0001901644,2,1
0.000249843,-0.0001972953,2,1
0.0001375317,-0.0001984297,2,1
6.78436e-05,-0.00019924,2,1
6.768154e-05,-0.0002003745,2,1
0.0001467694,-0.0002034537,2,1
0.0002882525,-0.0002060468,2,1
0.0004595556,-0.0002029675,2,1
0.0006399344,-0.0001924333,2,1
0.0008348991,-0.0001780095,2,1
0.001061143,-0.0001621271,2,1
0.001318503,-0.0001452723,2,1
0.001568894,-0.0001292278,2,1
0.001746518,-0.0001151281,2,1
0.001794328,-0.0001079973,2,1
0.001689309,-0.0001076731,2,1
0.001446697,-0.0001102662,2,1
0.001113004,-0.0001112386,2,1
0.0007467355,-0.0001032974,2,1
0.0003981328,-8.676672e-05,2,1
9.896015e-05,-6.634648e-05,2,1
-0.0001361966,-4.365734e-05,2,1
-0.0003092824,-2.0482e-05,2,1
-0.0004240246,6.582909e-06,2,1
-0.0004841508,3.121684e-05,2,1
-0.0004933886,4.742337e-05,2,1
-0.0004645409,5.666109e-05,2,1
-0.0004152731,6.525056e-05,2,1
-0.0003582261,7.659513e-05,2,1
-0.0002972895,9.199134e-05,2,1
-0.0002329496,0.0001083599,2,1
-0.0001716889,0.0001226217,2,1
-0.0001248521,0.0001339663,2,1
-9.908367e-05,0.0001454729,2,1
-9.519411e-05,0.0001561692,2,1
-0.0001055663,0.0001671896,2,1
-0.0001237176,0.0001808031,2,1
-0.0001514308,0.0001971717,2,1
-0.0001935677,0.0002112714,2,1
-0.0002444563,0.0002190506,2,1
-0.0002919414,0.0002182402,2,1
-0.0003295405,0.0002096508,2,1
-0.0003540124,0.000195389,2,1
-0.0003661673,0.0001819376,2,1
-0.0003687603,0.0001739964,2,1
-0.0003627639,0.0001738343,2,1
-0.0003472056,0.0001808031,2,1
-0.0003230579,0.0001916615,2,1
-0.0002946965,0.0002021958,2,1
-0.0002699005,0.0002090025,2,1
-0.0002519113,0.0002122438,2,1
-0.0002400805,0.0002117576,2,1
-0.0002269532,0.0002093267,2,1
-0.0002011848,0.000202682,2,1
-0.0001666649,0.0001924718,2,1
-0.0001400862,0.0001837203,2,1
-0.0001389517,0.0001793446,2,1
-0.0001754164,0.0001777239,2,1
-0.0002527216,0.0001752929,2,1
-0.0003635742,0.0001720516,2,1
-0.0004859335,0.0001670276,2,1
-0.0005982448,0.0001598967,2,1
-0.000685598,0.0001513072,2,1
-0.0007379451,0.0001368834,2,1
-0.0007507482,0.0001187321,2,1
-0.0007235213,0.0001025256,2,1
-0.0006593434,9.085688e-05,2,1
-0.0005650214,8.259155e-05,2,1
-0.0004551412,7.270556e-05,2,1
-0.0003544986,5.585077e-05,2,1
-0.0002827037,3.089271e-05,2,1
-0.0002321393,2.207145e-06,2,1
-0.0001856265,-2.566809e-05,2,1
-0.0001373311,-5.354332e-05,2,1
-9.260107e-05,-8.239095e-05,2,1
-5.759496e-05,-0.0001110765,2,1
-3.166451e-05,-0.0001342519,2,1
-6.220252e-06,-0.0001472171,2,1
2.586868e-05,-0.0001564548,2,1
7.351589e-05,-0.0001674752,2,1
0.0001399627,-0.0001788198,2,1
0.0002184023,-0.0001885437,2,1
0.0002916559,-0.0001921092,2,1
0.0003362238,-0.0001895161,2,1
0.0003329825,-0.0001818991,2,1
0.0002798251,-0.0001686097,2,1
0.0002010613,-0.0001538618,2,1
0.0001261871,-0.0001415448,2,1
7.432621e-05,-0.000134576,2,1
6.119892e-05,-0.000132145,2,1
0.0001075496,-0.0001302002,2,1
0.0002295848,-0.0001298761,2,1
0.0004117463,-0.0001425172,2,1
0.0006024973,-0.0001720131,2,1
0.0007415494,-0.0002156086,2,1
0.0007913035,-0.0002605007,2,1
0.000752894,-0.0002908069,2,1
0.000656465,-0.0002992343,2,1
0.0005345919,-0.0002840002,2,1
0.0004093153,-0.0002501286,2,1
0.0002879283,-0.0002006986,2,1
0.0001553589,-0.0001472171,2,1
-7.030578e-06,-9.730096e-05,2,1
-0.0001953505,-5.354332e-05,2,1
-0.000382698,-1.497178e-05,2,1
-0.0005301774,1.679302e-05,2,1
-0.0006118583,3.93201e-05,2,1
-0.000621096,4.855783e-05,2,1
-0.0005744212,4.402e-05,2,1
-0.0004916058,3.591673e-05,2,1
-0.0003721637,3.55926e-05,2,1
-0.0002120432,4.77475e-05,2,1
-1.788895e-05,7.367795e-05,2,1
0.0001905271,0.0001077117,2,1
0.0003906778,0.000138342,2,1
0.000562305,0.000160707,2,1
0.0006906608,0.0001726999,2,1
0.0007762314,0.0001765894,2,1
0.0008225822,0.0001761032,2,1
0.0008219338,0.0001738343,2,1
0.0007631041,0.0001757791,2,1
0.0006579236,0.0001806411,2,1
0.0005430193,0.0001830721,2,1
0.0004517764,0.0001785342,2,1
0.0003981328,0.000162976,2,1
0.0003790091,0.0001388282,2,1
0.0003759298,0.0001177597,2,1
0.0003671783,0.0001122495,2,1
0.0003376824,0.0001305629,2,1
0.0002809595,0.0001683241,2,1
0.0001984683,0.0002162954,2,1
9.896015e-05,0.0002602152,2,1
-1.682422e-06,0.0002864697,2,1
-8.741498e-05,0.0002874421,2,1
-0.0001538618,0.0002663737,2,1
-0.0002104225,0.0002336365,2,1
-0.000268604,0.0002047888,2,1
-0.0003334301,0.0001971717,2,1
-0.0004011734,0.0002240746,2,1
-0.0004604893,0.0002854973,2,1
-0.0004917679,0.0003628026,2,1
-0.0004781544,0.0004307079,2,1
-0.0004160834,0.0004676588,2,1
-0.0003204649,0.0004626348,2,1
-0.0002227395,0.0004133669,2,1
-0.0001577513,0.0003255275,2,1
-0.0001509446,0.00021273,2,1
-0.0001984297,9.182927e-05,2,1
-0.0002697385,-2.031993e-05,2,1
-0.0003269475,-0.0001102662,2,1
-0.0003502849,-0.000181737,2,1
-0.0003395886,-0.0002454286,2,1
-0.0003086341,-0.0003102548,2,1
-0.0002705488,-0.0003789705,2,1
-0.000241377,-0.0004476861,2,1
-0.0002368392,-0.0005078124,2,1
-0.0002630937,-0.0005501114,2,1
-0.0003120375,-0.0005692351,2,1
-0.000365357,-0.0005672903,2,1
-0.0004087905,-0.0005455735,2,1
-0.0004378002,-0.0005024642,2,1
-0.000452224,-0.0004389346,2,1
-0.000452224,-0.0003587123,2,1
-0.0004390967,-0.000266173,2,1
-0.0004198109,-0.000166989,2,1
-0.0003998769,-6.893953e-05,2,1
-0.0003839945,1.760335e-05,2,1
-0.0003681121,7.659513e-05,2,1
-0.0003438023,9.588091e-05,2,1
-0.0003045825,7.335383e-05,2,1
-0.0002520733,2.068259e-05,2,1
-0.0001878955,-4.608832e-05,2,1
-0.00010978,-0.0001131834,2,1
-9.137427e-06,-0.0001682856,2,1
0.0001203528,-0.000206695,2,1
0.0002743149,-0.0002269532,2,1
0.000425846,-0.0002327876,2,1
0.0005389676,-0.0002237119,2,1
0.0005892079,-0.0001994021,2,1
0.0005793219,-0.0001598582,2,1
0.0005329712,-0.00010978,2,1
0.0004796517,-6.06742e-05,2,1
0.0004315182,-2.599222e-05,2,1
0.0003919743,-2.242678e-05,2,1
0.0003722023,-5.791909e-05,2,1
0.0003927847,-0.0001259865,2,1
0.0004741415,-0.0002068571,2,1
0.0006175694,-0.0002809209,2,1
0.0007956792,-0.0003339163,2,1
0.0009619584,-0.0003611433,2,1
0.001059522,-0.0003624398,2,1
0.001045584,-0.0003394265,2,1
0.0009100975,-0.0002979378,2,1
0.0006848265,-0.0002472114,2,1
0.000426008,-0.0001896782,2,1
0.0001966855,-0.0001255003,2,1
4.256141e-05,-5.629844e-05,2,1
-2.809907e-05,9.986281e-06,2,1
-3.895745e-05,6.427817e-05,2,1
-2.356124e-05,0.0001033359,2,1
-1.034161e-06,0.0001295905,2,1
2.716521e-05,0.0001492004,2,1
6.719535e-05,0.0001665414,2,1
0.0001117633,0.0001882582,2,1
0.0001420695,0.0002148369,2,1
0.0001419075,0.0002427121,2,1
0.0001043083,0.0002699391,2,1
3.656499e-05,0.000292142,2,1
-4.446767e-05,0.0003064038,2,1
-0.0001216107,0.0003104554,2,1
-0.0001835197,0.0003059176,2,1
-0.0002229016,0.0002955454,2,1
-0.0002436459,0.0002833905,2,1
-0.000253856,0.0002736666,2,1
-0.0002582318,0.0002739907,2,1
-0.0002647144,0.0002887387,2,1
-0.000276059,0.0003172622,2,1
-0.000288538,0.0003546993,2,1
-0.0003003688,0.0003916502,2,1
-0.000318358,0.0004175806,2,1
-0.0003425058,0.0004273046,2,1
-0.0003708672,0.0004247115,2,1
-0.000397608,0.0004153117,2,1
-0.0004167317,0.0004000776,2,1
-0.0004266177,0.0003804677,2,1
-0.0004240246,0.0003571303,2,1
-0.0004049009,0.0003294171,2,1
-0.000365357,0.0002923041,2,1
-0.0003092824,0.000242388,2,1
-0.0002441321,0.0001822617,2,1
-0.0001797922,0.0001226217,2,1
-0.0001233935,7.254349e-05,2,1
-7.55842e-05,4.142696e-05,2,1
-4.090223e-05,3.429608e-05,2,1
-2.404744e-05,4.709924e-05,2,1
-2.323711e-05,6.492643e-05,2,1
-3.441962e-05,7.30297e-05,2,1
-5.516398e-05,6.362991e-05,2,1
-8.336335e-05,4.223728e-05,2,1
-0.0001126972,1.711715e-05,2,1
-0.0001399241,-2.654814e-06,2,1
-0.0001652063,-1.189254e-05,2,1
-0.000189192,-9.785688e-06,2,1
-0.0002209568,-8.720959e-07,2,1
-0.0002679557,8.851824e-06,2,1
-0.0003334301,1.452411e-05,2,1
-0.0004118697,1.1769e-05,2,1
-0.0004933886,4.244267e-07,2,1
-0.0005705316,-1.707863e-05,2,1
-0.0006403818,-3.733679e-05,2,1
-0.0006925668,-5.500191e-05,2,1
-0.0007137973,-6.586029e-05,2,1
-0.000698077,-7.023606e-05,2,1
-0.0006501057,-7.23429e-05,2,1
-0.0005826865,-7.671866e-05,2,1
-0.0005110537,-8.838737e-05,2,1
-0.0004493068,-0.0001070249,2,1
-0.0003969597,-0.0001285796,2,1
-0.0003413713,-0.000144624,2,1
-0.0002634179,-0.000149486,2,1
-0.000159372,-0.0001452723,2,1
-4.754691e-05,-0.0001361966,2,1
4.369587e-05,-0.0001253383,2,1
9.977047e-05,-0.0001195039,2,1
0.0001313732,-0.0001201522,2,1
0.0001657311,-0.0001214487,2,1
0.0002231022,-0.0001211246,2,1
0.0003177483,-0.000119666,2,1
0.0004574487,-0.0001133454,2,1
0.0006379896,-9.875954e-05,2,1
0.0008499712,-7.477388e-05,2,1
0.001083994,-4.47918e-05,2,1
0.001330658,-1.659243e-05,2,1
0.00157246,5.610517e-06,2,1
0.001790438,1.97102e-05,2,1
0.001970331,3.316162e-05,2,1
0.002102091,5.260946e-05,2,1
0.002189444,7.756752e-05,2,1
0.002244871,0.0001067393,2,1
0.002277608,0.0001368834,2,1
0.002279067,0.0001650828,2,1
0.002226882,0.0001869616,2,1
0.002103387,0.0001994406,2,1
0.001897239,0.000205275,2,1
0.001609735,0.0002030061,2,1
0.001250435,0.000187772,2,1
0.0008485126,0.0001594105,2,1
0.0004446456,0.0001244044,2,1
7.481241e-05,9.328786e-05,2,1
-0.0002360289,7.30297e-05,2,1
-0.000474589,6.687121e-05,2,1
-0.000643299,7.335383e-05,2,1
-0.000757555,8.956036e-05,2,1
-0.000849608,0.0001094944,2,1
-0.0009523575,0.0001271595,2,1
-0.001077148,0.0001344524,2,1
-0.001211986,0.0001286181,2,1
-0.00133159,0.0001145184,2,1
-0.001415216,9.912221e-05,2,1
-0.001457353,8.46984e-05,2,1
-0.001455894,6.83298e-05,2,1
-0.001405168,4.839576e-05,2,1
-0.001305336,2.586868e-05,2,1
-0.00117779,1.558884e-06,2,1
-0.001060455,-2.09682e-05,2,1
-0.0009854188,-3.668853e-05,2,1
-0.000968564,-4.592625e-05,2,1
-0.0009987081,-5.305713e-05,2,1
-0.001051703,-6.278104e-05,2,1
-0.001101295,-7.60704e-05,2,1
-0.001125119,-9.098041e-05,2,1
-0.001114423,-0.0001050801,2,1
-0.001075041,-0.0001219349,2,1
-0.001019777,-0.0001396,2,1
-0.0009510609,-0.0001572651,2,1
-0.0008601423,-0.0001734716,2,1
-0.0007343796,-0.0001874093,2,1
-0.0005679386,-0.0001985918,2,1
-0.0003606571,-0.000208964,2,1
-0.0001161005,-0.0002201465,2,1
0.0001501728,-0.0002295462,2,1
0.0004127187,-0.0002379736,2,1
0.0006417171,-0.0002451045,2,1
0.0008008654,-0.0002486699,2,1
0.0008605054,-0.0002485079,2,1
0.0008113996,-0.000246401,2,1
0.0006669993,-0.0002454286,2,1
0.0004650658,-0.0002472114,2,1
0.0002529222,-0.0002507768,2,1
7.140904e-05,-0.0002579077,2,1
-5.046408e-05,-0.0002682799,2,1
-0.0001052422,-0.0002775176,2,1
-0.00010978,-0.0002797865,2,1
-9.697683e-05,-0.0002694143,2,1
-9.600444e-05,-0.0002493182,2,1
-0.0001190177,-0.0002274394,2,1
-0.0001635857,-0.0002113949,2,1
-0.0002162569,-0.0002047502,2,1
-0.0002603387,-0.0002076674,2,1
-0.0002812451,-0.0002100984,2,1
-0.0002721694,-0.0002039399,2,1
-0.0002355427,-0.0001857886,2,1
-0.0001780095,-0.0001587237,2,1
-0.0001099421,-0.0001303623,2,1
-3.976777e-05,-0.0001068628,2,1
2.748934e-05,-9.049421e-05,2,1
8.923623e-05,-7.898758e-05,2,1
0.0001446626,-7.088431e-05,2,1
0.0001895547,-6.229485e-05,2,1
0.0002294227,-4.868137e-05,2,1
0.0002692908,-2.858527e-05,2,1
0.0003114278,-2.492749e-06,2,1
0.0003457857,2.927205e-05,2,1
0.0003631267,6.249545e-05,2,1
0.0003600474,9.26396e-05,2,1
0.0003388169,0.0001143563,2,1
0.0003085106,0.0001276457,2,1
0.0002728562,0.0001404489,2,1
0.0002320158,0.0001571416,2,1
0.0001850168,0.0001775618,2,1
0.000133318,0.0001958752,2,1
8.145709e-05,0.0002091646,2,1
3.834771e-05,0.0002208333,2,1
1.112074e-05,0.0002346088,2,1
-3.951337e-06,0.0002503292,2,1
-1.788895e-05,0.0002658874,2,1
-4.560212e-05,0.0002795009,2,1
-9.811128e-05,0.0002932765,2,1
-0.0001731475,0.0003059176,2,1
-0.0002528836,0.0003172622,2,1
-0.0003151167,0.0003239069,2,1
-0.0003342404,0.000326824,2,1
-0.0002887001,0.000326824,2,1
-0.0001724993,0.0003258516,2,1
-2.006553e-06,0.0003239069,2,1
0.0001843686,0.0003218,2,1
0.0003443271,0.0003200173,2,1
0.0004543695,0.0003151553,2,1
0.0005112545,0.0003049452,2,1
0.0005234093,0.000292142,2,1
0.0005029891,0.0002778803,2,1
0.000462959,0.0002587566,2,1
0.0004151496,0.0002313675,2,1
0.0003574544,0.0001944166,2,1
0.000274639,0.0001548727,2,1
0.0001579519,0.0001198666,2,1
1.54965e-05,9.101894e-05,2,1
-0.0001290658,7.043665e-05,2,1
-0.0002483458,5.471631e-05,2,1
-0.0003214373,4.320967e-05,2,1
-0.0003478539,3.672706e-05,2,1
-0.0003434782,3.267542e-05,2,1
-0.000328082,2.700314e-05,2,1
-0.0003136581,2.052053e-05,2,1
-0.0003044204,8.689758e-06,2,1
-0.0003015032,-1.156841e-05,2,1
-0.0002989102,-3.911951e-05,2,1
-0.000285945,-6.667062e-05,2,1
-0.0002595283,-8.806324e-05,2,1
-0.0002225774,-0.0001011905,2,1
-0.0001754164,-0.0001107524,2,1
-0.0001154523,-0.0001225832,2,1
-4.05781e-05,-0.0001368449,2,1
4.256141e-05,-0.0001502963,2,1
0.0001250527,-0.0001600202,2,1
0.0001960373,-0.0001640719,2,1
0.000244981,-0.0001630995,2,1
0.0002688046,-0.0001618029,2,1
0.0002691288,-0.0001622891,2,1
0.0002537325,-0.0001652063,2,1
0.0002329882,-0.0001721751,2,1
0.0002218057,-0.0001828714,2,1
0.0002394708,-0.0001924333,2,1
0.000304459,-0.0001948643,2,1
0.0004187151,-0.0001864369,2,1
0.0005717048,-0.0001676373,2,1
0.0007501388,-0.0001412206,2,1
0.0009319764,-0.0001139937,2,1
0.001093556,-9.454585e-05,2,1
0.001213646,-9.146661e-05,2,1
0.001270369,-0.0001041077,2,1
0.001247356,-0.0001259865,2,1
0.001143472,-0.0001452723,2,1
0.0009676307,-0.0001522411,2,1
0.0007449528,-0.000144624,2,1
0.0005263265,-0.000122097,2,1
0.0003757678,-8.871149e-05,2,1
0.0003517821,-4.85193e-05,2,1
0.0004683071,-8.165035e-06,2,1
0.0006704027,2.943412e-05,2,1
0.000861964,6.41161e-05,2,1
0.0009585551,9.814982e-05,2,1
0.0009173905,0.0001299146,2,1
0.0007460872,0.0001590864,2,1
0.0004885653,0.00018291,2,1
0.0002072198,0.0001986303,2,1
-3.620233e-05,0.0002041406,2,1
-0.000206695,0.000200413,2,1
-0.0002893484,0.0001876099,2,1
-0.0003024756,0.0001710792,2,1
-0.0002796244,0.000160707,2,1
-0.0002585559,0.0001594105,2,1
-0.000266011,0.0001636242,2,1
-0.000310903,0.0001670276,2,1
-0.00038286,0.0001636242,2,1
-0.0004567618,0.0001539003,2,1
-0.0005032745,0.0001420695,2,1
-0.0005107295,0.0001295905,2,1
-0.0004972781,0.0001197045,2,1
-0.0004927403,0.0001150046,2,1
-0.0005191569,0.0001154908,2,1
-0.0005747453,0.0001213252,2,1
-0.00064103,0.0001292664,2,1
-0.0007042355,0.0001346145,2,1
-0.0007588515,0.0001321835,2,1
-0.0008037436,0.000120839,2,1
-0.0008366429,9.944634e-05,2,1
-0.0008507425,6.995045e-05,2,1
-0.0008413427,3.624086e-05,2,1
-0.0008118468,5.286387e-06,2,1
-0.0007661444,-1.805102e-05,2,1
-0.0007165525,-2.728874e-05,2,1
-0.0006800878,-2.242678e-05,2,1
-0.0006737672,-8.489166e-06,2,1
-0.0006969426,4.47606e-06,2,1
-0.0007325969,1.112074e-05,2,1
-0.0007612825,8.365628e-06,2,1
-0.0007674409,-7.100305e-07,2,1
-0.0007432932,-1.25408e-05,2,1
-0.0006959701,-2.501983e-05,2,1
-0.0006371404,-3.701266e-05,2,1
-0.0005794452,-4.544006e-05,2,1
-0.0005381186,-4.949169e-05,2,1
-0.0005230465,-5.111234e-05,2,1
-0.0005308256,-5.078821e-05,2,1
-0.0005437909,-5.127441e-05,2,1
-0.000541846,-5.467778e-05,2,1
-0.0005108916,-6.116039e-05,2,1
-0.000439907,-6.650855e-05,2,1
-0.0003224097,-6.521203e-05,2,1
-0.0001652063,-5.240886e-05,2,1
1.322759e-05,-2.907146e-05,2,1
0.0001898788,-1.682422e-06,2,1
0.0003388169,2.295151e-05,2,1
0.0004339493,3.60788e-05,2,1
0.0004593935,3.348575e-05,2,1
0.0004099636,1.695509e-05,2,1
0.0002929524,-8.489166e-06,2,1
0.0001300767,-3.652646e-05,2,1
-4.268495e-05,-6.342931e-05,2,1
-0.0001901644,-8.676672e-05,2,1
-0.0002888622,-0.0001081593,2,1
-0.0003363473,-0.0001248521,2,1
-0.0003421817,-0.000137007,2,1
-0.0003230579,-0.0001460826,2,1
-0.0002852967,-0.0001577513,2,1
-0.0002342462,-0.0001720131,2,1
-0.000176713,-0.0001874093,2,1
-0.0001287416,-0.0002031296,2,1
-0.0001055663,-0.0002172293,2,1
-0.0001076731,-0.000226467,2,1
-0.0001177212,-0.0002323013,2,1
-0.0001032974,-0.0002381357,2,1
-3.847125e-05,-0.0002428356,2,1
7.870197e-05,-0.0002415391,2,1
0.000225047,-0.0002303566,2,1
0.0003597233,-0.000209126,2,1
0.0004425387,-0.0001862748,2,1
0.0004525868,-0.0001728234,2,1
0.0004021844,-0.0001775233,2,1
0.0003252034,-0.0002023193,2,1
0.000267346,-0.0002407288,2,1
0.0002611876,-0.0002831898,2,1
0.0003174242,-0.000315765,2,1
0.0004253598,-0.0003241924,2,1
0.0005613327,-0.0002968033,2,1
0.0006942263,-0.0002306807,2,1
0.0007972999,-0.0001293899,2,1
0.0008608295,-4.275467e-06,2,1
0.0009010218,0.0001242423,2,1
0.0009617964,0.0002331503,2,1
0.001087235,0.0003075383,2,1
0.001278472,0.0003467581,2,1
0.00148932,0.0003619922,2,1
0.00165333,0.0003694472,2,1
0.001706812,0.0003803056,2,1
0.001618,0.0003994293,2,1
0.001401318,0.0004235771,2,1
0.001110735,0.0004465904,2,1
0.0008068618,0.0004621486,2,1
0.0005321609,0.0004652279,2,1
0.0003072141,0.0004530729,2,1
0.0001349386,0.0004294114,2,1
7.555301e-06,0.0004008879,2,1
-8.352541e-05,0.0003747954,2,1
-0.000151917,0.0003537269,2,1
-0.0002099363,0.0003310377,2,1
-0.000258718,0.0002999212,2,1
-0.0002976137,0.0002616738,2,1
-0.0003327818,0.000220023,2,1
-0.000370543,0.0001819376,2,1
-0.0004131662,0.0001504969,2,1
-0.0004551412,0.0001237561,2,1
-0.0004906334,9.652917e-05,2,1
-0.0005178604,6.119892e-05,2,1
-0.0005374703,1.808955e-05,2,1
-0.0005458977,-2.89094e-05,2,1
-0.0005434667,-7.55842e-05,2,1
-0.0005347152,-0.0001186936,2,1
-0.0005274223,-0.0001554824,2,1
-0.0005254775,-0.0001844921,2,1
-0.0005303394,-0.000201671,2,1
-0.000541846,-0.0002052365,2,1
-0.0005582146,-0.0001953505,2,1
-0.0005690731,-0.0001783336,2,1
-0.0005645352,-0.0001645581,2,1
-0.0005386047,-0.0001592099,2,1
-0.0004925782,-0.0001616409,2,1
-0.0004407173,-0.0001707166,2,1
-0.0003950149,-0.0001862748,2,1
-0.0003566054,-0.0002075054,2,1
-0.0003175477,-0.0002287359,2,1
-0.0002739521,-0.0002489941,2,1
-0.0002279256,-0.0002642282,2,1
-0.0001848162,-0.0002700626,2,1
-0.00015451,-0.0002673075,2,1
-0.0001449482,-0.0002590421,2,1
-0.0001535376,-0.0002519113,2,1
-0.0001634236,-0.0002489941,2,1
-0.0001580754,-0.0002455907,2,1
-0.0001269589,-0.0002381357,2,1
-7.60704e-05,-0.0002284118,2,1
-2.907146e-05,-0.0002199844,2,1
-1.124428e-05,-0.0002094502,2,1
-3.085418e-05,-0.0001883817,2,1
-8.40116e-05,-0.0001480274,2,1
-0.0001502963,-8.903562e-05,2,1
-0.0002019951,-2.145439e-05,2,1
-0.000224036,4.045456e-05,2,1
-0.0002117191,8.972242e-05,2,1
-0.0001762268,0.0001273216,2,1
-0.0001365208,0.0001551968,2,1
-0.0001101041,0.000173024,2,1
-0.0001034594,0.0001848548,2,1
-0.0001146419,0.0001945787,2,1
-0.0001306864,0.0002047888,2,1
-0.0001289037,0.000217754,2,1
-9.065628e-05,0.0002329882,2,1
-9.137427e-06,0.0002488706,2,1
0.0001070634,0.0002691288,2,1
0.000230071,0.000294573,2,1
0.0003290929,0.0003209897,2,1
0.0003790091,0.0003425444,2,1
0.0003736609,0.0003535648,2,1
0.0003264999,0.0003498373,2,1
0.0002658874,0.0003284447,2,1
0.0002190506,0.0002932765,2,1
0.0001992786,0.0002516257,2,1
0.0002073819,0.0002107852,2,1
0.0002329882,0.0001712413,2,1
0.000262322,0.0001279698,2,1
0.000279663,7.594687e-05,2,1
0.0002744769,1.274139e-05,2,1
0.0002470879,-5.824322e-05,2,1
0.0002119197,-0.0001274451,2,1
0.0001872858,-0.0001797922,2,1
0.0001966855,-0.0002049123,2,1
0.0002490327,-0.0001984297,2,1
0.0003321722,-0.0001671511,2,1
0.0004198496,-0.0001211246,2,1
0.0004911583,-6.861539e-05,2,1
0.0005368608,-1.529591e-05,2,1
0.0005543638,3.60788e-05,2,1
0.000547395,8.46984e-05,2,1
0.0005258403,0.0001300767,2,1
0.0005023408,0.0001714034,2,1
0.0004838654,0.0002059233,2,1
0.0004689553,0.0002313675,2,1
0.0004650658,0.0002496809,2,1
0.0004733311,0.0002631324,2,1
0.000483055,0.0002743149,2,1
0.0004749518,0.000282256,2,1
0.0004337872,0.0002851732,2,1
0.0003576164,0.0002786906,2,1
0.0002529222,0.0002652392,2,1
0.0001325077,0.0002457913,2,1
1.355172e-05,0.0002248849,2,1
-8.806324e-05,0.000207706,2,1
-0.0001567789,0.0001931201,2,1
-0.0001836818,0.0001769136,2,1
-0.0001747682,0.0001577899,2,1
-0.000151917,0.0001351007,2,1
-0.0001386276,0.0001062531,2,1
-0.0001464067,7.027458e-05,2,1
-0.0001762268,2.829966e-05,2,1
-0.0002225774,-1.367526e-05,2,1
-0.0002781658,-5.111234e-05,2,1
-0.0003298647,-8.255302e-05,2,1
-0.0003650328,-0.0001114006,2,1
-0.0003792946,-0.0001418689,2,1
-0.000387884,-0.0001716889,2,1
-0.000410087,-0.0001981056,2,1
-0.0004577342,-0.0002167431,2,1
-0.00051705,-0.0002280877,2,1
-0.0005533527,-0.000238784,2,1
-0.0005358497,-0.000251263,2,1
-0.0004549791,-0.0002622834,2,1
-0.0003271096,-0.000268604,2,1
-0.0001836818,-0.0002652006,2,1
-5.662256e-05,-0.0002481838,2,1
3.202716e-05,-0.0002125294,2,1
8.178122e-05,-0.0001596961,2,1
0.0001052807,-9.924574e-05,2,1
0.0001145184,-4.738484e-05,2,1
0.0001120874,-1.902341e-05,2,1
9.604298e-05,-1.62683e-05,2,1
7.108491e-05,-3.474375e-05,2,1
5.358185e-05,-6.504996e-05,2,1
5.828175e-05,-9.486997e-05,2,1
8.340187e-05,-0.0001170729,2,1
0.000113546,-0.0001319829,2,1
0.0001276457,-0.000142031,2,1
0.0001083599,-0.0001504584,2,1
5.471631e-05,-0.0001601823,2,1
-1.545797e-05,-0.0001723372,2,1
-8.190475e-05,-0.0001862748,2,1
-0.0001305243,-0.0001968091,2,1
-0.0001605064,-0.0002006986,2,1
-0.0001806025,-0.0001989159,2,1
-0.0002018331,-0.0001934057,2,1
-0.0002303566,-0.0001854645,2,1
-0.000263742,-0.0001754164,2,1
-0.0002934,-0.0001632615,2,1
-0.0003086341,-0.0001481895,2,1
-0.0003011791,-0.0001302002,2,1
-0.0002650386,-0.00010978,2,1
-0.000201671,-8.887356e-05,2,1
-0.000122097,-6.942573e-05,2,1
-4.511593e-05,-5.176061e-05,2,1
1.014835e-05,-3.425755e-05,2,1
3.786152e-05,-1.3027e-05,2,1
4.126489e-05,1.1769e-05,2,1
2.910999e-05,3.688912e-05,2,1
1.144487e-05,6.152305e-05,2,1
-4.923729e-06,8.502253e-05,2,1
-2.339918e-05,0.0001091703,2,1
-5.516398e-05,0.0001320215,2,1
-9.503204e-05,0.0001501728,2,1
-0.0001310105,0.0001624898,2,1
-0.0001517549,0.0001756171,2,1
-0.0001551583,0.0001913374,2,1
-0.0001436516,0.0002080301,2,1
-0.0001230693,0.0002231022,2,1
-9.616651e-05,0.0002342847,2,1
-6.877746e-05,0.0002397949,2,1
-4.608832e-05,0.0002414156,2,1
-2.939559e-05,0.0002388225,2,1
-1.659243e-05,0.0002336365,2,1
-1.027188e-05,0.0002265056,2,1
-1.027188e-05,0.0002158093,2,1
-1.562004e-05,0.0002018716,2,1
-2.113026e-05,0.000187772,2,1
-2.534396e-05,0.0001764274,2,1
-2.761287e-05,0.0001671896,2,1
-2.680255e-05,0.0001603829,2,1
-2.696461e-05,0.000153252,2,1
-3.441962e-05,0.0001438522,2,1
-5.419158e-05,0.0001342904,2,1
-9.276313e-05,0.0001255389,2,1
-0.000152079,0.0001146805,2,1
-0.0002203085,0.0001000946,2,1
-0.0002755728,8.583286e-05,2,1
-0.0002968033,7.481241e-05,2,1
-0.0002773555,6.719535e-05,2,1
-0.0002276015,5.795762e-05,2,1
-0.0001695821,4.434413e-05,2,1
-0.0001164247,2.716521e-05,2,1
-5.581224e-05,1.031041e-05,2,1
2.829966e-05,-6.382317e-06,2,1
0.0001368834,-2.631635e-05,2,1
0.0002456293,-5.095028e-05,2,1
0.0003218,-7.704279e-05,2,1
0.0003422202,-9.989401e-05,2,1
0.0003104554,-0.0001133454,2,1
0.0002496809,-0.0001170729,2,1
0.0001890685,-0.0001157764,2,1
0.0001462832,-0.0001107524,2,1
0.0001226217,-0.0001068628,2,1
0.0001125736,-0.0001114006,2,1
0.0001107909,-0.0001258245,2,1
0.0001148425,-0.0001441378,2,1
0.0001206769,-0.0001622891,2,1
0.0001227837,-0.0001773612,2,1
0.0001214872,-0.0001911368,2,1
0.0001211631,-0.000201509,2,1
0.0001260251,-0.0002086398,2,1
0.0001363972,-0.0002157707,2,1
0.0001443384,-0.0002311669,2,1
0.0001420695,-0.0002546664,2,1
0.0001289422,-0.0002822175,2,1
0.0001104668,-0.0003070135,2,1
9.118101e-05,-0.0003230579,2,1
7.335383e-05,-0.0003250027,2,1
5.828175e-05,-0.000315765,2,1
5.034055e-05,-0.000298424,2,1
4.807163e-05,-0.0002713591,2,1
4.320967e-05,-0.0002347323,2,1
2.846173e-05,-0.0001914609,2,1
7.879432e-06,-0.0001433275,2,1
-1.3027e-05,-9.454585e-05,2,1
-2.971972e-05,-4.592625e-05,2,1
-3.441962e-05,-1.844488e-06,2,1
-2.161646e-05,3.786152e-05,2,1
5.772582e-06,6.995045e-05,2,1
4.612685e-05,9.31258e-05,2,1
9.53947e-05,0.0001093323,2,1
0.0001438522,0.0001198666,2,1
0.0001827479,0.0001269974,2,1
0.0002187264,0.0001312112,2,1
0.0002657254,0.0001389903,2,1
0.0003324963,0.0001521176,2,1
0.0004123946,0.0001689724,2,1
0.0004875929,0.000185341,2,1
0.0005376711,0.000200251,2,1
0.0005535535,0.0002122438,2,1
0.0005311884,0.0002221298,2,1
0.0004767345,0.0002273159,2,1
0.0004020224,0.000227478,2,1
0.0003281205,0.0002263435,2,1
0.0002767458,0.0002315296,2,1
0.0002532463,0.0002440086,2,1
0.0002478982,0.0002592428,2,1
0.0002362295,0.0002713977,2,1
0.0001932822,0.0002806354,2,1
0.0001067393,0.0002872801,2,1
-1.950961e-05,0.0002936006,2,1
-0.0001579134,0.0003010556,2,1
-0.0002676316,0.0003073762,2,1
-0.0003128478,0.00030689,2,1
-0.0002749245,0.0003012177,2,1
-0.000164396,0.0002944109,2,1
-2.631635e-05,0.0002885766,2,1
7.821578e-05,0.0002853353,2,1
0.0001000946,0.0002830664,2,1
2.684107e-05,0.0002791768,2,1
-0.0001186936,0.0002652392,2,1
-0.0002932379,0.000237526,2,1
-0.0004476861,0.0002017096,2,1
-0.000551732,0.000165569,2,1
-0.0005961379,0.0001351007,2,1
-0.0005940311,0.0001114392,2,1
-0.0005681007,9.490851e-05,2,1
-0.0005387668,8.032264e-05,2,1
-0.00051705,6.427817e-05,2,1
-0.0004885266,4.72613e-05,2,1
-0.0004254832,2.846173e-05,2,1
-0.0003063652,7.879432e-06,2,1
-0.0001368449,-1.25408e-05,2,1
4.969229e-05,-3.425755e-05,2,1
0.0002135403,-6.132246e-05,2,1
0.0003258516,-9.422172e-05,2,1
0.000373823,-0.0001308485,2,1
0.0003676645,-0.0001716889,2,1
0.0003235827,-0.0002194982,2,1
0.0002540567,-0.0002703867,2,1
0.000168,-0.0003134961,2,1
8.194328e-05,-0.0003386162,2,1
1.419998e-05,-0.0003400748,2,1
-1.707863e-05,-0.0003241924,2,1
-7.192643e-06,-0.0002992343,2,1
3.834771e-05,-0.000271035,2,1
0.0001041462,-0.0002423494,2,1
0.0001717275,-0.0002152845,2,1
0.0002286124,-0.0001898403,2,1
0.0002728562,-0.0001647201,2,1
0.0003115899,-0.0001412206,2,1
0.0003546993,-0.0001240417,2,1
0.0004102877,-0.0001169109,2,1
0.0004756001,-0.00012469,2,1
0.0005339436,-0.0001455964,2,1
0.0005686256,-0.0001737958,2,1
0.000564736,-0.0002008607,2,1
0.0005196818,-0.0002230636,2,1
0.0004467524,-0.000238946,2,1
0.0003606957,-0.0002439701,2,1
0.0002657254,-0.0002345703,2,1
0.000160707,-0.0002088019,2,1
3.964424e-05,-0.0001715269,2,1
-9.892161e-05,-0.0001349001,2,1
-0.0002541802,-0.0001131834,2,1
-0.0004112214,-0.0001136696,2,1
-0.000549301,-0.0001303623,2,1
-0.0006517263,-0.0001465688,2,1
-0.0007144455,-0.0001465688,2,1
-0.0007384312,-0.0001250141,2,1
-0.0007256281,-8.271508e-05,2,1
-0.0006766844,-2.307504e-05,2,1
-0.0006029447,4.596478e-05,2,1
-0.000524343,0.0001174356,2,1
-0.0004559515,0.0001863134,2,1
-0.0004073319,0.0002436845,2,1
-0.0003810773,0.0002816078,2,1
-0.0003689224,0.0002955454,2,1
-0.0003600088,0.0002908455,2,1
-0.0003467195,0.0002764217,2,1
-0.0003327818,0.0002574601,2,1
-0.0003300267,0.0002367157,2,1
-0.0003491504,0.0002143507,2,1
-0.000385291,0.0001918236,2,1
-0.0004219178,0.0001752929,2,1
-0.0004506033,0.0001699448,2,1
-0.0004781544,0.0001777239,2,1
-0.0005102433,0.0001926339,2,1
-0.0005449253,0.0002064095,2,1
-0.0005656697,0.0002125679,2,1
-0.0005439529,0.0002098128,2,1
-0.0004506033,0.000202682,2,1
-0.0002752487,0.0001949028,2,1
-4.025397e-05,0.0001885823,2,1
0.0002114335,0.0001882582,2,1
0.0004295735,0.000192958,2,1
0.0005747841,0.0002013854,2,1
0.0006394482,0.0002088404,2,1
0.0006362069,0.0002096508,2,1
0.0005874252,0.0002018716,2,1
0.0005211404,0.0001851789,2,1
0.0004660382,0.0001547106,2,1
0.0004444835,0.0001104668,2,1
0.0004623107,5.714729e-05,2,1
0.0005059062,4.151929e-06,2,1
0.0005538776,-3.668853e-05,2,1
0.0005835356,-5.565017e-05,2,1
0.0005755944,-5.629844e-05,2,1
0.0005305402,-5.289507e-05,2,1
0.0004713863,-4.997789e-05,2,1
0.0004256839,-4.835724e-05,2,1
0.0004099636,-4.446767e-05,2,1
0.0004130428,-3.944364e-05,2,1
0.000411098,-3.63644e-05,2,1
0.0003833848,-4.38194e-05,2,1
0.000316938,-6.893953e-05,2,1
0.0002132162,-0.0001057284,2,1
7.999851e-05,-0.0001459206,2,1
-6.148453e-05,-0.0001835197,2,1
-0.0001760647,-0.0002160948,2,1
-0.0002285739,-0.0002418632,2,1
-0.0002011848,-0.0002621213,2,1
-0.0001041077,-0.0002807589,2,1
2.554455e-05,-0.0002995585,2,1
0.000138342,-0.0003160891,2,1
0.0001926339,-0.0003285682,2,1
0.0001697827,-0.0003353749,2,1
7.983644e-05,-0.0003384541,2,1
-4.819517e-05,-0.0003374817,2,1
-0.0001823853,-0.0003308371,2,1
-0.0002989102,-0.0003196545,2,1
-0.0003882082,-0.0003016653,2,1
-0.0004551412,-0.0002793003,2,1
-0.0005117019,-0.0002533699,2,1
-0.0005663179,-0.0002235498,2,1
-0.0006183409,-0.0001924333,2,1
-0.0006598296,-0.0001634236,2,1
-0.0006817085,-0.0001298761,2,1
-0.0006742534,-8.725291e-05,2,1
-0.0006269303,-3.522994e-05,2,1
-0.0005343911,2.554455e-05,2,1
-0.0004121938,9.247754e-05,2,1
-0.0002891863,0.0001592484,2,1
-0.000191785,0.000220023,2,1
-0.0001232314,0.0002675081,2,1
-7.736692e-05,0.0002965178,2,1
-5.143648e-05,0.0003038107,2,1
-4.252288e-05,0.0002905214,2,1
-4.560212e-05,0.0002652392,2,1
-5.159854e-05,0.0002394708,2,1
-4.592625e-05,0.0002209954,2,1
-1.967167e-05,0.00021273,2,1
2.100672e-05,0.0002119197,2,1
6.03886e-05,0.0002149989,2,1
9.037068e-05,0.0002180782,2,1
0.0001138702,0.0002209954,2,1
0.0001352628,0.0002206712,2,1
0.0001483901,0.000217754,2,1
0.0001373696,0.0002137024,2,1
8.46984e-05,0.0002055991,2,1
-1.059602e-05,0.0001913374,2,1
-0.0001216107,0.0001665414,2,1
-0.0002086398,0.0001347766,2,1
-0.0002357047,0.0001057669,2,1
-0.0001822232,8.84259e-05,2,1
-6.197072e-05,8.388807e-05,2,1
9.847395e-05,8.777764e-05,2,1
0.0002665357,9.134307e-05,2,1
0.000411098,9.085688e-05,2,1
0.0005102821,8.323981e-05,2,1
0.0005511225,7.108491e-05,2,1
0.0005402642,6.103686e-05,2,1
0.0005012064,5.876794e-05,2,1
0.0004589073,6.022653e-05,2,1
0.0004216323,5.909208e-05,2,1
0.0003840331,4.499239e-05,2,1
0.0003328204,2.003433e-05,2,1
0.0002577842,-6.058186e-06,2,1
0.0001624898,-2.404744e-05,2,1
7.416415e-05,-2.988179e-05,2,1
3.397195e-05,-2.372331e-05,2,1
7.254349e-05,-1.059602e-05,2,1
0.0002031682,4.151929e-06,2,1
0.0004206599,2.084466e-05,2,1
0.0006969814,4.045456e-05,2,1
0.0009885372,6.346784e-05,2,1
0.001243953,8.988449e-05,2,1
0.001404722,0.0001143563,2,1
0.001423197,0.000128294,2,1
0.001281228,0.0001211631,2,1
0.001008633,8.631905e-05,2,1
0.000671213,2.846173e-05,2,1
0.0003371962,-3.668853e-05,2,1
5.52025e-05,-9.29252e-05,2,1
-0.0001379794,-0.0001302002,2,1
-0.0002138259,-0.0001489998,2,1
-0.0001661787,-0.0001543479,2,1
-2.583016e-05,-0.0001536997,2,1
0.0001406109,-0.0001480274,2,1
0.000269777,-0.0001373311,2,1
0.0003114278,-0.0001240417,2,1
0.0002478982,-0.0001101041,2,1
0.0001025256,-0.0001044318,2,1
-7.704279e-05,-0.0001104282,2,1
-0.0002499665,-0.0001251762,2,1
-0.0003938804,-0.0001402483,2,1
-0.0005029504,-0.0001498101,2,1
-0.0005776625,-0.0001507825,2,1
-0.0006181788,-0.0001451102,2,1
-0.0006301716,-0.0001342519,2,1
-0.0006201236,-0.0001204763,2,1
-0.0005950035,-0.0001060525,2,1
-0.0005663179,-9.29252e-05,2,1
-0.0005447632,-8.514606e-05,2,1
-0.0005353634,-8.368748e-05,2,1
-0.0005345531,-8.919769e-05,2,1
-0.0005347152,-9.892161e-05,2,1
-0.0005258016,-0.0001099421,2,1
-0.0005050572,-0.0001173971,2,1
-0.0004752372,-0.0001182074,2,1
-0.0004428242,-0.0001089697,2,1
-0.0004086284,-8.903562e-05,2,1
-0.0003647087,-6.148453e-05,2,1
-0.0003084721,-2.712668e-05,2,1
-0.000251101,1.274139e-05,2,1
-0.0002092881,5.082674e-05,2,1
-0.0001914609,7.740546e-05,2,1
-0.0001925954,9.053275e-05,2,1
-0.0001956746,9.490851e-05,2,1
-0.0001890299,9.879808e-05,2,1
-0.0001746061,0.0001062531,2,1
-0.0001558065,0.0001175977,2,1
-0.0001358725,0.0001351007,2,1
-0.0001164247,0.000160545,2,1
-9.486997e-05,0.0001926339,2,1
-7.072225e-05,0.0002222919,2,1
-4.576419e-05,0.0002414156,2,1
-2.242678e-05,0.0002482223,2,1
-5.479652e-07,0.0002466017,2,1
1.954813e-05,0.0002438466,2,1
3.591673e-05,0.00024255,2,1
4.661304e-05,0.0002415777,2,1
5.098881e-05,0.0002373639,2,1
4.855783e-05,0.0002263435,2,1
4.094075e-05,0.0002090025,2,1
2.554455e-05,0.0001880961,2,1
-3.303076e-06,0.0001626518,2,1
-4.722278e-05,0.0001291043,2,1
-9.551824e-05,9.101894e-05,2,1
-0.0001302002,5.909208e-05,2,1
-0.0001404103,3.834771e-05,2,1
-0.0001224211,2.992031e-05,2,1
-8.579432e-05,2.748934e-05,2,1
-4.90055e-05,2.910999e-05,2,1
-2.712668e-05,3.364782e-05,2,1
-2.583016e-05,3.883391e-05,2,1
-3.490581e-05,4.256141e-05,2,1
-4.219875e-05,4.337174e-05,2,1
-4.365734e-05,4.045456e-05,2,1
-4.252288e-05,3.073064e-05,2,1
-4.80331e-05,1.517237e-05,2,1
-7.428769e-05,-2.330684e-06,2,1
-0.000129714,-1.99958e-05,2,1
-0.000206695,-3.701266e-05,2,1
-0.0002854588,-5.046408e-05,2,1
-0.0003407231,-5.808115e-05,2,1
-0.0003583881,-6.456377e-05,2,1
-0.0003324577,-7.072225e-05,2,1
-0.0002626076,-7.509801e-05,2,1
-0.0001603444,-7.509801e-05,2,1
-4.365734e-05,-7.412562e-05,2,1
7.011252e-05,-8.012204e-05,2,1
0.0001671896,-9.794922e-05,2,1
0.0002372019,-0.0001269589,2,1
0.0002739907,-0.000161965,2,1
0.0002762596,-0.0001937298,2,1
0.0002485465,-0.0002152845,2,1
0.000195389,-0.0002204706,2,1
0.000118408,-0.0002104225,2,1
1.954813e-05,-0.0001914609,2,1
-9.422172e-05,-0.0001724993,2,1
-0.0002057227,-0.0001572651,2,1
-0.0002980999,-0.0001475412,2,1
-0.0003575778,-0.0001402483,2,1
-0.0003792946,-0.0001287416,2,1
-0.0003700569,-0.0001118868,2,1
-0.0003457471,-9.66527e-05,2,1
-0.0003217614,-8.919769e-05,2,1
-0.0003049066,-8.871149e-05,2,1
-0.0002862691,-9.130454e-05,2,1
-0.000253694,-9.29252e-05,2,1
-0.0001998883,-9.584238e-05,2,1
-0.0001253383,-0.0001016767,2,1
-2.858527e-05,-0.0001079973,2,1
8.534666e-05,-0.0001101041,2,1
0.0002013854,-0.0001041077,2,1
0.0003062417,-8.660465e-05,2,1
0.0003952156,-5.419158e-05,2,1
0.0004759242,-7.030578e-06,2,1
0.0005529052,5.487838e-05,2,1
0.000629076,0.0001237561,2,1
0.0007023296,0.0001876099,2,1
0.0007645627,0.0002368777,2,1
0.0008144788,0.000267184,2,1
0.0008527263,0.0002788527,2,1
0.0008818981,0.0002799871,2,1
0.0008974564,0.0002791768,2,1
0.0008947013,0.0002775562,2,1
0.0008679605,0.0002723701,2,1
0.0008227442,0.0002619979,2,1
0.0007707212,0.0002428742,2,1
0.0007340944,0.0002148369,2,1
0.0007229118,0.0001827479,2,1
0.0007276118,0.0001548727,2,1
0.0007295565,0.0001370455,2,1
0.0007198326,0.0001300767,2,1
0.0007016813,0.0001255389,2,1
0.0006752646,0.0001143563,2,1
0.0006362069,9.442231e-05,2,1
0.0005674912,7.124698e-05,2,1
0.0004542074,5.293359e-05,2,1
0.0003018659,4.207521e-05,2,1
0.0001305629,3.802358e-05,2,1
-4.349527e-05,3.462021e-05,2,1
-0.0002081536,2.473423e-05,2,1
-0.0003567675,5.772582e-06,2,1
-0.0004864197,-1.821308e-05,2,1
-0.0005903036,-4.300908e-05,2,1
-0.0006667984,-6.667062e-05,2,1
-0.000717849,-8.952183e-05,2,1
-0.000742969,-0.0001078352,2,1
-0.0007325969,-0.0001219349,2,1
-0.0006695535,-0.0001298761,2,1
-0.0005395772,-0.000127283,2,1
-0.0003587123,-0.0001118868,2,1
-0.0001804405,-8.433573e-05,2,1
-6.197072e-05,-4.689865e-05,2,1
-3.458168e-05,-7.354709e-06,2,1
-9.730096e-05,2.603075e-05,2,1
-0.0002269532,4.320967e-05,2,1
-0.0003883702,3.883391e-05,2,1
-0.0005350393,1.59827e-05,2,1
-0.00062612,-1.983374e-05,2,1
-0.0006416783,-6.132246e-05,2,1
-0.0005885208,-9.746302e-05,2,1
-0.0004932265,-0.0001211246,2,1
-0.0003945287,-0.0001290658,2,1
-0.000315765,-0.0001259865,2,1
-0.0002647144,-0.0001214487,2,1
-0.0002360289,-0.0001235555,2,1
-0.0002298704,-0.0001319829,2,1
-0.0002379736,-0.0001394379,2,1
-0.0002405667,-0.0001405724,2,1
-0.0002172293,-0.0001355484,2,1
-0.0001579134,-0.0001277692,2,1
-6.845333e-05,-0.0001204763,2,1
3.105477e-05,-0.0001144799,2,1
0.0001180839,-0.0001054042,2,1
0.0001707551,-8.838737e-05,2,1
0.000178048,-6.342931e-05,2,1
0.000145797,-3.668853e-05,2,1
9.879808e-05,-1.659243e-05,2,1
7.52986e-05,-6.382317e-06,2,1
9.960841e-05,-6.220252e-06,2,1
0.0001816135,-1.67545e-05,2,1
0.0003148312,-3.117831e-05,2,1
0.0004790034,-4.05781e-05,2,1
0.0006410689,-3.766092e-05,2,1
0.0007647247,-1.756482e-05,2,1
0.0008230684,1.54965e-05,2,1
0.0008128582,5.179914e-05,2,1
0.0007485182,8.388807e-05,2,1
0.0006520892,0.0001081979,2,1
0.000542371,0.0001219734,2,1
0.000435894,0.0001211631,2,1
0.0003425444,0.0001007429,2,1
0.0002704253,6.719535e-05,2,1
0.0002299089,3.688912e-05,2,1
0.0002213195,2.894792e-05,2,1
0.0002318537,4.709924e-05,2,1
0.0002373639,8.631905e-05,2,1
0.0002112714,0.0001338042,2,1
0.0001391524,0.0001736723,2,1
2.359977e-05,0.0001876099,2,1
-0.0001188556,0.0001691344,2,1
-0.0002655248,0.0001247285,2,1
-0.0003935563,7.108491e-05,2,1
-0.0004836646,1.97102e-05,2,1
-0.0005206155,-2.194059e-05,2,1
-0.0005024642,-4.85193e-05,2,1
-0.0004452552,-5.986387e-05,2,1
-0.0003773498,-6.148453e-05,2,1
-0.0003287302,-5.856735e-05,2,1
-0.0003130099,-5.354332e-05,2,1
-0.0003313232,-4.462973e-05,2,1
-0.0003744326,-2.453363e-05,2,1
-0.0004258073,1.079661e-05,2,1
-0.0004642168,5.131294e-05,2,1
-0.0004763717,8.599492e-05,2,1
-0.000462272,0.0001070634,2,1
-0.0004288866,0.0001070634,2,1
-0.0003922598,8.129502e-05,2,1
-0.0003674638,3.526847e-05,2,1
-0.0003669776,-1.20546e-05,2,1
-0.0003989045,-4.576419e-05,2,1
-0.0004496309,-6.294311e-05,2,1
-0.0004953333,-6.375344e-05,2,1
-0.0005092709,-4.43056e-05,2,1
-0.0004797751,-8.651231e-06,2,1
-0.0004128421,3.267542e-05,2,1
-0.0003284061,7.286763e-05,2,1
-0.0002476975,0.0001047945,2,1
-0.0001814128,0.000125863,2,1
-0.0001256624,0.0001378558,2,1
-7.477388e-05,0.0001422316,2,1
-2.647842e-05,0.0001401247,2,1
1.54965e-05,0.000130725,2,1
5.017848e-05,0.000113384,2,1
7.708133e-05,8.777764e-05,2,1
9.474644e-05,5.682316e-05,2,1
0.0001054428,2.76514e-05,2,1
0.000110953,9.824215e-06,2,1
0.0001114392,1.160693e-05,2,1
0.0001116012,3.478228e-05,2,1
0.0001143563,6.978839e-05,2,1
0.0001171115,0.0001009049,2,1
0.0001137081,0.0001166253,2,1
0.0001049566,0.0001148425,2,1
9.118101e-05,0.0001051186,2,1
6.881599e-05,9.377406e-05,2,1
3.494434e-05,8.42122e-05,2,1
-9.623623e-06,7.286763e-05,2,1
-5.970181e-05,5.844381e-05,2,1
-0.000107349,4.936815e-05,2,1
-0.0001423551,5.374392e-05,2,1
-0.0001624512,7.043665e-05,2,1
-0.0001797922,9.150514e-05,2,1
-0.0002081536,0.0001046324,2,1
-0.0002517492,0.0001031738,2,1
-0.0002980999,8.761557e-05,2,1
-0.0003262992,6.379197e-05,2,1
-0.0003177098,3.413401e-05,2,1
-0.0002652006,3.827799e-06,2,1
-0.0001752544,-2.177852e-05,2,1
-6.44017e-05,-4.171256e-05,2,1
4.77475e-05,-5.500191e-05,2,1
0.0001519555,-6.39155e-05,2,1
0.0002370398,-7.039812e-05,2,1
0.0002892249,-7.55842e-05,2,1
0.0002983005,-8.07703e-05,2,1
0.0002683184,-8.352541e-05,2,1
0.00021273,-8.417367e-05,2,1
0.0001459591,-8.352541e-05,2,1
7.367795e-05,-8.320128e-05,2,1
-2.81688e-06,-8.919769e-05,2,1
-7.898758e-05,-0.000107349,2,1
-0.0001418689,-0.0001363587,2,1
-0.0001812508,-0.0001689338,2,1
-0.0001885437,-0.0001914609,2,1
-0.0001663408,-0.0001953505,2,1
-0.0001267968,-0.0001776853,2,1
-8.206682e-05,-0.0001472171,2,1
-3.960571e-05,-0.0001128592,2,1
-1.682422e-06,-8.190475e-05,2,1
2.862379e-05,-6.06742e-05,2,1
5.406805e-05,-4.949169e-05,2,1
7.448828e-05,-4.625038e-05,2,1
8.405014e-05,-5.32192e-05,2,1
8.486046e-05,-7.412562e-05,2,1
8.956036e-05,-0.0001104282,2,1
0.000113384,-0.0001579134,2,1
0.0001689724,-0.0002023193,2,1
0.0002666978,-0.0002284118,2,1
0.0004000776,-0.0002274394,2,1
0.0005394538,-0.0001989159,2,1
0.0006423654,-0.0001524032,2,1
0.0006755888,-0.0001036215,2,1
0.000631507,-6.423963e-05,2,1
0.000532647,-3.798505e-05,2,1
0.0004216323,-1.691656e-05,2,1
0.0003456236,6.420843e-06,2,1
0.0003371962,3.850978e-05,2,1
0.0003963501,8.275361e-05,2,1
0.0004937514,0.0001352628,2,1
0.0005875872,0.0001861513,2,1
0.0006409068,0.0002333123,2,1
0.0006368551,0.0002754493,2,1
0.0005828873,0.0003148312,2,1
0.0005154681,0.0003467581,2,1
0.0004845136,0.000368799,2,1
0.0005195198,0.0003794953,2,1
0.0005974732,0.0003780367,2,1
0.0006629477,0.0003637749,2,1
0.000663596,0.0003368721,2,1
0.0005762426,0.0002974902,2,1
0.0004117463,0.0002480603,2,1
0.0002185644,0.0001911753,2,1
6.379197e-05,0.0001346145,2,1
-3.627206e-06,8.46984e-05,2,1
3.251336e-05,4.288554e-05,2,1
0.0001524417,8.527692e-06,2,1
0.0003041349,-1.562004e-05,2,1
0.0004300596,-2.534396e-05,2,1
0.0004979651,-1.99958e-05,2,1
0.0005084993,-1.358292e-06,2,1
0.000483055,2.230325e-05,2,1
0.0004388112,4.094075e-05,2,1
0.0003874365,4.645098e-05,2,1
0.0003334687,3.818565e-05,2,1
0.0002657254,1.906194e-05,2,1
0.0001694586,-5.085794e-06,2,1
4.013043e-05,-2.453363e-05,2,1
-0.0001143178,-3.474375e-05,2,1
-0.0002767073,-3.911951e-05,2,1
-0.0004293727,-4.706071e-05,2,1
-0.0005543251,-6.180866e-05,2,1
-0.0006444334,-8.093236e-05,2,1
-0.0007014804,-9.973194e-05,2,1
-0.0007275729,-0.0001141558,2,1
-0.0007243316,-0.0001190177,2,1
-0.0007040734,-0.0001131834,2,1
-0.0006820326,-0.0001032974,2,1
-0.0006711741,-9.66527e-05,2,1
-0.0006773326,-9.875954e-05,2,1
-0.0006959701,-0.0001092938,2,1
-0.0007069906,-0.000122259,2,1
-0.0006843015,-0.0001337657,2,1
-0.0006133168,-0.0001418689,2,1
-0.0004951713,-0.0001433275,2,1
-0.0003470436,-0.0001352242,2,1
-0.0002034537,-0.0001165867,2,1
-0.0001011905,-9.762509e-05,2,1
-6.083626e-05,-8.725291e-05,2,1
-7.914964e-05,-8.919769e-05,2,1
-0.0001329553,-9.649064e-05,2,1
-0.0001883817,-9.632857e-05,2,1
-0.0002258187,-8.303922e-05,2,1
-0.000246401,-5.840528e-05,2,1
-0.0002656868,-3.020592e-05,2,1
-0.0002971275,-5.57199e-06,2,1
-0.0003418575,1.371378e-05,2,1
-0.0003919357,2.586868e-05,2,1
-0.0004329382,3.575467e-05,2,1
-0.0004540067,4.531652e-05,2,1
-0.0004509274,5.439218e-05,2,1
-0.0004266177,6.427817e-05,2,1
-0.0003875599,7.30297e-05,2,1
-0.0003386162,7.691926e-05,2,1
-0.0002797865,7.335383e-05,2,1
-0.0002151224,6.444023e-05,2,1
-0.0001546721,5.358185e-05,2,1
-0.0001045939,4.207521e-05,2,1
-6.456377e-05,2.781346e-05,2,1
-2.7937e-05,1.419998e-05,2,1
6.096713e-06,7.717366e-06,2,1
3.688912e-05,1.306552e-05,2,1
6.281957e-05,2.797553e-05,2,1
8.550872e-05,4.936815e-05,2,1
0.0001052807,7.772959e-05,2,1
0.000118408,0.0001091703,2,1
0.0001188942,0.0001360731,2,1
0.0001043083,0.0001521176,2,1
7.481241e-05,0.0001573037,2,1
2.635488e-05,0.0001595726,2,1
-4.511593e-05,0.000162976,2,1
-0.0001436516,0.0001676758,2,1
-0.0002622834,0.0001710792,2,1
-0.0003776739,0.0001715654,2,1
-0.0004648651,0.0001689724,2,1
-0.0005082985,0.0001636242,2,1
-0.000507002,0.0001579519,2,1
-0.0004715097,0.0001519555,2,1
-0.0004170558,0.0001454729,2,1
-0.0003540124,0.0001398006,2,1
-0.0002908069,0.0001368834,2,1
-0.0002352185,0.0001339663,2,1
-0.0001888679,0.0001257009,2,1
-0.0001472171,0.0001106288,2,1
-0.0001065387,8.956036e-05,2,1
-6.521203e-05,6.800567e-05,2,1
-2.161646e-05,5.212327e-05,2,1
2.959619e-05,4.45062e-05,2,1
9.507057e-05,4.320967e-05,2,1
0.0001819376,4.596478e-05,2,1
0.0002872801,4.790957e-05,2,1
0.0004052637,4.45062e-05,2,1
0.0005334574,3.18651e-05,2,1
0.0006674855,9.824215e-06,2,1
0.0007971379,-2.242678e-05,2,1
0.0009073424,-6.245691e-05,2,1
0.0009935612,-0.0001013526,2,1
0.001064222,-0.0001329553,2,1
0.001140879,-0.0001543479,2,1
0.001249301,-0.0001640719,2,1
0.001411042,-0.0001652063,2,1
0.001617676,-0.0001629374,2,1
0.001821879,-0.0001621271,2,1
0.001954449,-0.0001663408,2,1
0.001956231,-0.0001739578,2,1
0.001796596,-0.0001794681,2,1
0.001482675,-0.0001794681,2,1
0.001062601,-0.000174282,2,1
0.0006034696,-0.0001703924,2,1
0.000168162,-0.0001681235,2,1
-0.0001963229,-0.0001690959,2,1
-0.0004666478,-0.0001728234,2,1
-0.000638599,-0.0001780095,2,1
-0.0007142835,-0.0001794681,2,1
-0.0006948357,-0.0001712027,2,1
-0.0005894933,-0.0001546721,2,1
-0.0004295348,-0.0001340898,2,1
-0.0002653627,-0.0001167488,2,1
-0.000137169,-0.0001050801,2,1
-6.731888e-05,-9.875954e-05,2,1
-4.787104e-05,-9.794922e-05,2,1
-6.051213e-05,-0.0001000561,2,1
-9.324933e-05,-0.0001045939,2,1
-0.0001457585,-0.0001117248,2,1
-0.000223874,-0.000122259,2,1
-0.0003272716,-0.0001342519,2,1
-0.0004506033,-0.0001447861,2,1
-0.000576366,-0.0001499722,2,1
-0.0006776568,-0.0001478653,2,1
-0.0007319486,-0.0001340898,2,1
-0.0007270867,-0.0001065387,2,1
-0.00067085,-7.18567e-05,2,1
-0.0005894933,-4.106429e-05,2,1
-0.0005178604,-2.031993e-05,2,1
-0.0004789647,-7.192643e-06,2,1
-0.0004702132,5.772582e-06,2,1
-0.0004634065,2.748934e-05,2,1
-0.0004356933,5.61749e-05,2,1
-0.0003843186,8.712937e-05,2,1
-0.0003243544,0.0001141943,2,1
-0.0002682799,0.0001368834,2,1
-0.000221443,0.000155683,2,1
-0.0001848162,0.000170593,2,1
-0.0001546721,0.0001809652,2,1
-0.0001314967,0.0001895547,2,1
-0.0001204763,0.0002041406,2,1
-0.0001302002,0.0002229401,2,1
-0.000159372,0.0002381743,2,1
-0.0001950263,0.0002427121,2,1
-0.0002170672,0.0002368777,2,1
-0.0002160948,0.0002287745,2,1
-0.0001958367,0.0002273159,2,1
-0.000166989,0.0002333123,2,1
-0.0001434896,0.0002417397,2,1
-0.0001387897,0.0002431983,2,1
-0.0001682856,0.0002282883,2,1
-0.0002405667,0.000195227,2,1
-0.0003423437,0.0001511452,2,1
-0.0004488206,0.0001052807,2,1
-0.0005313118,6.897806e-05,2,1
-0.0005786349,5.082674e-05,2,1
-0.0005967862,5.504044e-05,2,1
-0.0005974344,8.178122e-05,2,1
-0.0005922483,0.0001276457,2,1
-0.000591276,0.0001965235,2,1
-0.0005963,0.000289549,2,1
-0.0005987309,0.0003971604,2,1
-0.0005834968,0.0004922928,2,1
-0.0005426564,0.0005480433,2,1
-0.0004802613,0.0005491778,2,1
-0.0004081422,0.000500234,2,1
-0.0003378059,0.0004179048,2,1
-0.0002773555,0.0003172622,2,1
-0.0002241981,0.0002085163,2,1
-0.0001690959,9.993253e-05,2,1
-9.730096e-05,3.179537e-06,2,1
1.59827e-05,-7.396356e-05,2,1
0.00019782,-0.0001310105,2,1
0.0004610142,-0.0001712027,2,1
0.000797462,-0.0002029675,2,1
0.001180909,-0.000231491,2,1
0.001559008,-0.0002523975,2,1
0.001862881,-0.000266173,2,1
0.002034185,-0.0002768693,2,1
0.002030782,-0.0002888622,2,1
0.001849754,-0.000300855,2,1
0.001533726,-0.0003120375,2,1
0.001155465,-0.0003203028,2,1
0.0007867657,-0.000320789,2,1
0.0004749518,-0.0003094444,2,1
0.0002370398,-0.0002877277,2,1
6.914012e-05,-0.0002617972,2,1
-4.43056e-05,-0.0002370013,2,1
-0.0001267968,-0.0002188499,2,1
-0.0001943781,-0.0002131776,2,1
-0.0002506147,-0.0002212809,2,1
-0.0002940482,-0.0002426735,2,1
-0.0003194925,-0.0002797865,2,1
-0.0003264613,-0.0003387782,2,1
-0.0003167374,-0.0004211074,2,1
-0.0002989102,-0.0005131605,2,1
-0.0002843243,-0.0005959758,2,1
-0.0002744383,-0.0006442713,2,1
-0.0002572594,-0.0006444334,2,1
-0.0002237119,-0.0005959758,2,1
-0.000166989,-0.0005097571,2,1
-9.19528e-05,-0.0004049009,2,1
-1.189254e-05,-0.0003011791,2,1
5.682316e-05,-0.0002081536,2,1
0.0001096565,-0.0001267968,2,1
0.0001467694,-5.143648e-05,2,1
0.0001639484,2.748934e-05,2,1
0.00015309,0.0001098185,2,1
0.0001175977,0.0001848548,2,1
7.270556e-05,0.0002396328,2,1
3.769945e-05,0.0002709115,2,1
2.100672e-05,0.0002814457,2,1
2.116879e-05,0.0002793389,2,1
3.251336e-05,0.0002704253,2,1
4.612685e-05,0.0002592428,2,1
6.055066e-05,0.0002508154,2,1
7.853991e-05,0.0002448189,2,1
9.896015e-05,0.0002404432,2,1
0.0001137081,0.000239957,2,1
0.0001090082,0.0002456293,2,1
7.821578e-05,0.0002611876,2,1
3.235129e-05,0.0002908455,2,1
-1.358292e-06,0.0003308757,2,1
-2.654814e-06,0.0003702575,2,1
2.700314e-05,0.0004008879,2,1
7.189524e-05,0.000418391,2,1
0.0001127357,0.0004206599,2,1
0.0001354248,0.0004107739,2,1
0.000128294,0.0003942432,2,1
8.956036e-05,0.0003785229,2,1
2.651694e-05,0.0003665301,2,1
-4.673658e-05,0.000354051,2,1
-0.0001161005,0.0003349273,2,1
-0.0001703924,0.0003057555,2,1
-0.0002023193,0.000267184,2,1
-0.0002175534,0.0002255332,2,1
-0.0002272773,0.000185503,2,1
-0.0002407288,0.0001488763,2,1
-0.0002617972,0.0001190562,2,1
-0.0002875656,9.896015e-05,2,1
-0.0003126857,8.550872e-05,2,1
-0.00033813,7.886404e-05,2,1
-0.0003600088,8.080883e-05,2,1
-0.0003720016,8.939829e-05,2,1
-0.000365519,9.814982e-05,2,1
-0.0003407231,9.652917e-05,2,1
-0.0003039342,8.291568e-05,2,1
-0.0002718453,6.200925e-05,2,1
-0.0002501286,3.656499e-05,2,1
-0.0002399184,1.031041e-05,2,1
-0.0002386219,-1.578211e-05,2,1
-0.0002381357,-4.446767e-05,2,1
-0.0002272773,-8.109443e-05,2,1
-0.0002019951,-0.0001261486,2,1
-0.0001660166,-0.0001775233,2,1
-0.0001276072,-0.0002303566,2,1
-9.276313e-05,-0.00027849,2,1
-6.294311e-05,-0.0003170615,2,1
-3.863332e-05,-0.0003441264,2,1
-1.62683e-05,-0.0003637363,2,1
1.322759e-05,-0.0003776739,2,1
5.666109e-05,-0.0003812394,2,1
0.0001122495,-0.0003656811,2,1
0.000170431,-0.0003220855,2,1
0.0002137024,-0.0002525595,2,1
0.0002292607,-0.0001689338,2,1
0.0002133783,-8.563225e-05,2,1
0.0001702689,-1.140634e-05,2,1
0.0001185701,4.742337e-05,2,1
7.221937e-05,8.729144e-05,2,1
4.142696e-05,0.000110953,2,1
3.024445e-05,0.0001200286,2,1
3.316162e-05,0.0001218114,2,1
4.013043e-05,0.0001193804,2,1
3.672706e-05,0.0001090082,2,1
8.689758e-06,8.631905e-05,2,1
-4.398147e-05,5.390598e-05,2,1
-0.0001083214,1.711715e-05,2,1
-0.0001621271,-1.643037e-05,2,1
-0.0001780095,-4.349527e-05,2,1
-0.0001323071,-6.375344e-05,2,1
-1.221667e-05,-7.850138e-05,2,1
0.000170431,-9.114248e-05,2,1
0.0003770643,-0.000102325,2,1
0.0005464226,-0.000112211,2,1
0.0006263209,-0.0001180453,2,1
0.0005940699,-0.0001175591,2,1
0.0004658761,-0.0001091317,2,1
0.0002866318,-9.405965e-05,2,1
0.0001103047,-6.667062e-05,2,1
-2.291298e-05,-1.983374e-05,2,1
-9.989401e-05,4.839576e-05,2,1
-0.0001276072,0.0001295905,2,1
-0.0001266348,0.0002104611,2,1
-0.0001178833,0.0002793389,2,1
-0.0001169109,0.0003295791,2,1
-0.0001251762,0.0003600474,2,1
-0.0001316588,0.0003722023,2,1
-0.0001225832,0.0003734989,2,1
-9.179074e-05,0.0003681507,2,1
-3.895745e-05,0.0003569682,2,1
2.829966e-05,0.000339141,2,1
0.0001015532,0.0003151553,2,1
0.000178048,0.0002864697,2,1
0.0002657254,0.0002511395,2,1
0.0003702575,0.0002117576,2,1
0.0004884033,0.0001726999,2,1
0.000601849,0.0001349386,2,1
0.0006932539,9.993253e-05,2,1
0.0007464114,6.930219e-05,2,1
0.0007451148,4.515445e-05,2,1
0.0006760749,3.202716e-05,2,1
0.0005415607,3.218923e-05,2,1
0.0003619922,4.110282e-05,2,1
0.0001743205,5.277153e-05,2,1
1.825161e-05,6.055066e-05,2,1
-8.352541e-05,6.152305e-05,2,1
-0.0001267968,5.52025e-05,2,1
-0.0001263107,3.964424e-05,2,1
-0.0001118868,1.484824e-05,2,1
-0.0001109144,-1.643037e-05,2,1
-0.0001303623,-4.787104e-05,2,1
-0.0001598582,-7.526008e-05,2,1
-0.0001912988,-9.956988e-05,2,1
-0.000221443,-0.0001188556,2,1
-0.000248832,-0.0001337657,2,1
-0.0002715212,-0.0001430034,2,1
-0.0002908069,-0.0001512687,2,1
-0.0003131719,-0.0001596961,2,1
-0.0003384541,-0.0001720131,2,1
-0.0003640605,-0.0001883817,2,1
-0.0003839945,-0.0002097743,2,1
-0.0003925839,-0.0002332737,2,1
-0.0003775118,-0.0002502906,2,1
-0.0003308371,-0.0002533699,2,1
-0.0002502906,-0.0002412149,2,1
-0.0001491618,-0.0002172293,2,1
-4.819517e-05,-0.0001940539,2,1
3.105477e-05,-0.0001828714,2,1
7.027458e-05,-0.00018433,2,1
6.233338e-05,-0.0001921092,2,1
1.419998e-05,-0.000201509,2,1
-5.2733e-05,-0.0002045882,2,1
-0.0001128592,-0.0002000504,2,1
-0.0001475412,-0.0001924333,2,1
-0.0001451102,-0.0001844921,2,1
-0.0001057284,-0.0001781716,2,1
-3.020592e-05,-0.0001721751,2,1
6.914012e-05,-0.0001632615,2,1
0.0001759412,-0.0001478653,2,1
0.0002717218,-0.0001289037,2,1
0.0003384927,-0.0001102662,2,1
0.0003678266,-9.568031e-05,2,1
0.0003717161,-8.854943e-05,2,1
0.0003733368,-8.725291e-05,2,1
0.0003884089,-9.000802e-05,2,1
0.0004073705,-9.308726e-05,2,1
0.0004021844,-9.017008e-05,2,1
0.0003499994,-7.898758e-05,2,1
0.0002477361,-6.051213e-05,2,1
0.0001054428,-3.879538e-05,2,1
-6.44017e-05,-1.772689e-05,2,1
-0.0002478596,-2.330684e-06,2,1
-0.0004264556,8.689758e-06,2,1
-0.0005812279,1.857574e-05,2,1
-0.0006985632,2.570662e-05,2,1
-0.0007771649,2.910999e-05,2,1
-0.0008181673,3.008238e-05,2,1
-0.0008141157,3.413401e-05,2,1
-0.0007538275,4.709924e-05,2,1
-0.0006327647,6.573675e-05,2,1
-0.0004658375,8.372601e-05,2,1
-0.0002836761,9.669123e-05,2,1
-0.0001245279,0.0001051186,2,1
-1.691656e-05,0.0001188942,2,1
3.235129e-05,0.0001386662,2,1
3.834771e-05,0.0001602208,2,1
3.008238e-05,0.0001762653,2,1
3.283749e-05,0.0001838824,2,1
5.439218e-05,0.0001867996,2,1
8.583286e-05,0.0001874478,2,1
0.0001143563,0.0001900409,2,1
0.0001213252,0.0001963614,2,1
9.814982e-05,0.0002059233,2,1
5.358185e-05,0.000215161,2,1
8.203562e-06,0.0002229401,2,1
-2.226472e-05,0.0002279642,2,1
-3.749886e-05,0.000230071,2,1
-4.657452e-05,0.0002268297,2,1
-6.359137e-05,0.0002187264,2,1
-8.595638e-05,0.0002078681,2,1
-9.827335e-05,0.0001984683,2,1
-7.65566e-05,0.0001945787,2,1
-3.303076e-06,0.0001921477,2,1
0.0001117633,0.0001897167,2,1
0.0002365536,0.0001842065,2,1
0.0003315239,0.0001743205,2,1
0.0003658818,0.0001616794,2,1
0.0003277964,0.0001503349,2,1
0.0002281262,0.0001398006,2,1
9.53947e-05,0.0001289422,2,1
-3.620233e-05,0.000115977,2,1
-0.0001379794,9.863601e-05,2,1
-0.0001998883,7.481241e-05,2,1
-0.000223874,4.645098e-05,2,1
-0.0002128535,1.873781e-05,2,1
-0.0001630995,-4.113403e-06,2,1
-6.456377e-05,-2.226472e-05,2,1
8.307774e-05,-3.409549e-05,2,1
0.0002683184,-3.928157e-05,2,1
0.0004621486,-4.446767e-05,2,1
0.0006169211,-5.613637e-05,2,1
0.0006872575,-7.315322e-05,2,1
0.0006511169,-9.130454e-05,2,1
0.0005251921,-0.0001109144,2,1
0.000353889,-0.0001339277,2,1
0.0001890685,-0.0001592099,2,1
7.011252e-05,-0.0001835197,2,1
2.230325e-05,-0.0001994021,2,1
4.628891e-05,-0.0002031296,2,1
0.0001056048,-0.0001940539,2,1
0.0001440143,-0.0001797922,2,1
0.0001255389,-0.0001645581,2,1
5.779555e-05,-0.0001499722,2,1
-1.237873e-05,-0.0001358725,2,1
-3.798505e-05,-0.0001256624,2,1
1.883015e-06,-0.0001209625,2,1
0.0001020394,-0.0001251762,2,1
0.0002328261,-0.0001365208,2,1
0.0003624784,-0.0001517549,2,1
0.0004644175,-0.0001652063,2,1
0.0005266506,-0.0001702304,2,1
0.0005475571,-0.0001663408,2,1
0.0005232473,-0.0001564548,2,1
0.0004563143,-0.0001405724,2,1
0.0003595612,-0.0001157764,2,1
0.0002501671,-7.947377e-05,2,1
0.0001500107,-4.203669e-05,2,1
7.67572e-05,-1.594417e-05,2,1
3.364782e-05,-2.168618e-06,2,1
1.22552e-05,4.80019e-06,2,1
8.041497e-06,1.047248e-05,2,1
1.841368e-05,2.359977e-05,2,1
4.888196e-05,4.547859e-05,2,1
0.0001062531,7.157111e-05,2,1
0.0001900409,9.733949e-05,2,1
0.0002842008,0.0001232699,2,1
0.0003593992,0.0001487142,2,1
0.0003760919,0.0001723757,2,1
0.0003054314,0.0001924718,2,1
0.000148228,0.000207706,2,1
-5.970181e-05,0.0002169437,2,1
-0.0002705488,0.000217754,2,1
-0.0004434724,0.0002078681,2,1
-0.0005593491,0.0001845306,2,1
-0.0006202856,0.0001474177,2,1
-0.0006426507,0.0001067393,2,1
-0.000643461,7.173317e-05,2,1
-0.0006279027,5.358185e-05,2,1
-0.0005940311,5.325772e-05,2,1
-0.0005476804,6.41161e-05,2,1
-0.0005053814,7.886404e-05,2,1
-0.0004860956,9.020862e-05,2,1
-0.0004938748,9.669123e-05,2,1
-0.0005178604,0.0001015532,2,1
-0.0005446012,0.0001127357,2,1
-0.000559187,0.0001362352,2,1
-0.0005514079,0.0001746447,2,1
-0.0005138087,0.0002198609,2,1
-0.0004431483,0.0002600531,2,1
-0.0003462333,0.0002853353,2,1
-0.0002379736,0.0002898731,2,1
-0.0001391138,0.0002756114,2,1
-6.926366e-05,0.0002485465,2,1
-3.539201e-05,0.0002133783,2,1
-3.717473e-05,0.0001671896,2,1
-6.942573e-05,0.0001065772,2,1
-0.0001259865,3.121684e-05,2,1
-0.0001972953,-5.354332e-05,2,1
-0.0002723315,-0.0001407345,2,1
-0.0003449367,-0.0002241981,2,1
-0.0004074939,-0.0002948586,2,1
-0.0004429862,-0.0003387782,2,1
-0.0004293727,-0.000350447,2,1
-0.0003650328,-0.0003301888,2,1
-0.0002747625,-0.0002822175,2,1
-0.0001969711,-0.0002094502,2,1
-0.0001556445,-0.0001178833,2,1
-0.0001583996,-2.113026e-05,2,1
-0.0001924333,5.601284e-05,2,1
-0.0002447804,9.782569e-05,2,1
-0.0003073376,0.0001088461,2,1
-0.0003752429,0.0001015532,2,1
-0.0004481723,8.518459e-05,2,1
-0.0005240189,6.330578e-05,2,1
-0.0005869002,3.60788e-05,2,1
-0.0006094273,8.365628e-06,2,1
-0.0005666421,-1.189254e-05,2,1
-0.0004397449,-1.772689e-05,2,1
-0.0002384598,-1.075808e-05,2,1
4.244267e-07,3.827799e-06,2,1
0.0002190506,1.873781e-05,2,1
0.0003600474,2.278944e-05,2,1
0.0003978086,2.207145e-06,2,1
0.0003496752,-5.937768e-05,2,1
0.0002650771,-0.0001645581,2,1
0.0001955511,-0.0002976137,2,1
0.0001717275,-0.0004360174,2,1
0.0001997648,-0.0005562698,2,1
0.0002662116,-0.0006424887,2,1
0.0003433547,-0.000690622,2,1
0.0004122325,-0.0007063423,2,1
0.0004616624,-0.0006975908,2,1
0.0004911583,-0.0006753879,2,1
0.0005057442,-0.000646054,2,1
0.000507689,-0.0006089411,2,1
0.0005023408,-0.0005585388,2,1
0.0005034753,-0.0004925782,2,1
0.0005290816,-0.0004147869,2,1
0.0005909906,-0.0003327818,2,1
0.0006866092,-0.0002545043,2,1
0.0007977861,-0.0001870851,2,1
0.0009049114,-0.0001383035,2,1
0.0009865924,-0.0001057284,2,1
0.001027919,-7.444975e-05,2,1
0.001028405,-2.599222e-05,2,1
0.001005068,4.466826e-05,2,1
0.0009783271,0.0001315353,2,1
0.0009676307,0.0002166196,2,1
0.0009783271,0.0002861456,2,1
0.0009989094,0.0003336308,2,1
0.001015764,0.0003626405,2,1
0.001016412,0.0003790091,2,1
0.0009893475,0.0003939191,2,1
0.0009355418,0.0004169324,2,1
0.0008723363,0.0004584211,2,1
0.0008254994,0.0005188715,2,1
0.0007940586,0.0005903424,2,1
0.0007533802,0.0006530617,2,1
0.0006760749,0.0006874196,2,1
0.0005477191,0.0006820714,2,1
0.0003723644,0.0006470652,2,1
0.0001692965,0.0006000663,2,1
-3.377136e-05,0.0005561466,2,1
-0.0002123673,0.0005195198,2,1
-0.0003509331,0.0004887274,2,1
-0.000447362,0.0004613383,2,1
-0.0005045711,0.0004347596,2,1
-0.0005322842,0.0004039671,2,1
-0.0005475183,0.000373985,2,1
-0.0005682627,0.0003496752,2,1
-0.0006039171,0.0003336308,2,1
-0.000650916,0.0003240689,2,1
-0.000693053,0.0003156415,2,1
-0.0007108802,0.0003036487,2,1
-0.0006972667,0.0002861456,2,1
-0.0006659881,0.0002637806,2,1
-0.0006342233,0.0002357433,2,1
-0.0006142893,0.0002021958,2,1
-0.0006076446,0.0001594105,2,1
-0.0006042412,0.0001064152,2,1
-0.0005964621,4.35338e-05,2,1
-0.0005773384,-2.46957e-05,2,1
-0.0005470322,-9.211487e-05,2,1
-0.0005196431,-0.0001525652,2,1
-0.000509433,-0.000201509,2,1
-0.0005186707,-0.0002410529,2,1
-0.0005347152,-0.0002697385,2,1
-0.0005381186,-0.0002875656,2,1
-0.0005123502,-0.0002992343,2,1
-0.0004502792,-0.0003084721,2,1
-0.000358064,-0.0003104168,2,1
-0.0002598524,-0.0003000446,2,1
-0.000186761,-0.0002754107,2,1
-0.00015451,-0.0002408908,2,1
-0.000159534,-0.0002079916,2,1
-0.0001893541,-0.0001869231,2,1
-0.000231329,-0.000181737,2,1
-0.0002734659,-0.0001925954,2,1
-0.0003057169,-0.0002135018,2,1
-0.0003230579,-0.0002352185,2,1
-0.0003264613,-0.0002480217,2,1
-0.0003185201,-0.0002468872,2,1
-0.0003055549,-0.0002287359,2,1
-0.0002877277,-0.0001961608,2,1
-0.0002575835,-0.0001566169,2,1
-0.0002070192,-0.0001185315,2,1
-0.0001374932,-8.44978e-05,2,1
-6.148453e-05,-5.727083e-05,2,1
7.879432e-06,-3.522994e-05,2,1
5.876794e-05,-1.691656e-05,2,1
8.777764e-05,5.86492e-07,2,1
0.0001012291,1.841368e-05,2,1
0.000106091,3.348575e-05,2,1
0.0001091703,4.434413e-05,2,1
0.0001072255,4.888196e-05,2,1
9.231547e-05,4.807163e-05,2,1
6.03886e-05,4.483033e-05,2,1
1.112074e-05,4.191315e-05,2,1
-4.868137e-05,3.656499e-05,2,1
-0.0001037836,2.716521e-05,2,1
-0.0001316588,1.679302e-05,2,1
-0.0001224211,1.355172e-05,2,1
-7.590833e-05,2.165498e-05,2,1
7.485573e-07,3.899597e-05,2,1
9.182927e-05,5.860588e-05,2,1
0.0001751309,7.059871e-05,2,1
0.0002315296,7.076078e-05,2,1
0.0002514636,5.893001e-05,2,1
0.0002347709,3.624086e-05,2,1
0.0001880961,1.883015e-06,2,1
0.0001205148,-4.090223e-05,2,1
4.871989e-05,-8.595638e-05,2,1
-5.89612e-06,-0.0001235555,2,1
-2.728874e-05,-0.0001489998,2,1
-1.3027e-05,-0.000159372,2,1
2.181705e-05,-0.0001528894,2,1
5.844381e-05,-0.0001344139,2,1
8.291568e-05,-0.0001107524,2,1
9.344993e-05,-9.049421e-05,2,1
0.000101067,-7.963584e-05,2,1
0.000118408,-7.769106e-05,2,1
0.0001522796,-7.509801e-05,2,1
0.0002005751,-6.407757e-05,2,1
0.0002519498,-3.377136e-05,2,1
0.000294573,1.97102e-05,2,1
0.0003180725,8.891209e-05,2,1
0.0003211517,0.0001586002,2,1
0.00030689,0.0002141886,2,1
0.0002910076,0.000250005,2,1
0.0002926282,0.0002662116,2,1
0.0003180725,0.0002689667,2,1
0.0003506476,0.0002662116,2,1
0.0003608578,0.0002628082,2,1
0.000326824,0.0002571359,2,1
0.0002456293,0.0002467637,2,1
0.0001302388,0.0002354192,2,1
3.827799e-06,0.0002263435,2,1
-0.0001094559,0.0002206712,2,1
-0.0001969711,0.0002167816,2,1
-0.0002549905,0.0002114335,2,1
-0.0002817312,0.0002038164,2,1
-0.0002791382,0.000192796,2,1
-0.0002545043,0.0001770756,2,1
-0.0002263049,0.0001594105,2,1
-0.0002133397,0.0001402868,2,1
-0.0002233878,0.0001226217,2,1
-0.0002502906,0.0001062531,2,1
-0.0002805968,8.826383e-05,2,1
-0.0002985861,6.541262e-05,2,1
-0.0002882139,3.656499e-05,2,1
-0.0002382978,4.962256e-06,2,1
-0.0001408965,-2.372331e-05,2,1
-5.479652e-07,-3.992984e-05,2,1
0.0001611932,-4.284701e-05,2,1
0.0003138588,-3.944364e-05,2,1
0.0004294114,-3.944364e-05,2,1
0.0004922928,-4.868137e-05,2,1
0.0004974789,-6.650855e-05,2,1
0.0004545315,-8.757704e-05,2,1
0.0003882468,-0.0001065387,2,1
0.0003346032,-0.0001217728,2,1
0.000316938,-0.000134738,2,1
0.0003363859,-0.0001442999,2,1
0.0003675024,-0.0001488377,2,1
0.000373985,-0.0001506204,2,1
0.0003230965,-0.0001543479,2,1
0.0001973338,-0.0001596961,2,1
6.582909e-06,-0.0001660166,2,1
-0.0002018331,-0.0001702304,2,1
-0.0003601709,-0.0001689338,2,1
-0.0004110594,-0.0001618029,2,1
-0.0003342404,-0.0001507825,2,1
-0.0001598582,-0.0001399241,2,1
5.309566e-05,-0.0001302002,2,1
0.0002551911,-0.0001201522,2,1
0.0004123946,-0.0001067007,2,1
0.0005025029,-9.065628e-05,2,1
0.0005195198,-7.639453e-05,2,1
0.000458097,-6.407757e-05,2,1
0.0003235827,-5.354332e-05,2,1
0.0001318594,-4.414354e-05,2,1
-8.482193e-05,-3.847125e-05,2,1
-0.0002887001,-3.766092e-05,2,1
-0.0004412035,-4.025397e-05,2,1
-0.0005206155,-4.365734e-05,2,1
-0.0005167259,-4.965376e-05,2,1
-0.0004395829,-5.743289e-05,2,1
-0.0003185201,-6.521203e-05,2,1
-0.0001948643,-7.056019e-05,2,1
-0.0001018388,-6.861539e-05,2,1
-4.90055e-05,-5.759496e-05,2,1
-2.971972e-05,-3.847125e-05,2,1
-3.069211e-05,-1.221667e-05,2,1
-4.187462e-05,1.841368e-05,2,1
-6.035007e-05,4.839576e-05,2,1
-8.417367e-05,7.108491e-05,2,1
-0.0001052422,8.259155e-05,2,1
-0.0001146419,8.567078e-05,2,1
-0.0001075111,8.486046e-05,2,1
-8.563225e-05,8.729144e-05,2,1
-5.775702e-05,9.507057e-05,2,1
-2.518189e-05,0.000106091,2,1
2.603075e-05,0.0001179218,2,1
0.0001078737,0.0001269974,2,1
0.000222616,0.0001281319,2,1
0.000351458,0.0001200286,2,1
0.0004577728,0.0001043083,2,1
0.0005096338,8.388807e-05,2,1
0.0005000719,6.427817e-05,2,1
0.0004480489,5.115087e-05,2,1
0.0003927847,5.098881e-05,2,1
0.0003670162,6.46023e-05,2,1
0.000371392,8.712937e-05,2,1
0.0003859779,0.0001088461,2,1
0.0003828986,0.0001257009,2,1
0.000339303,0.0001362352,2,1
0.00024255,0.0001462832,2,1
0.0001007429,0.000155521,2,1
-6.926366e-05,0.0001620036,2,1
-0.0002400805,0.0001584381,2,1
-0.0003843186,0.0001453108,2,1
-0.0004802613,0.0001247285,2,1
-0.0005175362,9.814982e-05,2,1
-0.0005052193,6.719535e-05,2,1
-0.0004593548,3.429608e-05,2,1
-0.0003997148,4.151929e-06,2,1
-0.000348016,-1.934754e-05,2,1
-0.0003279199,-3.63644e-05,2,1
-0.0003489884,-4.835724e-05,2,1
-0.000407656,-5.808115e-05,2,1
-0.0004860956,-6.991193e-05,2,1
-0.0005659938,-8.498399e-05,2,1
-0.0006338991,-0.0001021629,2,1
-0.0006778188,-0.0001162626,2,1
-0.0006844635,-0.0001280934,2,1
-0.000646054,-0.000134738,2,1
-0.0005640491,-0.0001349001,2,1
-0.000452224,-0.0001280934,2,1
-0.0003287302,-0.0001164247,2,1
-0.0002186879,-0.0001050801,2,1
-0.0001430034,-9.778715e-05,2,1
-0.0001060525,-9.778715e-05,2,1
-9.924574e-05,-0.0001084835,2,1
-9.697683e-05,-0.0001295519,2,1
-8.190475e-05,-0.0001535376,2,1
-5.289507e-05,-0.0001723372,2,1
-1.010982e-05,-0.0001833576,2,1
5.293359e-05,-0.0001861127,2,1
0.0001430419,-0.000181737,2,1
0.0002545429,-0.0001757406,2,1
0.0003705817,-0.0001705545,2,1
0.0004660382,-0.0001673132,2,1
0.0005234093,-0.0001684476,2,1
0.0005354022,-0.0001754164,2,1
0.0005086614,-0.000186761,2,1
0.0004592314,-0.0001961608,2,1
0.0004000776,-0.0001935677,2,1
0.0003357376,-0.0001731475,2,1
0.0002720459,-0.0001368449,2,1
0.000225047,-9.649064e-05,2,1
0.0002094887,-6.375344e-05,2,1
0.0002247229,-4.171256e-05,2,1
0.0002506533,-2.680255e-05,2,1
0.0002624841,-1.25408e-05,2,1
0.0002509774,5.610517e-06,2,1
0.0002334744,2.992031e-05,2,1
0.0002328261,5.714729e-05,2,1
0.0002568118,8.323981e-05,2,1
0.0002950592,0.0001041462,2,1
0.0003334687,0.0001201907,2,1
0.0003611819,0.000130725,2,1
0.0003751195,0.0001318594,2,1
0.0003757678,0.0001252147,2,1
0.0003621543,0.0001177597,2,1
0.0003260137,0.0001174356,2,1
0.000264753,0.0001265113,2,1
0.0001793446,0.0001453108,2,1
7.546067e-05,0.0001686482,2,1
-4.074016e-05,0.0001908512,2,1
-0.0001538618,0.0002055991,2,1
-0.000243808,0.0002146748,2,1
-0.0002942103,0.0002260194,2,1
-0.0002982619,0.0002487085,2,1
-0.0002639041,0.0002867939,2,1
-0.0002177155,0.0003358997,2,1
-0.0001810887,0.0003825745,2,1
-0.0001687718,0.0004146635,2,1
-0.0001820611,0.0004271425,2,1
-0.0002130156,0.0004198496,2,1
-0.0002523975,0.0003934329,2,1
-0.0002966413,0.0003553475,2,1
-0.0003446126,0.0003200173,2,1
-0.0003890185,0.0002898731,2,1
-0.0004222419,0.0002594049,2,1
-0.0004418518,0.0002218057,2,1
-0.000452386,0.0001786963,2,1
-0.0004577342,0.0001367214,2,1
-0.0004587066,0.000101067,2,1
-0.0004502792,7.610894e-05,2,1
-0.0004259694,6.168512e-05,2,1
-0.0003771877,5.001642e-05,2,1
-0.000303286,3.364782e-05,2,1
-0.0002126914,6.582909e-06,2,1
-0.0001248521,-2.907146e-05,2,1
-6.164659e-05,-6.893953e-05,2,1
-3.733679e-05,-0.0001092938,2,1
-5.338126e-05,-0.0001459206,2,1
-9.859748e-05,-0.0001741199,2,1
-0.0001417068,-0.0001895161,2,1
-0.0001433275,-0.0001849783,2,1
-7.574627e-05,-0.0001596961,2,1
6.298164e-05,-0.0001219349,2,1
0.0002477361,-8.012204e-05,2,1
0.0004371906,-4.770897e-05,2,1
0.000602011,-3.21507e-05,2,1
0.000738146,-3.085418e-05,2,1
0.0008695811,-3.814712e-05,2,1
0.001030188,-5.062615e-05,2,1
0.001234877,-5.953974e-05,2,1
0.001459014,-5.953974e-05,2,1
0.001642796,-4.916756e-05,2,1
0.001718805,-3.571614e-05,2,1
0.001649927,-2.826114e-05,2,1
0.001441511,-3.522994e-05,2,1
0.001135369,-5.872941e-05,2,1
0.0007880622,-9.486997e-05,2,1
0.000453235,-0.000134576,2,1
0.0001667035,-0.00016942,2,1
-6.245691e-05,-0.0001890299,2,1
-0.0002428356,-0.0001794681,2,1
-0.0003924218,-0.0001350622,2,1
-0.0005220741,-6.261898e-05,2,1
-0.0006282268,1.760335e-05,2,1
-0.0007063423,8.097089e-05,2,1
-0.0007554481,0.0001125736,2,1
-0.0007758683,0.0001101427,2,1
-0.0007721409,7.821578e-05,2,1
-0.0007518827,2.748934e-05,2,1
-0.0007222248,-3.101625e-05,2,1
-0.0006894876,-8.838737e-05,2,1
-0.0006614503,-0.0001462447,2,1
-0.0006382749,-0.0002019951,2,1
-0.0006183409,-0.0002509389,2,1
-0.0005998655,-0.0002901587,2,1
-0.0005817142,-0.000318358,2,1
-0.0005601594,-0.0003373197,2,1
-0.0005330946,-0.0003450988,2,1
-0.000501978,-0.0003387782,2,1
-0.0004692408,-0.0003165753,2,1
-0.0004345588,-0.0002820554,2,1
-0.000405063,-0.0002415391,2,1
-0.0003872358,-0.0002044261,2,1
-0.0003768636,-0.0001763888,2,1
-0.0003685983,-0.0001562927,2,1
-0.00035304,-0.000134738,2,1
-0.000318196,-0.0001032974,2,1
-0.0002595283,-5.970181e-05,2,1
-0.0001796301,-8.813297e-06,2,1
-7.833932e-05,4.158902e-05,2,1
3.769945e-05,8.405014e-05,2,1
0.0001540623,0.0001185701,2,1
0.0002478982,0.000145797,2,1
0.0003002453,0.000170431,2,1
0.000302028,0.0001955511,2,1
0.0002605393,0.0002239125,2,1
0.0001965235,0.0002551911,2,1
0.000133318,0.0002842008,2,1
8.826383e-05,0.0003067279,2,1
6.83298e-05,0.000321638,2,1
5.763349e-05,0.0003264999,2,1
2.748934e-05,0.0003232586,2,1
-4.47918e-05,0.0003145071,2,1
-0.0001580754,0.0002999212,2,1
-0.0002844864,0.0002832284,2,1
-0.0003914495,0.0002679943,2,1
-0.0004517378,0.0002527602,2,1
-0.0004531963,0.0002286124,2,1
-0.0003925839,0.0001940925,2,1
-0.000276221,0.0001600588,2,1
-0.000127283,0.0001433661,2,1
2.522042e-05,0.000148228,2,1
0.0001493625,0.0001697827,2,1
0.0002229401,0.0001939304,2,1
0.0002414156,0.0002122438,2,1
0.0002159713,0.0002221298,2,1
0.0001692965,0.0002260194,2,1
0.0001187321,0.0002242366,2,1
7.157111e-05,0.0002164575,2,1
2.052053e-05,0.0002007372,2,1
-4.317115e-05,0.0001697827,2,1
-0.0001092938,0.0001182459,2,1
-0.00015451,4.742337e-05,2,1
-0.0001605064,-3.490581e-05,2,1
-0.0001208004,-0.0001182074,2,1
-3.830919e-05,-0.0001950263,2,1
7.562274e-05,-0.0002590421,2,1
0.0002057612,-0.0003084721,2,1
0.0003279585,-0.0003493125,2,1
0.0004076947,-0.000387884,2,1
0.0004263322,-0.0004251591,2,1
0.0003859779,-0.0004559515,2,1
0.0003041349,-0.0004689167,2,1
0.0002094887,-0.0004608134,2,1
0.0001423936,-0.0004327761,2,1
0.0001286181,-0.0003919357,2,1
0.0001652449,-0.000348016,2,1
0.0002248849,-0.0003149546,2,1
0.0002744769,-0.000303448,2,1
0.0002948972,-0.0003102548,2,1
0.0002832284,-0.0003245165,2,1
0.0002483844,-0.0003314853,2,1
0.0002033302,-0.0003196545,2,1
0.0001637863,-0.000286107,2,1
0.0001441764,-0.0002428356,2,1
0.0001480659,-0.0002002124,2,1
0.0001665414,-0.0001621271,2,1
0.0001840444,-0.0001233935,2,1
0.0001910133,-8.141856e-05,2,1
0.0001914995,-3.847125e-05,2,1
0.000192958,-3.858999e-07,2,1
0.0001919856,3.154097e-05,2,1
0.0001761032,5.860588e-05,2,1
0.0001320215,7.967438e-05,2,1
6.816773e-05,9.68533e-05,2,1
1.614476e-05,0.0001138702,2,1
1.22552e-05,0.0001347766,2,1
6.816773e-05,0.0001608691,2,1
0.0001636242,0.0001918236,2,1
0.0002582704,0.0002289366,2,1
0.0003158036,0.0002717218,2,1
0.0003195311,0.0003120761,2,1
0.0002788527,0.0003412479,2,1
0.0002196988,0.0003563199,2,1
0.0001806411,0.0003592371,2,1
0.0001983062,0.000356482,2,1
0.0002889007,0.0003551855,2,1
0.0004412422,0.0003532407,2,1
0.0006234037,0.0003529166,2,1
0.0007919518,0.0003543751,2,1
0.0009081527,0.0003511338,2,1
0.0009455899,0.00033671,2,1
0.0008998874,0.0003077003,2,1
0.0007940586,0.0002684805,2,1
0.0006600305,0.000232502,2,1
0.0005245438,0.0002141886,2,1
0.000403643,0.0002174299,2,1
0.0002910076,0.0002363916,2,1
0.0001707551,0.0002587566,2,1
3.18651e-05,0.0002760976,2,1
-0.000127283,0.0002840388,2,1
-0.0002971275,0.0002817699,2,1
-0.0004570859,0.0002670219,2,1
-0.0005841451,0.0002326641,2,1
-0.000668257,0.0001796687,2,1
-0.000715418,0.0001150046,2,1
-0.0007329211,5.19612e-05,2,1
-0.000725304,3.989864e-06,2,1
-0.0006899738,-1.886135e-05,2,1
-0.0006287131,-2.145439e-05,2,1
-0.0005505976,-1.318906e-05,2,1
-0.0004731304,-5.247859e-06,2,1
-0.0004222419,-3.465141e-06,2,1
-0.0004209454,-7.192643e-06,2,1
-0.0004705373,-1.124428e-05,2,1
-0.0005426564,-7.192643e-06,2,1
-0.0006005137,9.175954e-06,2,1
-0.0006202856,3.251336e-05,2,1
-0.000598893,5.649903e-05,2,1
-0.00055157,7.497447e-05,2,1
-0.0004990608,8.275361e-05,2,1
-0.0004614617,7.643307e-05,2,1
-0.0004446069,5.682316e-05,2,1
-0.0004382863,2.716521e-05,2,1
-0.0004222419,-6.220252e-06,2,1
-0.0003841565,-3.555408e-05,2,1
-0.0003185201,-6.051213e-05,2,1
-0.0002293842,-8.563225e-05,2,1
-0.0001240417,-0.0001156143,2,1
-9.785688e-06,-0.0001488377,2,1
0.0001038221,-0.0001802784,2,1
0.0001981441,-0.0002050744,2,1
0.0002491947,-0.0002180396,2,1
0.0002391467,-0.0002225774,2,1
0.0001820997,-0.0002258187,2,1
0.0001222976,-0.0002311669,2,1
0.0001038221,-0.0002360289,2,1
0.0001477418,-0.0002360289,2,1
0.0002440086,-0.0002276015,2,1
0.000354051,-0.0002084778,2,1
0.0004250357,-0.0001838438,2,1
0.0004201737,-0.0001587237,2,1
0.0003414099,-0.0001360346,2,1
0.0002248849,-0.0001199901,2,1
0.0001195424,-0.0001084835,2,1
6.022653e-05,-9.859748e-05,2,1
4.904402e-05,-8.660465e-05,2,1
6.265751e-05,-7.363943e-05,2,1
7.270556e-05,-5.662256e-05,2,1
6.395404e-05,-3.247483e-05,2,1
4.158902e-05,-6.382317e-06,2,1
2.959619e-05,1.679302e-05,2,1
4.580272e-05,2.992031e-05,2,1
9.296373e-05,2.829966e-05,2,1
0.0001623277,1.582063e-05,2,1
0.0002359054,-4.275467e-06,2,1
0.0002889007,-2.955766e-05,2,1
0.0003046211,-5.710876e-05,2,1
0.000282094,-8.692878e-05,2,1
0.0002331503,-0.0001212866,2,1
0.0001712413,-0.0001630995,2,1
0.0001031738,-0.0002055606,2,1
3.105477e-05,-0.0002374874,2,1
-3.944364e-05,-0.0002472114,2,1
-9.584238e-05,-0.0002324634,2,1
-0.0001318209,-0.0001995642,2,1
-0.0001541859,-0.0001549962,2,1
-0.0001791439,-0.0001045939,2,1
-0.0002177155,-5.435365e-05,2,1
-0.0002708729,-5.89612e-06,2,1
-0.0003272716,3.834771e-05,2,1
-0.0003694086,7.870197e-05,2,1
-0.0003854531,0.0001148425,2,1
-0.0003684362,0.0001467694,2,1
-0.0003130099,0.0001720516,2,1
-0.0002209568,0.000192796,2,1
-0.000112211,0.0002119197,2,1
-2.09682e-05,0.00022764,2,1
2.538249e-05,0.0002336365,2,1
1.630683e-05,0.0002282883,2,1
-3.279896e-05,0.0002171058,2,1
-9.535618e-05,0.0002049509,2,1
-0.0001480274,0.0001966855,2,1
-0.0001875713,0.0001945787,2,1
-0.0002198223,0.0001949028,2,1
-0.000251101,0.0001974959,2,1
-0.0002828657,0.0001971717,2,1
-0.0003156029,0.0001905271,2,1
-0.0003476919,0.0001798307,2,1
-0.0003736223,0.0001673517,2,1
-0.0003937184,0.0001509831,2,1
-0.0004165696,0.0001320215,2,1
-0.0004463896,0.0001137081,2,1
-0.0004762096,0.0001022015,2,1
-0.0004943609,9.831188e-05,2,1
-0.0004917679,0.0001013911,2,1
-0.0004716718,0.0001081979,2,1
-0.0004389346,0.0001164632,2,1
-0.0003969597,0.0001222976,2,1
-0.0003468815,0.0001253768,2,1
-0.0002922655,0.0001313732,2,1
-0.0002340841,0.0001433661,2,1
-0.0001762268,0.0001597346,2,1
-0.0001186936,0.0001749688,2,1
-6.407757e-05,0.0001796687,2,1
-1.25408e-05,0.0001668655,2,1
3.154097e-05,0.0001328318,2,1
6.476436e-05,8.307774e-05,2,1
8.567078e-05,2.684107e-05,2,1
9.993253e-05,-2.664048e-05,2,1
0.0001156529,-7.736692e-05,2,1
0.0001464453,-0.0001279313,2,1
0.0002049509,-0.0001827094,2,1
0.0003017039,-0.0002486699,2,1
0.0004378388,-0.0003253268,2,1
0.0006059006,-0.0004053871,2,1
0.0007867657,-0.0004791268,2,1
0.000953207,-0.0005413599,2,1
0.001076053,-0.0005901415,2,1
0.001132775,-0.00062612,2,1
0.001117379,-0.000650754,2,1
0.001047529,-0.0006637191,2,1
0.0009506139,-0.0006629088,2,1
0.0008465679,-0.0006473506,2,1
0.0007365254,-0.0006217443,2,1
0.0006128695,-0.0005893312,2,1
0.0004723587,-0.0005523803,2,1
0.0003211517,-0.0005157535,2,1
0.0001812893,-0.0004838267,2,1
7.708133e-05,-0.0004530343,2,1
2.100672e-05,-0.000415111,2,1
9.824215e-06,-0.000358064,2,1
4.126489e-05,-0.0002739521,2,1
0.0001128978,-0.0001634236,2,1
0.0002261814,-4.090223e-05,2,1
0.0003710679,7.837785e-05,2,1
0.0005178991,0.0001803169,2,1
0.0006384758,0.0002563256,2,1
0.000723236,0.0003008936,2,1
0.0007741245,0.0003145071,2,1
0.0007846588,0.0003033245,2,1
0.0007391184,0.0002773941,2,1
0.000621621,0.000249843,2,1
0.0004303838,0.0002316917,2,1
0.0001906891,0.0002253711,2,1
-5.986387e-05,0.0002354192,2,1
-0.0002840002,0.0002636185,2,1
-0.0004612996,0.0003125623,2,1
-0.0005867381,0.000378847,2,1
-0.0006651777,0.0004615004,2,1
-0.0007068285,0.0005584154,2,1
-0.0007290315,0.000661165,2,1
-0.0007549619,0.0007524078,2,1
-0.0008003402,0.0008185305,2,1
-0.0008617629,0.000844461,2,1
-0.0009205926,0.0008240407,2,1
-0.0009517092,0.0007605111,2,1
-0.0009376095,0.0006692683,2,1
-0.0008765109,0.0005679773,2,1
-0.0007794338,0.0004713863,2,1
-0.0006562641,0.0003833848,2,1
-0.0005181845,0.0003025142,2,1
-0.0003742705,0.0002292607,2,1
-0.0002365151,0.0001644345,2,1
-0.0001152902,0.0001056048,2,1
-1.707863e-05,5.001642e-05,2,1
6.719535e-05,1.234753e-06,2,1
0.0001551968,-3.749886e-05,2,1
0.0002676702,-6.342931e-05,2,1
0.0004195254,-7.55842e-05,2,1
0.0006177314,-8.125649e-05,2,1
0.0008464058,-8.530812e-05,2,1
0.001072811,-9.098041e-05,2,1
0.00126259,-9.908367e-05,2,1
0.001390136,-0.000104918,2,1
0.001442159,-0.0001092938,2,1
0.00142109,-0.0001156143,2,1
0.001344919,-0.0001248521,2,1
