EMG1,EMG2,class,user
-0.0001770371,-0.0002053985,2,1
-0.000104918,-0.0002032917,2,1
1.987227e-05,-0.0001870851,2,1
0.0001545486,-0.0001590478,2,1
0.0002595669,-0.0001266348,2,1
0.0003148312,-9.794922e-05,2,1
0.000321638,-7.720486e-05,2,1
0.0002890628,-6.06742e-05,2,1
0.0002196988,-4.414354e-05,2,1
0.0001161391,-2.745081e-05,2,1
-1.335113e-05,-9.623623e-06,2,1
-0.0001587237,6.582909e-06,2,1
-0.000303448,2.165498e-05,2,1
-0.0004280762,3.883391e-05,2,1
-0.0005082985,5.876794e-05,2,1
-0.0005352014,7.951231e-05,2,1
-0.0005126743,9.717743e-05,2,1
-0.0004554653,0.0001093323,2,1
-0.0003851289,0.0001161391,2,1
-0.0003164132,0.0001187321,2,1
-0.0002533699,0.0001174356,2,1
-0.0001968091,0.000113384,2,1
-0.0001439758,0.0001083599,2,1
-8.595638e-05,0.0001044704,2,1
-1.351319e-05,0.0001038221,2,1
8.275361e-05,0.0001090082,2,1
0.000210299,0.0001226217,2,1
0.0003569682,0.0001448246,2,1
0.0004756001,0.0001712413,2,1
0.0005114165,0.0001914995,2,1
0.0004404318,0.0001987924,2,1
0.0002783665,0.0001918236,2,1
7.124698e-05,0.0001756171,2,1
-0.0001290658,0.0001558451,2,1
-0.0002848105,0.0001375317,2,1
-0.0003859393,0.0001237561,2,1
-0.0004405553,0.0001198666,2,1
-0.0004593548,0.0001245665,2,1
-0.0004501171,0.0001329939,2,1
-0.0004235384,0.0001393144,2,1
-0.0003933943,0.0001438522,2,1
-0.0003695707,0.0001560072,2,1
-0.0003614674,0.000180479,2,1
-0.0003724878,0.0002137024,2,1
-0.0003950149,0.0002478982,2,1
-0.0004152731,0.0002688046,2,1
-0.0004204592,0.0002717218,2,1
-0.0004078181,0.0002594049,2,1
-0.0003875599,0.0002388225,2,1
-0.0003689224,0.0002117576,2,1
-0.0003559572,0.0001791825,2,1
-0.0003515814,0.000145797,2,1
-0.0003567675,0.0001187321,2,1
-0.0003650328,0.000101067,2,1
-0.0003744326,9.004655e-05,2,1
-0.0003812394,7.935024e-05,2,1
-0.0003781601,6.379197e-05,2,1
-0.000355471,4.013043e-05,2,1
-0.0003081479,1.144487e-05,2,1
-0.0002420253,-1.983374e-05,2,1
-0.0001728234,-5.013995e-05,2,1
-0.0001170729,-7.882551e-05,2,1
-8.287715e-05,-0.0001042698,2,1
-6.456377e-05,-0.0001277692,2,1
-4.884343e-05,-0.0001431655,2,1
-2.501983e-05,-0.0001384655,2,1
2.39239e-05,-0.0001068628,2,1
0.000110953,-4.949169e-05,2,1
0.0002381743,2.084466e-05,2,1
0.0003922984,8.113296e-05,2,1
0.0005516087,0.0001124116,2,1
0.0006932539,0.0001022015,2,1
0.0007992447,4.790957e-05,2,1
0.0008553194,-4.090223e-05,2,1
0.0008506195,-0.0001524032,2,1
0.0007883863,-0.0002737901,2,1
0.0006890402,-0.000395339,2,1
0.0005825632,-0.0005024642,2,1
0.0004914824,-0.000576528,2,1
0.0004321665,-0.0006047274,2,1
0.0004115842,-0.0005883588,2,1
0.000418391,-0.0005384427,2,1
0.0004355699,-0.0004677822,2,1
0.0004451317,-0.0003859393,2,1
0.0004339493,-0.0002987481,2,1
0.0003952156,-0.0002112329,2,1
0.0003290929,-0.0001292278,2,1
0.0002436845,-5.32192e-05,2,1
0.0001535762,1.59827e-05,2,1
7.011252e-05,7.999851e-05,2,1
1.234753e-06,0.000135749,2,1
-5.451572e-05,0.0001790204,2,1
-0.0001018388,0.0002057612,2,1
-0.0001451102,0.0002128921,2,1
-0.0001947022,0.0001996027,2,1
-0.0002541802,0.0001710792,2,1
-0.0003147926,0.0001404489,2,1
-0.0003619536,0.0001158149,2,1
-0.0003781601,9.912221e-05,2,1
-0.0003624398,8.405014e-05,2,1
-0.0003162512,5.974033e-05,2,1
-0.0002421874,2.619281e-05,2,1
-0.0001460826,-5.89612e-06,2,1
-3.63644e-05,-2.874733e-05,2,1
7.789165e-05,-4.171256e-05,2,1
0.0001887444,-5.208474e-05,2,1
0.0002858215,-6.44017e-05,2,1
0.0003644232,-8.190475e-05,2,1
0.0004127187,-9.843541e-05,2,1
0.0004248736,-0.0001062146,2,1
0.0004055878,-0.0001021629,2,1
0.0003705817,-8.547019e-05,2,1
0.0003349273,-5.581224e-05,2,1
0.0003101313,-1.189254e-05,2,1
0.0003209897,4.35338e-05,2,1
0.0003916502,0.0001073875,2,1
0.0005222749,0.0001718896,2,1
0.0006806127,0.0002258573,2,1
0.0008165857,0.000259729,2,1
0.0008802774,0.0002717218,2,1
0.0008541849,0.0002684805,2,1
0.0007535422,0.000257298,2,1
0.0006169211,0.0002482223,2,1
0.0004861343,0.0002501671,2,1
0.0004083429,0.0002636185,2,1
0.0004153117,0.000279663,2,1
0.0005073649,0.0002910076,2,1
0.0006434998,0.0002955454,2,1
0.0007614834,0.00029198,2,1
0.0007984344,0.0002760976,2,1
0.0007243705,0.0002493568,2,1
0.0005550121,0.0002161334,2,1
0.0003438409,0.000187772,2,1
0.0001391524,0.0001691344,2,1
-3.425755e-05,0.0001540623,2,1
-0.0001716889,0.000128456,2,1
-0.0002703867,8.194328e-05,2,1
-0.0003237062,1.209313e-05,2,1
-0.0003308371,-7.380149e-05,2,1
-0.0003092824,-0.0001663408,2,1
-0.0002893484,-0.0002528836,2,1
-0.0002979378,-0.0003230579,2,1
-0.000350447,-0.0003737844,2,1
-0.0004436345,-0.0004086284,2,1
-0.0005637249,-0.0004345588,2,1
-0.0006862463,-0.0004585445,2,1
-0.0007885094,-0.0004836646,2,1
-0.0008598181,-0.0005048952,2,1
-0.0008966069,-0.0005188328,2,1
-0.0009017931,-0.0005220741,2,1
-0.0008799143,-0.0005126743,2,1
-0.0008317808,-0.0004890127,2,1
-0.000760148,-0.000452386,2,1
-0.0006718224,-0.0004019837,2,1
-0.0005831727,-0.0003400748,2,1
-0.0005099192,-0.0002726556,2,1
-0.0004583824,-0.0001989159,2,1
-0.0004290486,-0.0001237176,2,1
-0.0004207833,-5.289507e-05,2,1
-0.0004306693,6.744974e-06,2,1
-0.0004531963,5.066468e-05,2,1
-0.000482206,7.935024e-05,2,1
-0.0005105674,9.863601e-05,2,1
-0.0005261258,0.0001130598,2,1
-0.00052175,0.0001252147,2,1
-0.0004961436,0.0001391524,2,1
-0.0004470379,0.0001514693,2,1
-0.0003723258,0.000160707,2,1
-0.0002752487,0.0001663793,2,1
-0.0001699062,0.0001710792,2,1
-8.514606e-05,0.0001822617,2,1
-4.090223e-05,0.0002013854,2,1
-3.733679e-05,0.000227478,2,1
-6.261898e-05,0.0002545429,2,1
-0.0001032974,0.0002765838,2,1
-0.000144462,0.000289549,2,1
-0.0001799543,0.0002932765,2,1
-0.000208964,0.0002901973,2,1
-0.000231329,0.0002874421,2,1
-0.0002470493,0.0002890628,2,1
-0.0002624455,0.0002966799,2,1
-0.0002854588,0.0003089969,2,1
-0.000310741,0.0003247172,2,1
-0.0003267854,0.0003407616,2,1
-0.0003188442,0.000351458,2,1
-0.0002749245,0.0003550234,2,1
-0.0001900023,0.0003503235,2,1
-7.315322e-05,0.0003386548,2,1
5.860588e-05,0.0003214759,2,1
0.0001814514,0.000299435,2,1
0.0002788527,0.00027707,2,1
0.0003509718,0.0002556773,2,1
0.0004028327,0.0002352571,2,1
0.0004529109,0.0002187264,2,1
0.0005119027,0.0002080301,2,1
0.0005793219,0.0002039785,2,1
0.0006486859,0.0002033302,2,1
0.000710919,0.0002031682,2,1
0.0007598628,0.0002046267,2,1
0.0007985964,0.0002119197,2,1
0.0008233925,0.0002232643,2,1
0.0008245269,0.0002310434,2,1
0.0007951931,0.0002308813,2,1
0.0007376599,0.000220185,2,1
0.0006644063,0.0002013854,2,1
0.0005932595,0.0001770756,2,1
0.0005405883,0.0001495245,2,1
0.0005080132,0.0001218114,2,1
0.0004846757,9.928428e-05,2,1
0.0004521006,8.923623e-05,2,1
0.0003919743,0.0001020394,2,1
0.0002981384,0.0001368834,2,1
0.0001806411,0.0001799928,2,1
5.585077e-05,0.0002156472,2,1
-5.808115e-05,0.0002316917,2,1
-0.0001425172,0.0002196988,2,1
-0.0001771992,0.0001798307,2,1
-0.0001574272,0.0001154908,2,1
-0.0001076731,3.867184e-05,2,1
-6.634648e-05,-4.122636e-05,2,1
-7.315322e-05,-0.0001170729,2,1
-0.0001468929,-0.0001851404,2,1
-0.0002608248,-0.0002459149,2,1
-0.0003433161,-0.0003018274,2,1
-0.0003285682,-0.0003546606,2,1
-0.0001981056,-0.0004047388,2,1
8.689758e-06,-0.0004462276,2,1
0.000220023,-0.0004749131,2,1
0.0003767402,-0.0004899852,2,1
0.0004537212,-0.0004958195,2,1
0.0004564763,-0.000496954,2,1
0.0004044533,-0.0004938748,2,1
0.0003136967,-0.0004885266,2,1
0.0001976579,-0.0004823681,2,1
7.546067e-05,-0.0004779923,2,1
-3.360929e-05,-0.0004747511,2,1
-0.000117235,-0.0004681064,2,1
-0.0001726613,-0.0004536825,2,1
-0.0002026434,-0.0004292107,2,1
-0.0002081536,-0.0003979321,2,1
-0.0001924333,-0.0003637363,2,1
-0.0001532135,-0.000328244,2,1
-9.29252e-05,-0.0002883759,2,1
-2.583016e-05,-0.0002501286,2,1
2.408596e-05,-0.0002258187,2,1
3.299956e-05,-0.0002206326,2,1
-2.81688e-06,-0.0002276015,2,1
-7.137051e-05,-0.0002334358,2,1
-0.0001538618,-0.0002293842,2,1
-0.0002305186,-0.0002123673,2,1
-0.0002883759,-0.000181737,2,1
-0.0003251648,-0.0001399241,2,1
-0.0003499608,-9.357346e-05,2,1
-0.0003762153,-4.868137e-05,2,1
-0.000407656,-1.027188e-05,2,1
-0.0004403932,1.533444e-05,2,1
-0.0004653512,2.505836e-05,2,1
-0.0004739407,2.700314e-05,2,1
-0.0004583824,3.073064e-05,2,1
-0.0004190006,4.256141e-05,2,1
-0.0003608192,6.217132e-05,2,1
-0.0002927517,8.356394e-05,2,1
-0.0002235498,0.0001028497,2,1
-0.0001642339,0.0001172735,2,1
-0.0001157764,0.0001257009,2,1
-7.574627e-05,0.0001273216,2,1
-3.911951e-05,0.0001247285,2,1
-1.027188e-05,0.0001219734,2,1
2.531276e-06,0.0001229458,2,1
-5.57199e-06,0.0001287802,2,1
-3.085418e-05,0.0001402868,2,1
-6.132246e-05,0.0001561692,2,1
-8.887356e-05,0.0001728619,2,1
-0.0001104282,0.0001850168,2,1
-0.0001242038,0.0001892305,2,1
-0.0001261486,0.0001859892,2,1
-0.0001099421,0.0001811273,2,1
-7.769106e-05,0.000177886,2,1
-4.106429e-05,0.0001769136,2,1
-1.156841e-05,0.0001764274,2,1
3.179537e-06,0.0001752929,2,1
-6.382317e-06,0.0001772377,2,1
-4.560212e-05,0.0001814514,2,1
-0.000114804,0.0001866375,2,1
-0.000204102,0.0001908512,2,1
-0.0002946965,0.0001916615,2,1
-0.0003645466,0.0001863134,2,1
-0.0003929081,0.0001733481,2,1
-0.0003673017,0.0001553589,2,1
-0.0002929138,0.0001331559,2,1
-0.0001856265,0.0001125736,2,1
-6.553616e-05,9.620504e-05,2,1
5.19612e-05,8.356394e-05,2,1
0.0001551968,7.57848e-05,2,1
0.0002370398,7.286763e-05,2,1
0.0002903593,7.335383e-05,2,1
0.0003132105,7.384002e-05,2,1
0.0003149933,6.83298e-05,2,1
0.0003188828,5.212327e-05,2,1
0.0003422202,2.684107e-05,2,1
0.0003817642,4.244267e-07,2,1
0.0004192013,-2.0482e-05,2,1
0.0004303838,-3.522994e-05,2,1
0.0004008879,-4.625038e-05,2,1
0.0003311998,-5.953974e-05,2,1
0.0002415777,-7.688073e-05,2,1
0.0001574657,-9.211487e-05,2,1
0.0001090082,-9.989401e-05,2,1
0.0001201907,-0.0001002181,2,1
0.0001926339,-0.0001008664,2,1
0.0003086727,-0.0001084835,2,1
0.0004313562,-0.0001214487,2,1
0.0005219508,-0.0001326312,2,1
0.0005553362,-0.000137169,2,1
0.0005279472,-0.0001285796,2,1
0.0004619866,-0.0001060525,2,1
0.0003867882,-7.299116e-05,2,1
0.0003245551,-3.960571e-05,2,1
0.0002817699,-1.594417e-05,2,1
0.0002530843,-7.840905e-06,2,1
0.000225047,-1.043395e-05,2,1
0.0001856651,-1.805102e-05,2,1
0.0001346145,-2.680255e-05,2,1
8.372601e-05,-3.312309e-05,2,1
5.293359e-05,-3.441962e-05,2,1
5.811968e-05,-2.907146e-05,2,1
9.63671e-05,-1.432352e-05,2,1
0.0001461212,5.124321e-06,2,1
0.0001765894,2.181705e-05,2,1
0.0001770756,3.364782e-05,2,1
0.0001529279,4.385793e-05,2,1
0.0001158149,5.682316e-05,2,1
7.513654e-05,7.157111e-05,2,1
2.829966e-05,8.064677e-05,2,1
-2.599222e-05,8.178122e-05,2,1
-8.368748e-05,7.708133e-05,2,1
-0.0001352242,7.238143e-05,2,1
-0.0001789819,7.448828e-05,2,1
-0.000223874,8.534666e-05,2,1
-0.0002747625,9.928428e-05,2,1
-0.0003342404,0.0001096565,2,1
-0.0003935563,0.0001180839,2,1
-0.000444931,0.0001312112,2,1
-0.0004838267,0.000153252,2,1
-0.0005011677,0.0001819376,2,1
-0.0004882024,0.0002145127,2,1
-0.0004444448,0.0002466017,2,1
-0.0003791325,0.0002731804,2,1
-0.0003031239,0.0002936006,2,1
-0.0002224154,0.000309483,2,1
-0.0001449482,0.0003224483,2,1
-8.044617e-05,0.0003333067,2,1
-4.592625e-05,0.0003420582,2,1
-4.673658e-05,0.0003457857,2,1
-7.088431e-05,0.0003394651,2,1
-9.503204e-05,0.0003179104,2,1
-0.0001008664,0.0002816078,2,1
-8.709085e-05,0.0002368777,2,1
-5.22468e-05,0.0001882582,2,1
1.193106e-05,0.0001399627,2,1
0.0001166253,9.426025e-05,2,1
0.0002645909,5.763349e-05,2,1
0.0004412422,3.348575e-05,2,1
0.000624214,2.732727e-05,2,1
0.0007922759,3.737532e-05,2,1
0.0009316522,5.828175e-05,2,1
0.001029864,7.57848e-05,2,1
0.001075728,7.983644e-05,2,1
0.00105547,6.687121e-05,2,1
0.0009570965,3.834771e-05,2,1
0.0007846588,2.207145e-06,2,1
0.0005734875,-3.182657e-05,2,1
0.0003712299,-5.775702e-05,2,1
0.000210137,-7.65566e-05,2,1
9.879808e-05,-9.260107e-05,2,1
2.084466e-05,-0.000112373,2,1
-4.722278e-05,-0.0001389517,2,1
-0.0001261486,-0.0001700683,2,1
-0.0002229016,-0.0002024813,2,1
-0.0003334301,-0.0002350565,2,1
-0.0004510895,-0.0002699005,2,1
-0.0005672903,-0.0003076617,2,1
-0.0006702017,-0.0003467195,2,1
-0.0007481552,-0.0003822118,2,1
-0.0007932093,-0.0004178661,2,1
-0.0008089297,-0.0004630823,2,1
-0.0008037436,-0.0005233706,2,1
-0.0007810544,-0.0005941931,2,1
-0.0007355141,-0.0006624226,2,1
-0.0006617744,-0.000712987,2,1
-0.0005685869,-0.0007364865,2,1
-0.0004783165,-0.0007274108,2,1
-0.0004060354,-0.0006911082,2,1
-0.0003561192,-0.0006377887,2,1
-0.0003250027,-0.0005747453,2,1
-0.0003000446,-0.0005078124,2,1
-0.0002684419,-0.0004455793,2,1
-0.0002300324,-0.0003924218,2,1
-0.00019924,-0.0003447747,2,1
-0.0001900023,-0.0002950206,2,1
-0.0002084778,-0.0002353806,2,1
-0.0002454286,-0.0001637477,2,1
-0.0002817312,-8.206682e-05,2,1
-0.0002976137,4.244267e-07,2,1
-0.000276059,7.076078e-05,2,1
-0.0002143121,0.0001164632,2,1
-0.0001240417,0.0001339663,2,1
-2.080613e-05,0.0001315353,2,1
8.064677e-05,0.0001242423,2,1
0.0001667035,0.0001206769,2,1
0.0002248849,0.0001248906,2,1
0.0002509774,0.0001360731,2,1
0.0002517878,0.0001571416,2,1
0.0002376881,0.0001832341,2,1
0.0002195368,0.0002094887,2,1
0.0002111094,0.0002341226,2,1
0.0002190506,0.0002568118,2,1
0.0002428742,0.0002804733,2,1
0.0002710735,0.0003033245,2,1
0.0002901973,0.0003273102,2,1
0.0002885766,0.0003555096,2,1
0.0002592428,0.0003903536,2,1
0.0002057612,0.0004292493,2,1
0.0001410971,0.0004683071,2,1
8.74535e-05,0.0005016926,2,1
5.99024e-05,0.0005195198,2,1
6.006447e-05,0.0005106062,2,1
7.659513e-05,0.0004749518,2,1
9.68533e-05,0.0004230909,2,1
0.0001103047,0.0003744712,2,1
0.0001052807,0.0003399513,2,1
7.52986e-05,0.0003208276,2,1
2.230325e-05,0.0003159656,2,1
-4.43056e-05,0.0003211517,2,1
-0.0001063766,0.0003358997,2,1
-0.0001511067,0.0003551855,2,1
-0.0001755785,0.000373823,2,1
-0.0001877334,0.0003846814,2,1
-0.0001989159,0.000381278,2,1
-0.0002209568,0.0003626405,2,1
-0.0002548284,0.0003368721,2,1
-0.000298424,0.0003149933,2,1
-0.0003483401,0.0003030004,2,1
-0.00039777,0.000294573,2,1
-0.0004434724,0.0002832284,2,1
-0.0004911196,0.000264753,2,1
-0.0005449253,0.0002417397,2,1
-0.0005975965,0.0002184023,2,1
-0.0006373025,0.0001942546,2,1
-0.000648485,0.0001697827,2,1
-0.0006066722,0.0001430419,2,1
-0.0004911196,0.0001112771,2,1
-0.000301017,7.789165e-05,2,1
-5.678463e-05,4.207521e-05,2,1
0.0002060853,2.207145e-06,2,1
0.0004444835,-4.511593e-05,2,1
0.0006232416,-9.892161e-05,2,1
0.0007344186,-0.0001543479,2,1
0.0007924379,-0.0002024813,2,1
0.0008169098,-0.0002332737,2,1
0.0008175581,-0.0002405667,2,1
0.0007919518,-0.0002246843,2,1
0.0007326358,-0.0001955125,2,1
0.0006409068,-0.000166989,2,1
0.0005294057,-0.0001496481,2,1
0.0004169324,-0.000149486,2,1
0.0003171001,-0.0001635857,2,1
0.0002365536,-0.0001840059,2,1
0.0001819376,-0.0001989159,2,1
0.0001645966,-0.0002060468,2,1
0.000192796,-0.0002062088,2,1
0.0002645909,-0.0001997262,2,1
0.0003561579,-0.000189192,2,1
0.0004302217,-0.0001754164,2,1
0.0004618245,-0.0001580754,2,1
0.0004409181,-0.0001423551,2,1
0.0003759298,-0.0001336036,2,1
0.0002950592,-0.0001340898,2,1
0.0002310434,-0.0001449482,2,1
0.0002013854,-0.0001652063,2,1
0.0001966855,-0.000191785,2,1
0.0001893926,-0.0002169052,2,1
0.0001611932,-0.0002366771,2,1
0.0001190562,-0.0002451045,2,1
8.210535e-05,-0.0002399184,2,1
6.184718e-05,-0.0002222533,2,1
5.341979e-05,-0.0002006986,2,1
4.013043e-05,-0.0001835197,2,1
1.355172e-05,-0.000171851,2,1
-1.594417e-05,-0.0001655305,2,1
-3.555408e-05,-0.0001639098,2,1
-4.38194e-05,-0.0001606685,2,1
-5.208474e-05,-0.0001499722,2,1
-7.347736e-05,-0.0001287416,2,1
-0.0001101041,-9.681477e-05,2,1
-0.0001582375,-5.710876e-05,2,1
-0.0002120432,-1.432352e-05,2,1
-0.000261311,2.910999e-05,2,1
-0.0002956689,6.865393e-05,2,1
-0.0003118754,0.0001012291,2,1
-0.0003177098,0.0001300767,2,1
-0.000318196,0.0001603829,2,1
-0.0003104168,0.0002025199,2,1
-0.0002888622,0.0002589186,2,1
-0.0002483458,0.0003190449,2,1
-0.0001934057,0.0003705817,2,1
-0.0001392759,0.0004021844,2,1
-0.000104756,0.0004055878,2,1
-9.778715e-05,0.0003828986,2,1
-0.0001182074,0.0003402755,2,1
-0.0001588858,0.0002832284,2,1
-0.0002123673,0.0002166196,2,1
-0.0002619593,0.000148228,2,1
-0.0002888622,8.567078e-05,2,1
-0.000276059,3.624086e-05,2,1
-0.0002186879,1.072688e-06,2,1
-0.0001248521,-2.258885e-05,2,1
-8.165035e-06,-3.960571e-05,2,1
0.0001137081,-5.32192e-05,2,1
0.0002227781,-6.553616e-05,2,1
0.0003085106,-7.704279e-05,2,1
0.0003692851,-8.854943e-05,2,1
0.0004123946,-0.0001013526,2,1
0.0004339493,-0.000117235,2,1
0.0004305459,-0.0001353863,2,1
0.000406074,-0.0001515928,2,1
0.0003678266,-0.0001606685,2,1
0.000329255,-0.0001600202,2,1
0.0003015418,-0.0001473791,2,1
0.0002892249,-0.0001319829,2,1
0.0002887387,-0.0001279313,2,1
0.000284525,-0.0001394379,2,1
0.0002535705,-0.000164396,2,1
0.0001798307,-0.0001925954,2,1
6.330578e-05,-0.0002135018,2,1
-7.995997e-05,-0.0002246843,2,1
-0.0002219292,-0.0002342462,2,1
-0.0003329439,-0.0002455907,2,1
-0.0003959873,-0.0002554767,2,1
-0.0004115456,-0.0002596904,2,1
-0.0003998769,-0.000253856,2,1
-0.0003948528,-0.0002378116,2,1
-0.0004186764,-0.0002159328,2,1
-0.000467296,-0.0001938919,2,1
-0.000519481,-0.0001775233,2,1
-0.0005509217,-0.0001697442,2,1
-0.0005457356,-0.0001682856,2,1
-0.0004977643,-0.0001660166,2,1
-0.0004130042,-0.0001554824,2,1
-0.000313334,-0.0001350622,2,1
-0.0002272773,-0.0001101041,2,1
-0.000176713,-8.692878e-05,2,1
-0.0001695821,-6.893953e-05,2,1
-0.0002028055,-5.678463e-05,2,1
-0.0002606628,-4.689865e-05,2,1
-0.0003246786,-3.506788e-05,2,1
-0.000370543,-1.610624e-05,2,1
-0.0003810773,7.069105e-06,2,1
-0.000355633,3.18651e-05,2,1
-0.0003063652,5.504044e-05,2,1
-0.0002439701,7.448828e-05,2,1
-0.000169258,8.907416e-05,2,1
-7.428769e-05,0.0001005808,2,1
5.212327e-05,0.0001114392,2,1
0.0002111094,0.0001226217,2,1
0.0003901916,0.0001344524,2,1
0.0005611706,0.000145635,2,1
0.0006947125,0.0001561692,2,1
0.0007619697,0.0001684862,2,1
0.0007420356,0.0001814514,2,1
0.0006400964,0.0001906891,2,1
0.0004945617,0.0001957132,2,1
0.0003585888,0.0001991165,2,1
0.0002793389,0.0002039785,2,1
0.0002608634,0.0002104611,2,1
0.0002707494,0.0002174299,2,1
0.0002662116,0.0002196988,2,1
0.0002209954,0.0002192126,2,1
0.0001412592,0.0002209954,2,1
5.974033e-05,0.0002271538,2,1
1.063454e-05,0.0002346088,2,1
1.371378e-05,0.0002417397,2,1
6.087479e-05,0.0002464396,2,1
0.0001266733,0.0002480603,2,1
0.000187934,0.0002482223,2,1
0.0002326641,0.0002478982,2,1
0.0002569738,0.0002456293,2,1
0.0002624841,0.0002438466,2,1
0.0002538946,0.0002422259,2,1
0.0002357433,0.0002396328,2,1
0.000210299,0.0002347709,2,1
0.0001832341,0.0002261814,2,1
0.0001597346,0.0002182402,2,1
0.0001388282,0.0002171058,2,1
0.0001206769,0.0002209954,2,1
0.0001023635,0.0002242366,2,1
8.307774e-05,0.0002209954,2,1
6.78436e-05,0.0002112714,2,1
5.374392e-05,0.0002010613,2,1
3.218923e-05,0.0001913374,2,1
-3.789272e-06,0.0001806411,2,1
-5.889148e-05,0.0001649207,2,1
-0.0001263107,0.0001441764,2,1
-0.0001934057,0.0001187321,2,1
-0.0002433218,9.26396e-05,2,1
-0.000268604,7.254349e-05,2,1
-0.0002767073,6.022653e-05,2,1
-0.000276221,5.098881e-05,2,1
-0.0002734659,4.207521e-05,2,1
-0.0002713591,3.154097e-05,2,1
-0.0002707109,2.133085e-05,2,1
-0.0002718453,9.013889e-06,2,1
-0.0002757348,-5.734056e-06,2,1
-0.0002752487,-2.194059e-05,2,1
-0.0002541802,-4.138842e-05,2,1
-0.0001972953,-6.132246e-05,2,1
-9.762509e-05,-7.995997e-05,2,1
4.693717e-05,-9.211487e-05,2,1
0.0002281262,-9.924574e-05,2,1
0.0004279528,-0.0001067007,2,1
0.0006187038,-0.0001209625,2,1
0.000772666,-0.0001392759,2,1
0.0008682846,-0.0001577513,2,1
0.000899077,-0.0001705545,2,1
0.0008797912,-0.0001789819,2,1
0.0008224201,-0.000189192,2,1
0.0007279359,-0.0002029675,2,1
0.0005824011,-0.0002180396,2,1
0.0003814401,-0.0002331117,2,1
0.0001428799,-0.000248832,2,1
-9.697683e-05,-0.0002647144,2,1
-0.0002977757,-0.0002793003,2,1
-0.0004358554,-0.0002887001,2,1
-0.0005159156,-0.0002912931,2,1
-0.0005598353,-0.0002896725,2,1
-0.0005904656,-0.0002854588,2,1
-0.0006178547,-0.000276221,2,1
-0.0006431369,-0.0002656868,2,1
-0.0006632329,-0.0002569353,2,1
-0.0006744154,-0.0002498044,2,1
-0.0006760361,-0.0002433218,2,1
-0.0006616123,-0.000236353,2,1
-0.0006324406,-0.0002287359,2,1
-0.0005961379,-0.0002199844,2,1
-0.0005598353,-0.0002078295,2,1
-0.0005306636,-0.0001904885,2,1
-0.0005117019,-0.0001648822,2,1
-0.0005040849,-0.0001287416,2,1
-0.0005013297,-8.660465e-05,2,1
-0.0004946851,-4.511593e-05,2,1
-0.0004812336,-1.25408e-05,2,1
-0.0004601652,7.879432e-06,2,1
-0.0004295348,1.954813e-05,2,1
-0.0003839945,2.554455e-05,2,1
-0.0003154408,3.073064e-05,2,1
-0.0002169052,4.061663e-05,2,1
-8.174268e-05,5.56887e-05,2,1
8.972242e-05,7.400208e-05,2,1
0.0002876042,9.134307e-05,2,1
0.0004948858,0.0001098185,2,1
0.0006890402,0.0001334801,2,1
0.0008481885,0.0001644345,2,1
0.0009561241,0.0001970097,2,1
0.0009914545,0.0002261814,2,1
0.0009405658,0.0002464396,2,1
0.0008081583,0.0002579462,2,1
0.0006256726,0.0002618358,2,1
0.0004316803,0.000259891,2,1
0.0002626462,0.0002547049,2,1
0.0001393144,0.0002462775,2,1
6.557468e-05,0.000235095,2,1
3.089271e-05,0.0002255332,2,1
1.663096e-05,0.0002208333,2,1
5.286387e-06,0.0002208333,2,1
-1.3027e-05,0.0002222919,2,1
-3.782299e-05,0.0002192126,2,1
-6.602235e-05,0.0002124059,2,1
-9.973194e-05,0.0002015475,2,1
-0.0001360346,0.0001895547,2,1
-0.0001564548,0.0001773998,2,1
-0.0001358725,0.0001624898,2,1
-5.370539e-05,0.0001417454,2,1
9.004655e-05,0.0001146805,2,1
0.0002696149,8.648112e-05,2,1
0.0004391353,6.525056e-05,2,1
0.0005527431,5.19612e-05,2,1
0.0005814288,4.239934e-05,2,1
0.0005237334,3.105477e-05,2,1
0.0003901916,1.906194e-05,2,1
0.0002081922,8.203562e-06,2,1
9.338019e-06,-2.978945e-06,2,1
-0.0001763888,-1.659243e-05,2,1
-0.0003287302,-3.701266e-05,2,1
-0.0004402311,-6.423963e-05,2,1
-0.0005104054,-9.486997e-05,2,1
-0.0005476804,-0.0001225832,2,1
-0.0005624284,-0.0001442999,2,1
-0.0005630766,-0.0001574272,2,1
-0.0005502735,-0.000159372,2,1
-0.0005251534,-0.0001473791,2,1
-0.0004946851,-0.0001264727,2,1
-0.0004682684,-0.0001044318,2,1
-0.0004518998,-8.773911e-05,2,1
-0.0004407173,-8.07703e-05,2,1
-0.0004256453,-8.579432e-05,2,1
-0.0003993907,-0.0001013526,2,1
-0.0003590364,-0.0001204763,2,1
-0.0003110651,-0.0001383035,2,1
-0.0002671454,-0.0001514308,2,1
-0.0002345703,-0.0001572651,2,1
-0.0002159328,-0.000159372,2,1
-0.0002071812,-0.0001613168,2,1
-0.0001961608,-0.0001677994,2,1
-0.0001726613,-0.0001825473,2,1
-0.0001306864,-0.0002045882,2,1
-7.153257e-05,-0.0002292221,2,1
-3.465141e-06,-0.000251101,2,1
5.909208e-05,-0.0002619593,2,1
0.0001047945,-0.0002575835,2,1
0.000128456,-0.000241377,2,1
0.0001299146,-0.0002177155,2,1
0.0001171115,-0.0001901644,2,1
0.0001018773,-0.0001596961,2,1
9.069481e-05,-0.0001259865,2,1
8.875003e-05,-9.000802e-05,2,1
9.652917e-05,-5.176061e-05,2,1
0.0001094944,-1.124428e-05,2,1
0.0001278078,2.81376e-05,2,1
0.0001466074,5.876794e-05,2,1
0.0001589243,7.448828e-05,2,1
0.0001623277,7.708133e-05,2,1
0.0001634622,7.319176e-05,2,1
0.0001642725,6.995045e-05,2,1
0.0001675138,7.221937e-05,2,1
0.0001761032,8.502253e-05,2,1
0.0001905271,0.0001094944,2,1
0.0002143507,0.0001435281,2,1
0.0002482223,0.0001824238,2,1
0.0002819319,0.0002205092,2,1
0.0003015418,0.0002470879,2,1
0.0003005694,0.0002550291,2,1
0.0002843629,0.000244981,2,1
0.0002595669,0.0002256952,2,1
0.0002339606,0.0002039785,2,1
0.0002104611,0.0001822617,2,1
0.0001918236,0.0001587623,2,1
0.0001796687,0.000135911,2,1
0.0001751309,0.0001151667,2,1
0.0001798307,9.896015e-05,2,1
0.0001905271,9.118101e-05,2,1
0.0002010613,8.923623e-05,2,1
0.0002070577,9.053275e-05,2,1
0.0002088404,9.507057e-05,2,1
0.0002119197,0.0001096565,2,1
0.0002214815,0.0001342904,2,1
0.000239957,0.0001637863,2,1
0.0002642668,0.0001902029,2,1
0.0002879283,0.0002114335,2,1
0.0003051073,0.000225209,2,1
0.0003115899,0.0002284504,2,1
0.0003028383,0.0002227781,2,1
0.0002778803,0.0002081922,2,1
0.0002365536,0.0001846927,2,1
0.00018291,0.0001550348,2,1
0.000118408,0.0001213252,2,1
4.709924e-05,8.583286e-05,2,1
-2.275091e-05,5.017848e-05,2,1
-8.109443e-05,1.436204e-05,2,1
-0.0001227452,-1.659243e-05,2,1
-0.0001485136,-4.252288e-05,2,1
-0.0001582375,-6.586029e-05,2,1
-0.0001548341,-8.336335e-05,2,1
-0.0001452723,-9.081835e-05,2,1
-0.0001404103,-8.660465e-05,2,1
-0.0001454344,-7.995997e-05,2,1
-0.0001583996,-8.352541e-05,2,1
-0.000174282,-0.0001039456,2,1
-0.0001896782,-0.0001389517,2,1
-0.0002088019,-0.0001788198,2,1
-0.0002342462,-0.0002136638,2,1
-0.0002630937,-0.0002384598,2,1
-0.0002878898,-0.0002506147,2,1
-0.0002971275,-0.0002543422,2,1
-0.0002805968,-0.0002522354,2,1
-0.0002301945,-0.0002451045,2,1
-0.0001472171,-0.0002335979,2,1
-4.722278e-05,-0.0002156086,2,1
4.418206e-05,-0.000186761,2,1
0.0001054428,-0.0001459206,2,1
0.0001276457,-9.940781e-05,2,1
0.000110953,-5.889148e-05,2,1
6.654708e-05,-3.166451e-05,2,1
1.063454e-05,-1.950961e-05,2,1
-4.203669e-05,-2.307504e-05,2,1
-8.109443e-05,-4.106429e-05,2,1
-9.827335e-05,-6.877746e-05,2,1
-9.276313e-05,-9.66527e-05,2,1
-7.412562e-05,-0.0001191798,2,1
-6.083626e-05,-0.0001326312,2,1
-7.039812e-05,-0.0001386276,2,1
-0.0001067007,-0.0001402483,2,1
-0.0001632615,-0.0001400862,2,1
-0.0002274394,-0.0001336036,2,1
-0.0002893484,-0.0001170729,2,1
-0.0003420196,-9.373552e-05,2,1
-0.000380267,-7.23429e-05,2,1
-0.0003967976,-5.791909e-05,2,1
-0.0003807532,-4.657452e-05,2,1
-0.0003379679,-3.749886e-05,2,1
-0.0002929138,-2.518189e-05,2,1
-0.0002697385,-5.57199e-06,2,1
-0.000276221,2.473423e-05,2,1
-0.000303286,6.346784e-05,2,1
-0.000318196,0.0001018773,2,1
-0.0002702246,0.0001299146,2,1
-0.0001154523,0.0001420695,2,1
0.0001526038,0.0001440143,2,1
0.0004945617,0.000145635,2,1
0.000839599,0.0001539003,2,1
0.001109762,0.000165569,2,1
0.001249139,0.0001756171,2,1
0.00123666,0.0001801549,2,1
0.0010955,0.0001772377,2,1
0.0008776844,0.0001686482,2,1
0.0006459308,0.000158114,2,1
0.0004514523,0.0001534141,2,1
0.0003218,0.0001586002,2,1
0.0002649151,0.0001688103,2,1
0.0002759355,0.0001731861,2,1
0.000341572,0.0001647587,2,1
0.0004436732,0.0001459591,2,1
0.0005614947,0.0001226217,2,1
0.0006666752,0.0001072255,2,1
0.000735553,0.0001081979,2,1
0.000753056,0.0001300767,2,1
0.0007185361,0.0001692965,2,1
0.0006407447,0.0002218057,2,1
0.0005425331,0.000277232,2,1
0.0004414042,0.0003252034,2,1
0.0003414099,0.0003550234,2,1
0.0002384984,0.0003637749,2,1
0.0001237561,0.0003551855,2,1
-3.951337e-06,0.0003323342,2,1
-0.0001392759,0.000297004,2,1
-0.0002720074,0.0002551911,2,1
-0.0003883702,0.0002190506,2,1
-0.0004734545,0.0001911753,2,1
-0.0005176983,0.0001741585,2,1
-0.0005223983,0.0001673517,2,1
-0.000489499,0.0001649207,2,1
-0.0004363416,0.0001615174,2,1
-0.0003823738,0.0001492004,2,1
-0.0003425058,0.0001187321,2,1
-0.0003264613,7.173317e-05,2,1
-0.0003407231,1.274139e-05,2,1
-0.0003783222,-5.030202e-05,2,1
-0.0004227281,-0.0001062146,2,1
-0.0004546549,-0.0001412206,2,1
-0.0004642168,-0.0001425172,2,1
-0.0004595169,-0.000107349,2,1
-0.0004580583,-4.576419e-05,2,1
-0.0004775062,2.01964e-05,2,1
-0.0005199672,7.076078e-05,2,1
-0.0005719902,9.944634e-05,2,1
-0.0006100755,0.0001080358,2,1
-0.0006097514,0.0001096565,2,1
-0.000559025,0.0001098185,2,1
-0.0004700511,0.000105929,2,1
-0.0003708672,9.912221e-05,2,1
-0.0002974516,8.907416e-05,2,1
-0.00027849,7.610894e-05,2,1
-0.0003194925,5.504044e-05,2,1
-0.0003942046,1.825161e-05,2,1
-0.0004533584,-4.009191e-05,2,1
-0.0004510895,-0.0001212866,2,1
-0.0003642225,-0.0002186879,2,1
-0.0001940539,-0.0003204649,2,1
3.235129e-05,-0.0004136524,2,1
0.0002759355,-0.0004849611,2,1
0.0004905101,-0.000524181,2,1
0.0006384758,-0.0005322842,2,1
0.0007007089,-0.0005186707,2,1
0.0006757508,-0.0004967919,2,1
0.0005822391,-0.0004726442,2,1
0.0004464283,-0.0004491447,2,1
0.000294573,-0.0004232143,2,1
0.0001436902,-0.000390315,2,1
8.851824e-06,-0.0003447747,2,1
-0.0001020008,-0.0002849726,2,1
-0.0001848162,-0.000216419,2,1
-0.0002446183,-0.0001498101,2,1
-0.000293562,-9.438378e-05,2,1
-0.0003389403,-5.22468e-05,2,1
-0.0003823738,-2.372331e-05,2,1
-0.0004133283,-7.354709e-06,2,1
-0.0004233763,9.106227e-07,2,1
-0.0004094387,6.258778e-06,2,1
-0.0003668155,1.436204e-05,2,1
-0.0002899966,2.635488e-05,2,1
-0.0001760647,3.899597e-05,2,1
-3.798505e-05,4.742337e-05,2,1
9.377406e-05,5.066468e-05,2,1
0.0001830721,5.212327e-05,2,1
0.0002072198,5.99024e-05,2,1
0.0001720516,7.643307e-05,2,1
0.0001022015,0.0001033359,2,1
2.781346e-05,0.0001385041,2,1
-3.766092e-05,0.0001762653,2,1
-8.952183e-05,0.0002112714,2,1
-0.0001305243,0.0002363916,2,1
-0.0001634236,0.0002509774,2,1
-0.0001872472,0.0002600531,2,1
-0.0002018331,0.0002681563,2,1
-0.000208964,0.0002756114,2,1
-0.000209126,0.0002783665,2,1
-0.0002045882,0.0002744769,2,1
-0.0001938919,0.000259729,2,1
-0.0001788198,0.0002342847,2,1
-0.0001661787,0.0002044647,2,1
-0.0001561307,0.0001814514,2,1
-0.000137007,0.0001684862,2,1
-9.892161e-05,0.0001623277,2,1
-4.171256e-05,0.0001545486,2,1
3.899597e-05,0.0001365593,2,1
0.0001542244,0.0001041462,2,1
0.0003099692,6.168512e-05,2,1
0.0004929411,1.533444e-05,2,1
0.0006657028,-2.583016e-05,2,1
0.0007838485,-5.824322e-05,2,1
0.0008216097,-7.931171e-05,2,1
0.0007786624,-8.773911e-05,2,1
0.0006738061,-8.271508e-05,2,1
0.000537509,-6.974985e-05,2,1
0.0003992672,-5.840528e-05,2,1
0.0002757735,-5.613637e-05,2,1
0.0001751309,-6.326724e-05,2,1
9.782569e-05,-7.526008e-05,2,1
3.60788e-05,-9.017008e-05,2,1
-1.335113e-05,-0.000107349,2,1
-5.386745e-05,-0.0001230693,2,1
-9.049421e-05,-0.0001318209,2,1
-0.0001306864,-0.0001331174,2,1
-0.0001747682,-0.0001293899,2,1
-0.0002143121,-0.0001264727,2,1
-0.0002425115,-0.0001308485,2,1
-0.0002582318,-0.0001430034,2,1
-0.0002655248,-0.0001549962,2,1
-0.0002721694,-0.0001571031,2,1
-0.00027849,-0.0001447861,2,1
-0.0002775176,-0.0001253383,2,1
-0.0002635799,-0.000104918,2,1
-0.0002386219,-9.049421e-05,2,1
-0.000206533,-8.514606e-05,2,1
-0.0001757406,-8.498399e-05,2,1
-0.0001583996,-8.255302e-05,2,1
-0.0001580754,-7.623246e-05,2,1
-0.0001699062,-6.845333e-05,2,1
-0.0001857886,-6.035007e-05,2,1
-0.0002011848,-5.305713e-05,2,1
-0.0002122053,-4.85193e-05,2,1
-0.0002180396,-4.47918e-05,2,1
-0.0002160948,-4.090223e-05,2,1
-0.0002024813,-3.409549e-05,2,1
-0.0001731475,-2.518189e-05,2,1
-0.0001306864,-1.67545e-05,2,1
-7.688073e-05,-7.840905e-06,2,1
-1.545797e-05,4.244267e-07,2,1
4.807163e-05,8.203562e-06,2,1
0.0001098185,1.630683e-05,2,1
0.0001649207,2.586868e-05,2,1
0.0002099749,3.948217e-05,2,1
0.0002443328,5.52025e-05,2,1
0.0002735045,6.930219e-05,2,1
0.0002989488,8.04847e-05,2,1
0.0003195311,9.409818e-05,2,1
0.0003326584,0.0001143563,2,1
0.0003380065,0.0001402868,2,1
0.0003337929,0.0001647587,2,1
0.0003187208,0.0001808031,2,1
0.0002944109,0.0001864754,2,1
0.0002666978,0.0001851789,2,1
0.0002422259,0.0001845306,2,1
0.00022764,0.0001871237,2,1
0.0002290986,0.0001908512,2,1
0.0002448189,0.0001866375,2,1
0.0002657254,0.0001683241,2,1
0.0002767458,0.0001412592,2,1
0.000269777,0.0001172735,2,1
0.0002435224,0.0001028497,2,1
0.0002038164,0.0001009049,2,1
0.0001626518,0.0001104668,2,1
0.0001305629,0.0001286181,2,1
0.0001150046,0.0001513072,2,1
0.0001138702,0.0001720516,2,1
0.0001193804,0.0001889064,2,1
0.0001219734,0.0002013854,2,1
0.0001175977,0.0002081922,2,1
0.000106091,0.0002093267,2,1
9.037068e-05,0.0002046267,2,1
7.286763e-05,0.000195227,2,1
5.017848e-05,0.0001820997,2,1
1.808955e-05,0.0001658931,2,1
-2.09682e-05,0.0001475797,2,1
-6.132246e-05,0.0001299146,2,1
-9.519411e-05,0.0001154908,2,1
-0.0001233935,0.000105929,2,1
-0.0001506204,0.0001000946,2,1
-0.0001833576,9.361199e-05,2,1
-0.0002253326,8.307774e-05,2,1
-0.0002739521,6.557468e-05,2,1
-0.0003241924,4.288554e-05,2,1
-0.0003634122,2.165498e-05,2,1
-0.000377836,5.610517e-06,2,1
-0.000370381,-6.868513e-06,2,1
-0.0003502849,-2.015787e-05,2,1
-0.000325651,-3.425755e-05,2,1
-0.0003024756,-4.738484e-05,2,1
-0.0002817312,-5.905355e-05,2,1
-0.0002616352,-6.521203e-05,2,1
-0.0002376495,-6.569822e-05,2,1
-0.0002028055,-6.521203e-05,2,1
-0.0001533756,-7.088431e-05,2,1
-9.227693e-05,-8.482193e-05,2,1
-2.647842e-05,-0.0001042698,2,1
4.418206e-05,-0.0001267968,2,1
0.0001300767,-0.0001514308,2,1
0.0002440086,-0.0001775233,2,1
0.0003976466,-0.0001985918,2,1
0.0005801322,-0.0002076674,2,1
0.0007624559,-0.0002039399,2,1
0.0009094492,-0.0001922712,2,1
0.0009971267,-0.0001818991,2,1
0.00101544,-0.000179306,2,1
0.0009724927,-0.0001851404,2,1
0.000891622,-0.0001950263,2,1
0.0007961654,-0.0002047502,2,1
0.0007045984,-0.0002113949,2,1
0.0006271312,-0.0002149604,2,1
0.0005636016,-0.0002193361,2,1
0.0005049339,-0.0002254946,2,1
0.0004339493,-0.0002326255,2,1
0.0003394651,-0.0002381357,2,1
0.0002180782,-0.0002376495,2,1
8.113296e-05,-0.0002300324,2,1
-4.949169e-05,-0.0002138259,2,1
-0.0001567789,-0.0001903264,2,1
-0.0002340841,-0.0001661787,2,1
-0.0002852967,-0.0001439758,2,1
-0.000320789,-0.0001209625,2,1
-0.0003493125,-9.713889e-05,2,1
-0.0003779981,-7.444975e-05,2,1
-0.00041268,-5.824322e-05,2,1
-0.0004525481,-4.770897e-05,2,1
-0.0004865818,-3.944364e-05,2,1
-0.0005018159,-2.7937e-05,2,1
-0.0004948471,-8.327101e-06,2,1
-0.0004718339,1.987227e-05,2,1
-0.0004418518,5.131294e-05,2,1
-0.0004097628,7.643307e-05,2,1
-0.000382698,8.956036e-05,2,1
-0.0003626019,9.280167e-05,2,1
-0.0003491504,8.875003e-05,2,1
-0.0003369955,8.097089e-05,2,1
-0.0003178718,7.886404e-05,2,1
-0.0002849726,8.826383e-05,2,1
-0.0002392702,0.0001088461,2,1
-0.0001903264,0.0001329939,2,1
-0.0001480274,0.0001529279,2,1
-0.0001170729,0.0001657311,2,1
-8.952183e-05,0.0001715654,2,1
-5.354332e-05,0.0001759412,2,1
-3.14101e-06,0.0001843686,2,1
5.471631e-05,0.0001970097,2,1
0.0001091703,0.0002086784,2,1
0.0001641104,0.0002128921,2,1
0.0002342847,0.0002083542,2,1
0.0003286068,0.0002018716,2,1
0.0004428628,0.0001987924,2,1
0.0005550121,0.0002008992,2,1
0.000631507,0.0002051129,2,1
0.0006460929,0.0002060853,2,1
0.0005861287,0.0002017096,2,1
0.0004574487,0.0001918236,2,1
0.0002861456,0.000177886,2,1
0.000106091,0.0001639484,2,1
-5.727083e-05,0.0001561692,2,1
-0.0001836818,0.0001529279,2,1
-0.0002574215,0.000150659,2,1
-0.0002716832,0.0001464453,2,1
-0.0002371633,0.0001396385,2,1
-0.0001791439,0.0001294284,2,1
-0.0001319829,0.0001179218,2,1
-0.0001232314,0.0001081979,2,1
-0.000164396,0.0001026876,2,1
-0.000253694,9.814982e-05,2,1
-0.0003781601,8.858796e-05,2,1
-0.0005209396,6.78436e-05,2,1
-0.0006609641,3.705119e-05,2,1
-0.000777489,-1.034161e-06,2,1
-0.0008551183,-4.349527e-05,2,1
-0.0008872072,-8.692878e-05,2,1
-0.0008682456,-0.0001284175,2,1
-0.000792561,-0.0001684476,2,1
-0.0006539953,-0.0002078295,2,1
-0.0004604893,-0.0002455907,2,1
-0.0002368392,-0.0002820554,2,1
-1.318906e-05,-0.0003096065,2,1
0.0001822617,-0.0003240303,2,1
0.0003253654,-0.0003201407,2,1
0.000403643,-0.0003016653,2,1
0.000416122,-0.000278652,2,1
0.0003730126,-0.0002583939,2,1
0.0002905214,-0.0002442942,2,1
0.0001890685,-0.0002332737,2,1
8.956036e-05,-0.0002194982,2,1
6.582909e-06,-0.0001989159,2,1
-5.905355e-05,-0.0001720131,2,1
-0.000112373,-0.0001431655,2,1
-0.0001588858,-0.0001173971,2,1
-0.0002063709,-9.989401e-05,2,1
-0.0002608248,-9.227693e-05,2,1
-0.0003228959,-9.227693e-05,2,1
-0.0003882082,-9.519411e-05,2,1
-0.0004546549,-9.632857e-05,2,1
-0.0005133225,-9.098041e-05,2,1
-0.0005504355,-8.012204e-05,2,1
-0.0005578905,-6.569822e-05,2,1
-0.0005428185,-4.997789e-05,2,1
-0.00051705,-3.182657e-05,2,1
-0.0004885266,-7.516774e-06,2,1
-0.0004595169,2.327564e-05,2,1
-0.0004211074,5.082674e-05,2,1
-0.0003630881,6.83298e-05,2,1
-0.0002820554,7.448828e-05,2,1
-0.0001835197,7.254349e-05,2,1
-7.60704e-05,6.768154e-05,2,1
3.316162e-05,6.265751e-05,2,1
0.0001394765,6.217132e-05,2,1
0.0002396328,6.914012e-05,2,1
0.0003320101,8.437427e-05,2,1
0.0004151496,0.0001054428,2,1
0.0004922928,0.0001341283,2,1
0.0005691118,0.000170593,2,1
0.0006516031,0.0002146748,2,1
0.000743008,0.0002641047,2,1
0.0008483506,0.0003172622,2,1
0.0009600137,0.0003649094,2,1
0.001058874,0.0004020224,2,1
0.001119648,0.0004229288,2,1
0.001120783,0.0004294114,2,1
0.001059522,0.0004256839,2,1
0.0009590413,0.0004162841,2,1
0.0008558056,0.0004000776,2,1
0.0007694247,0.000376416,2,1
0.0006963331,0.0003438409,2,1
0.0006253485,0.0003033245,2,1
0.0005475571,0.0002563256,2,1
0.0004692795,0.0002046267,2,1
0.0004013741,0.0001539003,2,1
0.0003525924,0.0001120874,2,1
0.0003237448,8.453633e-05,2,1
0.000304459,7.011252e-05,2,1
0.0002816078,6.217132e-05,2,1
0.0002482223,5.698522e-05,2,1
0.0002023578,4.871989e-05,2,1
0.0001493625,3.380988e-05,2,1
9.16672e-05,1.322759e-05,2,1
2.76514e-05,-8.813297e-06,2,1
-4.576419e-05,-2.631635e-05,2,1
-0.0001302002,-3.490581e-05,2,1
-0.0002194982,-3.490581e-05,2,1
-0.0003005308,-2.858527e-05,2,1
-0.0003658432,-2.080613e-05,2,1
-0.0004165696,-1.416145e-05,2,1
-0.0004569239,-1.610624e-05,2,1
-0.0004917679,-3.036798e-05,2,1
-0.0005228845,-5.370539e-05,2,1
-0.0005501114,-7.785312e-05,2,1
-0.0005632387,-9.66527e-05,2,1
-0.0005533527,-0.0001094559,2,1
-0.0005189948,-0.0001149661,2,1
-0.0004708614,-0.0001107524,2,1
-0.0004279142,-9.746302e-05,2,1
-0.0004018217,-7.979791e-05,2,1
-0.0003888564,-6.456377e-05,2,1
-0.0003815635,-5.662256e-05,2,1
-0.0003779981,-5.986387e-05,2,1
-0.0003758912,-7.477388e-05,2,1
-0.0003690845,-9.438378e-05,2,1
-0.0003452609,-0.0001099421,2,1
-0.0003023136,-0.0001201522,2,1
-0.000251263,-0.0001276072,2,1
-0.000208964,-0.0001318209,2,1
-0.0001830335,-0.0001355484,2,1
-0.0001708786,-0.0001426792,2,1
-0.0001658546,-0.0001598582,2,1
-0.0001587237,-0.0001914609,2,1
-0.0001426792,-0.0002373254,2,1
-0.0001112386,-0.0002932379,2,1
-6.261898e-05,-0.0003485022,2,1
5.772582e-06,-0.0003912874,2,1
9.377406e-05,-0.0004121938,2,1
0.0001939304,-0.0004091146,2,1
0.0002929524,-0.0003838324,2,1
0.0003702575,-0.0003403989,2,1
0.0004026706,-0.0002843243,2,1
0.0003864641,-0.0002300324,2,1
0.0003355756,-0.0001955125,2,1
0.0002707494,-0.0001865989,2,1
0.0002081922,-0.0001929195,2,1
0.0001527658,-0.0001971332,2,1
0.0001046324,-0.0001911368,2,1
6.476436e-05,-0.0001755785,2,1
2.829966e-05,-0.0001590478,2,1
-6.058186e-06,-0.0001472171,2,1
-4.203669e-05,-0.0001428413,2,1
-8.060823e-05,-0.0001447861,2,1
-0.000114804,-0.0001501342,2,1
-0.0001326312,-0.0001481895,2,1
-0.0001279313,-0.0001240417,2,1
-0.0001020008,-7.266703e-05,2,1
-5.727083e-05,1.558884e-06,2,1
4.47606e-06,8.712937e-05,2,1
8.323981e-05,0.0001670276,2,1
0.0001765894,0.0002282883,2,1
0.0002777182,0.0002665357,2,1
0.000376416,0.0002830664,2,1
0.0004548557,0.0002861456,2,1
0.0004926169,0.0002838767,2,1
0.0004807861,0.0002804733,2,1
0.0004253598,0.0002824181,2,1
0.000346596,0.0002898731,2,1
0.0002626462,0.0003002453,2,1
0.0001786963,0.0003104554,2,1
8.712937e-05,0.0003166139,2,1
-1.189254e-05,0.0003175863,2,1
-0.0001076731,0.0003088348,2,1
-0.0001773612,0.0002853353,2,1
-0.0002037779,0.0002470879,2,1
-0.0001823853,0.0002025199,2,1
-0.0001308485,0.0001650828,2,1
-7.65566e-05,0.0001436902,2,1
-4.219875e-05,0.0001409351,2,1
-4.074016e-05,0.0001513072,2,1
-7.720486e-05,0.000162976,2,1
-0.0001457585,0.0001746447,2,1
-0.0002379736,0.0001872858,2,1
-0.0003374817,0.0002007372,2,1
-0.0004215936,0.0002125679,2,1
-0.000474589,0.0002195368,2,1
-0.0004865818,0.0002219677,2,1
-0.0004595169,0.0002182402,2,1
-0.0003987424,0.000210299,2,1
-0.0003078238,0.0002051129,2,1
-0.0001929195,0.0002081922,2,1
-6.683268e-05,0.0002187264,2,1
5.066468e-05,0.0002258573,2,1
0.0001399627,0.0002206712,2,1
0.000195389,0.0002008992,2,1
0.0002203471,0.0001723757,2,1
0.0002234263,0.0001420695,2,1
0.0002149989,0.0001195424,2,1
0.0001973338,0.0001069013,2,1
0.0001731861,9.928428e-05,2,1
0.0001493625,8.615699e-05,2,1
0.0001338042,5.957827e-05,2,1
0.0001355869,1.792748e-05,2,1
0.0001586002,-3.733679e-05,2,1
0.0001931201,-0.0001029732,2,1
0.0002234263,-0.0001713648,2,1
0.0002412535,-0.0002344082,2,1
0.0002441707,-0.0002872415,2,1
0.0002342847,-0.0003285682,2,1
0.0002137024,-0.0003587123,2,1
0.0001869616,-0.0003789705,2,1
0.0001613553,-0.0003856151,2,1
0.0001441764,-0.0003768636,2,1
0.0001414213,-0.0003515814,2,1
0.0001542244,-0.0003123616,2,1
0.0001744826,-0.000261311,2,1
0.0001832341,-0.0002032917,2,1
0.0001714034,-0.0001472171,2,1
0.0001414213,-9.827335e-05,2,1
0.0001007429,-5.905355e-05,2,1
6.298164e-05,-3.069211e-05,2,1
5.536457e-05,-1.383732e-05,2,1
0.0001000946,-7.354709e-06,2,1
0.0001983062,-9.623623e-06,2,1
0.0003237448,-1.724069e-05,2,1
0.0004336251,-3.134038e-05,2,1
0.0004846757,-5.354332e-05,2,1
0.0004555039,-8.628052e-05,2,1
0.0003548613,-0.0001306864,2,1
0.0002132162,-0.0001796301,2,1
6.670914e-05,-0.0002167431,2,1
-5.69467e-05,-0.0002301945,2,1
-0.0001459206,-0.000219012,2,1
-0.0002034537,-0.0001893541,2,1
-0.0002420253,-0.0001486757,2,1
-0.0002752487,-0.0001054042,2,1
-0.0003100927,-6.683268e-05,2,1
-0.0003481781,-3.26369e-05,2,1
-0.0003838324,4.47606e-06,2,1
-0.0004155972,4.888196e-05,2,1
-0.0004433104,0.0001026876,2,1
-0.000464703,0.0001616794,2,1
-0.0004737787,0.0002229401,2,1
-0.0004668098,0.0002807975,2,1
-0.0004442827,0.0003273102,2,1
-0.0004091146,0.0003551855,2,1
-0.000365357,0.0003616681,2,1
-0.0003175477,0.0003532407,2,1
-0.0002718453,0.0003428685,2,1
-0.0002394322,0.0003350894,2,1
-0.0002311669,0.0003260137,2,1
-0.0002522354,0.0003136967,2,1
-0.0002976137,0.0002968419,2,1
-0.000355471,0.0002775562,2,1
-0.0004110594,0.000259729,2,1
-0.0004506033,0.0002448189,2,1
-0.0004685925,0.0002346088,2,1
-0.0004625961,0.0002315296,2,1
-0.000430021,0.0002409294,2,1
-0.0003745947,0.0002665357,2,1
-0.0003057169,0.0002997591,2,1
-0.0002366771,0.0003256896,2,1
-0.0001797922,0.0003263378,2,1
-0.0001421931,0.0002958695,2,1
-0.0001180453,0.0002370398,2,1
-9.649064e-05,0.0001602208,2,1
-6.991193e-05,7.967438e-05,2,1
-3.879538e-05,9.986281e-06,2,1
-8.165035e-06,-4.414354e-05,2,1
1.64689e-05,-8.806324e-05,2,1
2.603075e-05,-0.0001311726,2,1
1.209313e-05,-0.0001786577,2,1
-2.210265e-05,-0.0002287359,2,1
-6.667062e-05,-0.0002723315,2,1
-0.0001063766,-0.0003006929,2,1
-0.000127283,-0.0003123616,2,1
-0.0001149661,-0.0003084721,2,1
-5.953974e-05,-0.0002946965,2,1
3.996837e-05,-0.0002723315,2,1
0.0001720516,-0.0002451045,2,1
0.0003195311,-0.0002188499,2,1
0.0004739794,-0.000199078,2,1
0.0006349103,-0.0001882196,2,1
0.0007926,-0.0001849783,2,1
0.0009378107,-0.0001822232,2,1
0.001061629,-0.0001724993,2,1
0.001155303,-0.0001549962,2,1
0.001212188,-0.0001319829,2,1
0.001225315,-0.0001135075,2,1
0.001182206,-0.0001079973,2,1
0.001069084,-0.0001190177,2,1
0.0008835187,-0.0001464067,2,1
0.0006397723,-0.0001830335,2,1
0.0003666921,-0.0002222533,2,1
9.31258e-05,-0.0002558008,2,1
-0.0001587237,-0.0002822175,2,1
-0.0003692465,-0.0003047445,2,1
-0.0005236948,-0.0003225718,2,1
-0.000623527,-0.0003271096,2,1
-0.0006810602,-0.0003117133,2,1
-0.000713149,-0.0002744383,2,1
-0.0007275729,-0.0002199844,2,1
-0.0007267626,-0.0001577513,2,1
-0.0007115284,-0.0001002181,2,1
-0.0006812222,-5.386745e-05,2,1
-0.0006269303,-1.99958e-05,2,1
-0.0005421702,2.04508e-06,2,1
-0.000439907,1.436204e-05,2,1
-0.0003428299,2.035846e-05,2,1
-0.0002697385,1.987227e-05,2,1
-0.0002253326,1.565857e-05,2,1
-0.0001971332,1.1769e-05,2,1
-0.0001676373,1.711715e-05,2,1
-0.0001232314,4.077869e-05,2,1
-5.678463e-05,8.113296e-05,2,1
3.413401e-05,0.0001300767,2,1
0.0001451488,0.0001748067,2,1
0.0002712356,0.0002080301,2,1
0.0004063981,0.0002269918,2,1
0.0005457744,0.0002329882,2,1
0.0006809369,0.0002310434,2,1
0.0008151271,0.0002263435,2,1
0.0009596896,0.0002229401,2,1
0.001117865,0.0002278021,2,1
0.001271504,0.0002430362,2,1
0.001385436,0.0002632944,2,1
0.001426438,0.0002804733,2,1
0.001381384,0.000289549,2,1
0.00125708,0.0002867939,2,1
0.001077673,0.0002717218,2,1
0.0008759017,0.0002491947,2,1
0.0006806127,0.0002258573,2,1
0.0005042856,0.0002073819,2,1
0.0003427064,0.0001949028,2,1
0.0001830721,0.0001876099,2,1
1.808955e-05,0.0001822617,2,1
-0.0001493239,0.0001801549,2,1
-0.0003144685,0.0001767515,2,1
-0.0004711856,0.0001673517,2,1
-0.0006113721,0.0001508211,2,1
-0.0007240074,0.0001312112,2,1
-0.0007974231,0.0001146805,2,1
-0.0008244879,0.0001046324,2,1
-0.0008089297,9.912221e-05,2,1
-0.0007731132,9.588091e-05,2,1
-0.000750262,9.490851e-05,2,1
-0.0007599859,9.069481e-05,2,1
-0.0007936955,8.259155e-05,2,1
-0.0008191398,7.30297e-05,2,1
-0.0008076332,6.508849e-05,2,1
-0.0007483172,5.957827e-05,2,1
-0.0006444334,4.807163e-05,2,1
-0.0005039228,2.489629e-05,2,1
-0.0003309991,-9.623623e-06,2,1
-0.0001441378,-4.85193e-05,2,1
2.197911e-05,-8.530812e-05,2,1
0.0001274836,-0.0001151281,2,1
0.0001511452,-0.0001404103,2,1
0.0001091703,-0.0001637477,2,1
3.883391e-05,-0.0001812508,2,1
-2.372331e-05,-0.0001903264,2,1
-5.727083e-05,-0.0001887058,2,1
-6.456377e-05,-0.0001759026,2,1
-6.586029e-05,-0.0001558065,2,1
-7.833932e-05,-0.0001329553,2,1
-0.0001052422,-0.0001169109,2,1
-0.0001439758,-0.0001110765,2,1
-0.0001956746,-0.0001133454,2,1
-0.0002600145,-0.0001170729,2,1
-0.0003297026,-0.0001201522,2,1
-0.0003925839,-0.0001203142,2,1
-0.0004363416,-0.0001225832,2,1
-0.0004564377,-0.0001340898,2,1
-0.0004536825,-0.0001575893,2,1
-0.0004271038,-0.000191623,2,1
-0.000382698,-0.0002282497,2,1
-0.0003342404,-0.0002593663,2,1
-0.0002951827,-0.0002781658,2,1
-0.0002689281,-0.000281083,2,1
-0.0002517492,-0.0002703867,2,1
-0.000238946,-0.0002504527,2,1
-0.0002232257,-0.0002230636,2,1
-0.0001989159,-0.0001900023,2,1
-0.0001627754,-0.0001525652,2,1
-0.0001138316,-0.0001178833,2,1
-5.678463e-05,-8.773911e-05,2,1
-1.520357e-06,-6.407757e-05,2,1
4.35338e-05,-5.062615e-05,2,1
7.400208e-05,-4.219875e-05,2,1
9.182927e-05,-3.63644e-05,2,1
0.0001047945,-3.231277e-05,2,1
0.000120839,-2.89094e-05,2,1
0.0001404489,-2.372331e-05,2,1
0.0001603829,-9.623623e-06,2,1
0.0001761032,1.517237e-05,2,1
0.0001786963,4.645098e-05,2,1
0.0001673517,7.643307e-05,2,1
0.0001501728,9.928428e-05,2,1
0.0001449867,0.0001146805,2,1
0.0001691344,0.0001252147,2,1
0.0002341226,0.000135749,2,1
0.0003386548,0.0001487142,2,1
0.0004637693,0.000165569,2,1
0.000574622,0.0001893926,2,1
0.0006378276,0.0002161334,2,1
0.0006311828,0.0002397949,2,1
0.0005567948,0.0002579462,2,1
0.0004417284,0.0002710735,2,1
0.0003188828,0.000279663,2,1
0.0002203471,0.000287118,2,1
0.0001620036,0.0002931144,2,1
0.0001396385,0.0002948972,2,1
0.0001323456,0.0002889007,2,1
0.0001122495,0.0002759355,2,1
6.006447e-05,0.0002594049,2,1
-2.809907e-05,0.0002427121,2,1
-0.0001342519,0.0002269918,2,1
-0.0002261429,0.0002137024,2,1
-0.0002791382,0.0002023578,2,1
-0.000288538,0.0001919856,2,1
-0.0002681178,0.0001808031,2,1
-0.0002318152,0.0001709172,2,1
-0.0001895161,0.0001608691,2,1
-0.000149486,0.0001496866,2,1
-0.0001170729,0.0001389903,2,1
-9.924574e-05,0.0001260251,2,1
-0.0001008664,0.0001083599,2,1
-0.0001199901,8.664318e-05,2,1
-0.0001532135,6.233338e-05,2,1
-0.0001943781,3.964424e-05,2,1
-0.0002368392,2.311357e-05,2,1
-0.0002716832,1.274139e-05,2,1
-0.0002887001,3.341602e-06,2,1
-0.0002809209,-5.89612e-06,2,1
-0.0002546664,-1.480971e-05,2,1
-0.0002183637,-2.242678e-05,2,1
-0.0001775233,-2.858527e-05,2,1
-0.0001407345,-3.328516e-05,2,1
-0.0001136696,-3.944364e-05,2,1
-8.984595e-05,-4.787104e-05,2,1
-5.208474e-05,-5.905355e-05,2,1
2.100672e-05,-7.282909e-05,2,1
0.000145635,-8.725291e-05,2,1
0.0003049452,-0.0001034594,2,1
0.0004559901,-0.0001237176,2,1
0.0005567948,-0.0001514308,2,1
0.00058937,-0.0001844921,2,1
0.0005574431,-0.0002177155,2,1
0.0004765725,-0.0002470493,2,1
0.0003678266,-0.0002723315,2,1
0.0002550291,-0.0002932379,2,1
0.0001571416,-0.0003073376,2,1
9.16672e-05,-0.0003134961,2,1
5.925414e-05,-0.0003128478,2,1
4.82337e-05,-0.0003063652,2,1
4.742337e-05,-0.0002945344,2,1
5.293359e-05,-0.000276221,2,1
6.492643e-05,-0.0002473734,2,1
8.323981e-05,-0.0002028055,2,1
9.896015e-05,-0.0001457585,2,1
9.960841e-05,-7.979791e-05,2,1
8.242948e-05,-1.092015e-05,2,1
4.790957e-05,5.115087e-05,2,1
5.772582e-06,9.652917e-05,2,1
-2.356124e-05,0.0001200286,2,1
-1.545797e-05,0.0001219734,2,1
4.191315e-05,0.0001086841,2,1
0.0001339663,9.134307e-05,2,1
0.00022764,7.837785e-05,2,1
0.0002939248,7.351589e-05,2,1
0.000321638,7.67572e-05,2,1
0.0003149933,8.388807e-05,2,1
0.0002783665,8.907416e-05,2,1
0.0002182402,8.826383e-05,2,1
0.000143204,7.870197e-05,2,1
7.173317e-05,6.071273e-05,2,1
3.056858e-05,3.672706e-05,2,1
3.688912e-05,8.041497e-06,2,1
8.631905e-05,-2.388537e-05,2,1
0.0001568175,-5.159854e-05,2,1
0.0002171058,-7.056019e-05,2,1
0.0002414156,-8.158062e-05,2,1
0.0002219677,-8.676672e-05,2,1
0.0001621656,-8.222889e-05,2,1
7.497447e-05,-6.035007e-05,2,1
-2.031993e-05,-1.707863e-05,2,1
-9.989401e-05,4.191315e-05,2,1
-0.0001439758,0.0001026876,2,1
-0.0001431655,0.0001573037,2,1
-0.0001058904,0.0002013854,2,1
-5.22468e-05,0.0002321778,2,1
-1.358292e-06,0.000252274,2,1
3.154097e-05,0.0002683184,2,1
3.445814e-05,0.0002785285,2,1
2.855407e-06,0.000279663,2,1
-5.678463e-05,0.0002675081,2,1
-0.000129714,0.0002397949,2,1
-0.0001976194,0.0002000889,2,1
-0.0002447804,0.0001569795,2,1
-0.0002676316,0.0001203528,2,1
-0.0002681178,9.296373e-05,2,1
-0.0002580697,7.481241e-05,2,1
-0.0002447804,6.265751e-05,2,1
-0.0002279256,5.552663e-05,2,1
-0.000204102,5.066468e-05,2,1
-0.0001724993,4.693717e-05,2,1
-0.0001324691,4.02925e-05,2,1
-8.174268e-05,3.008238e-05,2,1
-1.25408e-05,1.954813e-05,2,1
8.064677e-05,1.419998e-05,2,1
0.0001965235,1.792748e-05,2,1
0.0003180725,2.376183e-05,2,1
0.0004196875,2.39239e-05,2,1
0.0004788414,1.64689e-05,2,1
0.0004929411,3.503668e-06,2,1
0.0004864584,-1.383732e-05,2,1
0.0005039615,-3.782299e-05,2,1
0.0005812666,-6.342931e-05,2,1
0.000713188,-8.514606e-05,2,1
0.0008564538,-0.0001026491,2,1
0.0009528828,-0.0001214487,2,1
0.000953207,-0.0001428413,2,1
0.0008386266,-0.0001627754,2,1
0.0006235657,-0.0001765509,2,1
0.0003485408,-0.0001856265,2,1
6.83298e-05,-0.0001878955,2,1
-0.000169258,-0.0001859507,2,1
-0.0003374817,-0.0001838438,2,1
-0.0004358554,-0.0001822232,2,1
-0.000484637,-0.0001781716,2,1
-0.000514295,-0.0001673132,2,1
-0.0005462218,-0.0001504584,2,1
-0.0005833348,-0.000132145,2,1
-0.0006188271,-0.0001144799,2,1
-0.0006389232,-0.0001045939,2,1
-0.0006361681,-0.0001114006,2,1
-0.0006120203,-0.0001374932,2,1
-0.0005753936,-0.0001757406,2,1
-0.0005350393,-0.0002109087,2,1
-0.0005000332,-0.0002251705,2,1
-0.0004679443,-0.0002120432,2,1
-0.0004305072,-0.0001752544,2,1
-0.0003773498,-0.0001230693,2,1
-0.0003076617,-6.407757e-05,2,1
-0.0002297083,-6.220252e-06,2,1
-0.0001507825,4.094075e-05,2,1
-7.947377e-05,7.270556e-05,2,1
-1.967167e-05,8.84259e-05,2,1
3.024445e-05,9.118101e-05,2,1
7.90261e-05,8.583286e-05,2,1
0.0001321835,7.6271e-05,2,1
0.0001808031,6.735741e-05,2,1
0.0002115956,6.444023e-05,2,1
0.0002156472,7.173317e-05,2,1
0.0001889064,8.875003e-05,2,1
0.0001378558,0.0001057669,2,1
7.059871e-05,0.0001163011,2,1
-6.058186e-06,0.000115977,2,1
-8.514606e-05,0.0001072255,2,1
-0.000161965,9.344993e-05,2,1
-0.0002329496,7.756752e-05,2,1
-0.0002950206,6.362991e-05,2,1
-0.0003441264,5.649903e-05,2,1
-0.0003791325,6.006447e-05,2,1
-0.000395177,7.870197e-05,2,1
-0.0003880461,0.000113384,2,1
-0.0003630881,0.0001618415,2,1
-0.0003300267,0.0002171058,2,1
-0.0003003688,0.000274801,2,1
-0.0002801106,0.0003311998,2,1
-0.0002647144,0.0003816021,2,1
-0.0002470493,0.0004214702,2,1
-0.0002191741,0.0004485351,2,1
-0.0001818991,0.0004626348,2,1
-0.0001392759,0.0004623107,2,1
-0.0001002181,0.0004418904,2,1
-7.720486e-05,0.0004028327,2,1
-7.833932e-05,0.0003504856,2,1
-0.0001054042,0.0002942489,2,1
-0.0001512687,0.0002467637,2,1
-0.0001968091,0.0002158093,2,1
-0.0002230636,0.0001981441,2,1
-0.0002178775,0.000187934,2,1
-0.0001885437,0.0001851789,2,1
-0.000149486,0.0001885823,2,1
-0.0001107524,0.0001905271,2,1
-7.882551e-05,0.00018291,2,1
-5.500191e-05,0.0001636242,2,1
-3.668853e-05,0.0001325077,2,1
-2.145439e-05,9.21534e-05,2,1
-6.382317e-06,4.953022e-05,2,1
9.175954e-06,1.468618e-05,2,1
3.008238e-05,-1.545797e-05,2,1
5.925414e-05,-5.354332e-05,2,1
9.523264e-05,-0.0001089697,2,1
0.0001329939,-0.0001775233,2,1
0.0001691344,-0.0002533699,2,1
0.0002030061,-0.000333268,2,1
0.000239957,-0.0004185144,2,1
0.0002793389,-0.0005040849,2,1
0.0003120761,-0.0005820383,2,1
0.000334117,-0.0006418404,2,1
0.0003430306,-0.0006750637,2,1
0.0003397893,-0.0006821946,2,1
0.0003156415,-0.0006702017,2,1
0.0002605393,-0.0006476747,2,1
0.0001775618,-0.0006133168,2,1
8.826383e-05,-0.0005648594,2,1
1.889987e-05,-0.0004993849,2,1
-1.529591e-05,-0.0004211074,2,1
-2.145439e-05,-0.0003394265,2,1
-2.210265e-05,-0.0002621213,2,1
-3.863332e-05,-0.000199078,2,1
-8.012204e-05,-0.0001592099,2,1
-0.000142031,-0.0001438137,2,1
-0.0002147983,-0.0001493239,2,1
-0.0002765452,-0.0001640719,2,1
-0.000303286,-0.0001775233,2,1
-0.0002775176,-0.0001838438,2,1
-0.0002000504,-0.0001820611,2,1
-8.530812e-05,-0.0001739578,2,1
4.256141e-05,-0.0001627754,2,1
0.0001563313,-0.0001473791,2,1
0.0002389846,-0.0001263107,2,1
0.0002806354,-9.470791e-05,2,1
0.0002812837,-4.770897e-05,2,1
0.0002508154,8.851824e-06,2,1
0.0002039785,5.925414e-05,2,1
0.0001579519,9.344993e-05,2,1
0.0001221355,0.0001145184,2,1
9.393612e-05,0.0001323456,2,1
6.427817e-05,0.0001594105,2,1
2.878586e-05,0.00019782,2,1
-4.761664e-06,0.0002441707,2,1
-1.983374e-05,0.0002929524,2,1
-2.654814e-06,0.0003371962,2,1
5.017848e-05,0.0003731747,2,1
0.0001269974,0.0003992672,2,1
0.0002172679,0.0004156358,2,1
0.0003060797,0.0004279528,2,1
0.000376416,0.0004396215,2,1
0.0004140152,0.0004516144,2,1
0.0004146635,0.0004616624,2,1
0.0003851676,0.0004709002,2,1
0.000341734,0.0004749518,2,1
0.0002978143,0.0004707381,2,1
0.0002652392,0.0004585832,2,1
0.000250005,0.0004405939,2,1
0.0002509774,0.0004203358,2,1
0.0002538946,0.0004018603,2,1
0.0002477361,0.0003853296,2,1
0.0002294227,0.000368961,2,1
0.0002021958,0.0003521062,2,1
0.0001790204,0.0003355756,2,1
0.000170431,0.0003201794,2,1
0.0001764274,0.0003046211,2,1
0.0001845306,0.0002866318,2,1
0.0001782101,0.0002654013,2,1
0.0001427178,0.0002444948,2,1
7.465034e-05,0.0002255332,2,1
-1.399939e-05,0.0002059233,2,1
-9.859748e-05,0.0001786963,2,1
-0.0001530514,0.0001420695,2,1
-0.0001609926,0.0001005808,2,1
-0.0001118868,6.281957e-05,2,1
-6.544382e-06,3.445814e-05,2,1
0.0001245665,1.501031e-05,2,1
0.0002397949,2.207145e-06,2,1
0.0003104554,-1.043395e-05,2,1
0.0003277964,-2.566809e-05,2,1
0.0002948972,-4.462973e-05,2,1
0.0002211574,-6.748094e-05,2,1
0.000120839,-9.357346e-05,2,1
1.776542e-05,-0.0001243659,2,1
-5.483985e-05,-0.0001575893,2,1
-6.780507e-05,-0.0001911368,2,1
-1.092015e-05,-0.0002193361,2,1
9.669123e-05,-0.0002392702,2,1
0.0002154851,-0.0002514251,2,1
0.0003075383,-0.0002567732,2,1
0.0003524304,-0.000258718,2,1
0.0003427064,-0.0002579077,2,1
0.0002799871,-0.0002545043,2,1
0.000178048,-0.0002449425,2,1
5.763349e-05,-0.0002284118,2,1
-5.435365e-05,-0.0002076674,2,1
-0.0001397621,-0.0001880575,2,1
-0.0001914609,-0.000174444,2,1
-0.0002097743,-0.0001671511,2,1
-0.0002044261,-0.0001639098,2,1
-0.0001906506,-0.0001592099,2,1
-0.0001801163,-0.0001522411,2,1
-0.0001729855,-0.0001467309,2,1
-0.0001609926,-0.0001512687,2,1
-0.0001426792,-0.0001663408,2,1
-0.0001266348,-0.00018433,2,1
-0.0001298761,-0.0001994021,2,1
-0.0001647201,-0.0002079916,2,1
-0.0002303566,-0.0002102605,2,1
-0.0003050687,-0.0002068571,2,1
-0.0003575778,-0.0002000504,2,1
-0.0003643846,-0.0001900023,2,1
-0.0003269475,-0.0001778474,2,1
-0.0002699005,-0.0001627754,2,1
-0.0002272773,-0.0001430034,2,1
-0.000219012,-0.0001209625,2,1
-0.0002425115,-9.973194e-05,2,1
-0.0002802727,-8.222889e-05,2,1
-0.0003115513,-7.072225e-05,2,1
-0.00032322,-5.986387e-05,2,1
-0.0003073376,-4.43056e-05,2,1
-0.0002619593,-2.291298e-05,2,1
-0.00019924,2.623614e-07,2,1
-0.0001352242,2.376183e-05,2,1
-8.433573e-05,4.45062e-05,2,1
-5.159854e-05,6.200925e-05,2,1
-3.247483e-05,7.805372e-05,2,1
-1.659243e-05,9.31258e-05,2,1
4.47606e-06,0.0001069013,2,1
3.073064e-05,0.0001213252,2,1
5.293359e-05,0.0001342904,2,1
6.119892e-05,0.0001402868,2,1
5.390598e-05,0.0001363972,2,1
4.207521e-05,0.0001240803,2,1
3.688912e-05,0.0001120874,2,1
3.883391e-05,0.0001096565,2,1
4.061663e-05,0.000115977,2,1
3.769945e-05,0.0001287802,2,1
2.619281e-05,0.0001440143,2,1
3.341602e-06,0.0001584381,2,1
-3.539201e-05,0.0001720516,2,1
-8.611845e-05,0.0001863134,2,1
-0.0001326312,0.0001942546,2,1
-0.0001559686,0.0001910133,2,1
-0.0001384655,0.0001814514,2,1
-7.526008e-05,0.0001707551,2,1
1.760335e-05,0.0001618415,2,1
0.0001094944,0.0001560072,2,1
0.0001718896,0.0001526038,2,1
0.0001871237,0.0001466074,2,1
0.0001551968,0.0001372076,2,1
9.16672e-05,0.0001232699,2,1
1.906194e-05,0.0001038221,2,1
-4.349527e-05,8.016057e-05,2,1
-8.498399e-05,5.244739e-05,2,1
-0.0001010285,2.084466e-05,2,1
-9.762509e-05,-1.027188e-05,2,1
-8.060823e-05,-3.490581e-05,2,1
-5.013995e-05,-5.078821e-05,2,1
-6.868513e-06,-5.953974e-05,2,1
4.320967e-05,-6.342931e-05,2,1
8.194328e-05,-6.974985e-05,2,1
8.826383e-05,-8.060823e-05,2,1
5.471631e-05,-9.114248e-05,2,1
-9.137427e-06,-9.778715e-05,2,1
-8.417367e-05,-0.0001018388,2,1
-0.0001514308,-0.0001062146,2,1
-0.0001972953,-0.0001128592,2,1
-0.0002209568,-0.0001261486,2,1
-0.0002297083,-0.0001438137,2,1
-0.0002365151,-0.0001653684,2,1
-0.000246401,-0.0001872472,2,1
-0.0002656868,-0.0002026434,2,1
-0.0002927517,-0.0002100984,2,1
-0.000318358,-0.000209126,2,1
-0.0003301888,-0.0002039399,2,1
-0.0003262992,-0.0001985918,2,1
-0.000315765,-0.0001945401,2,1
-0.000305879,-0.0001922712,2,1
-0.0002964792,-0.0001877334,2,1
-0.000281083,-0.0001739578,2,1
-0.0002575835,-0.0001480274,2,1
-0.0002318152,-0.0001118868,2,1
-0.0002199844,-6.991193e-05,2,1
-0.0002358668,-2.777494e-05,2,1
-0.0002718453,8.041497e-06,2,1
-0.0002979378,3.413401e-05,2,1
-0.0002841623,4.531652e-05,2,1
-0.0002167431,4.256141e-05,2,1
-0.0001021629,3.18651e-05,2,1
4.077869e-05,1.889987e-05,2,1
0.0001939304,4.638125e-06,2,1
0.0003461098,-1.221667e-05,2,1
0.0004802999,-3.247483e-05,2,1
0.0005767288,-5.565017e-05,2,1
0.0006255105,-7.60704e-05,2,1
0.0006277795,-9.081835e-05,2,1
0.0005892079,-0.0001029732,2,1
0.0005209784,-0.0001136696,2,1
0.0004381629,-0.0001188556,2,1
0.0003501615,-0.0001115627,2,1
0.000262322,-8.838737e-05,2,1
0.0001785342,-4.965376e-05,2,1
0.0001056048,3.341602e-06,2,1
4.969229e-05,6.687121e-05,2,1
1.517237e-05,0.0001360731,2,1
7.23117e-06,0.0002020337,2,1
3.105477e-05,0.0002579462,2,1
8.712937e-05,0.0002960316,2,1
0.0001657311,0.0003153174,2,1
0.000254867,0.0003174242,2,1
0.0003454615,0.0003057555,2,1
0.0004298976,0.0002897111,2,1
0.0005039615,0.0002783665,2,1
0.0005665187,0.0002754493,2,1
0.0006198382,0.0002765838,2,1
0.0006627856,0.0002730183,2,1
0.0006845024,0.0002610255,2,1
0.0006723474,0.0002417397,2,1
0.0006204865,0.0002180782,2,1
0.0005360505,0.0001979821,2,1
0.0004302217,0.0001885823,2,1
0.0003114278,0.0001866375,2,1
0.0001840444,0.0001892305,2,1
5.795762e-05,0.0001908512,2,1
-6.051213e-05,0.0001833962,2,1
-0.0001695821,0.0001586002,2,1
-0.0002694143,0.000113384,2,1
-0.0003591985,5.277153e-05,2,1
-0.0004379622,-1.545797e-05,2,1
-0.0005027883,-8.07703e-05,2,1
-0.0005512458,-0.0001323071,2,1
-0.0005836589,-0.0001679614,2,1
-0.0006060239,-0.0001869231,2,1
-0.0006201236,-0.0001885437,2,1
-0.0006219063,-0.0001752544,2,1
-0.0005975965,-0.0001514308,2,1
-0.0005355255,-0.0001214487,2,1
-0.0004327761,-9.470791e-05,2,1
-0.0002958309,-7.282909e-05,2,1
-0.000129714,-5.629844e-05,2,1
5.633696e-05,-4.527799e-05,2,1
0.000247412,-4.155049e-05,2,1
0.0004226047,-4.43056e-05,2,1
0.0005663567,-5.22468e-05,2,1
0.0006723474,-6.035007e-05,2,1
0.0007371737,-7.088431e-05,2,1
0.0007598628,-8.871149e-05,2,1
0.0007423597,-0.0001195039,2,1
0.0006901747,-0.0001640719,2,1
0.0006091419,-0.0002104225,2,1
0.0004990995,-0.000243808,2,1
0.0003629646,-0.0002564491,2,1
0.0002109473,-0.000253856,2,1
6.298164e-05,-0.0002436459,2,1
-6.002594e-05,-0.0002326255,2,1
-0.0001415448,-0.0002227395,2,1
-0.0001872472,-0.0002112329,2,1
-0.0002217671,-0.0001961608,2,1
-0.0002673075,-0.0001757406,2,1
-0.0003271096,-0.000152079,2,1
-0.0003955011,-0.0001256624,2,1
-0.0004582204,-9.778715e-05,2,1
-0.0004950092,-6.845333e-05,2,1
-0.0004878783,-3.992984e-05,2,1
-0.0004363416,-1.497178e-05,2,1
-0.0003622777,5.934648e-06,2,1
-0.0002903207,2.603075e-05,2,1
-0.0002366771,4.790957e-05,2,1
-0.0002049123,7.059871e-05,2,1
-0.0001862748,8.923623e-05,2,1
-0.000169258,0.0001020394,2,1
-0.0001433275,0.0001104668,2,1
-0.0001042698,0.0001219734,2,1
-5.402952e-05,0.0001401247,2,1
1.720949e-06,0.000162976,2,1
5.260946e-05,0.0001861513,2,1
9.458438e-05,0.0002085163,2,1
0.0001237561,0.0002313675,2,1
0.000130725,0.0002537325,2,1
0.0001156529,0.0002751252,2,1
9.458438e-05,0.0002937627,2,1
9.134307e-05,0.0003107795,2,1
0.0001122495,0.0003274723,2,1
0.0001449867,0.0003469201,2,1
0.0001743205,0.000363937,2,1
0.0001858272,0.0003715541,2,1
0.0001718896,0.0003644232,2,1
0.0001302388,0.0003451374,2,1
7.043665e-05,0.0003200173,2,1
2.207145e-06,0.0002953834,2,1
-7.380149e-05,0.0002730183,2,1
-0.0001525652,0.0002503292,2,1
-0.0002258187,0.0002255332,2,1
-0.0002820554,0.0002010613,2,1
-0.0003146305,0.000187934,2,1
-0.0003206269,0.0001942546,2,1
-0.0003047445,0.0002149989,2,1
-0.0002763831,0.0002321778,2,1
-0.000251101,0.0002342847,2,1
-0.0002366771,0.0002198609,2,1
-0.0002365151,0.0001900409,2,1
-0.0002452666,0.0001419075,2,1
-0.0002468872,7.772959e-05,2,1
-0.0002203085,5.772582e-06,2,1
-0.0001415448,-6.569822e-05,2,1
-3.465141e-06,-0.0001313347,2,1
0.0001782101,-0.0001890299,2,1
0.0003723644,-0.0002384598,2,1
0.0005394538,-0.0002747625,2,1
0.0006409068,-0.0002943724,2,1
0.0006543582,-0.0002911311,2,1
0.0005825632,-0.0002640662,2,1
0.0004469145,-0.0002191741,2,1
0.0002807975,-0.0001689338,2,1
0.0001240803,-0.0001293899,2,1
5.286387e-06,-0.0001143178,2,1
-6.342931e-05,-0.0001233935,2,1
-8.547019e-05,-0.0001467309,2,1
-7.461182e-05,-0.0001752544,2,1
-4.787104e-05,-0.0001984297,2,1
-2.113026e-05,-0.0002097743,2,1
-6.176923e-08,-0.0002099363,2,1
1.841368e-05,-0.0001997262,2,1
3.494434e-05,-0.0001801163,2,1
5.212327e-05,-0.0001554824,2,1
6.687121e-05,-0.0001293899,2,1
6.978839e-05,-0.000104756,2,1
4.693717e-05,-8.174268e-05,2,1
-4.437533e-06,-5.775702e-05,2,1
-8.255302e-05,-3.085418e-05,2,1
-0.0001783336,-3.465141e-06,2,1
-0.0002781658,1.841368e-05,2,1
-0.0003627639,3.235129e-05,2,1
-0.0004224039,3.883391e-05,2,1
-0.0004541688,3.721326e-05,2,1
-0.0004603272,2.81376e-05,2,1
-0.0004510895,1.1769e-05,2,1
-0.0004331002,-1.059602e-05,2,1
-0.0004113835,-3.928157e-05,2,1
-0.0003836704,-6.91016e-05,2,1
-0.0003459091,-9.389759e-05,2,1
-0.0003006929,-0.0001089697,2,1
-0.0002614731,-0.0001120489,2,1
-0.0002442942,-0.0001050801,2,1
-0.0002494803,-9.227693e-05,2,1
-0.0002595283,-7.882551e-05,2,1
-0.0002532078,-6.634648e-05,2,1
-0.0002104225,-5.64605e-05,2,1
-0.0001233935,-5.305713e-05,2,1
-4.923729e-06,-6.002594e-05,2,1
0.000108522,-7.639453e-05,2,1
0.0001764274,-9.519411e-05,2,1
0.0001775618,-0.0001118868,2,1
0.0001203528,-0.0001266348,2,1
3.850978e-05,-0.0001404103,2,1
-2.258885e-05,-0.0001558065,2,1
-3.344723e-05,-0.0001728234,2,1
1.290346e-05,-0.0001856265,2,1
0.0001075496,-0.0001865989,2,1
0.000230071,-0.0001723372,2,1
0.0003603715,-0.0001454344,2,1
0.0004811103,-0.0001075111,2,1
0.0005777013,-6.261898e-05,2,1
0.0006415551,-1.480971e-05,2,1
0.0006713751,3.008238e-05,2,1
0.0006653786,6.930219e-05,2,1
0.0006180556,0.0001026876,2,1
0.0005248679,0.0001328318,2,1
0.0003897054,0.0001642725,2,1
0.0002295848,0.0001999268,2,1
6.881599e-05,0.0002339606,2,1
-6.829127e-05,0.0002624841,2,1
-0.0001551583,0.0002814457,2,1
-0.0001749302,0.0002877662,2,1
-0.0001211246,0.0002790148,2,1
4.638125e-06,0.0002587566,2,1
0.0001856651,0.0002352571,2,1
0.0003851676,0.0002203471,2,1
0.000557281,0.0002192126,2,1
0.0006600305,0.000232502,2,1
0.0006775336,0.0002545429,2,1
0.000616597,0.0002762596,2,1
0.00051012,0.0002924662,2,1
0.0003979707,0.0003013798,2,1
0.0003075383,0.0003049452,2,1
0.0002540567,0.0003047831,2,1
0.0002341226,0.000299597,2,1
0.0002378501,0.0002859836,2,1
0.0002592428,0.0002624841,2,1
0.0002968419,0.0002269918,2,1
0.0003362238,0.0001795066,2,1
0.0003534027,0.0001185701,2,1
0.0003261758,4.628891e-05,2,1
0.0002462775,-3.069211e-05,2,1
0.0001185701,-0.0001079973,2,1
-3.992984e-05,-0.0001831956,2,1
-0.0002037779,-0.0002515871,2,1
-0.000348016,-0.0003044204,2,1
-0.0004549791,-0.0003350507,2,1
-0.0005183466,-0.000340561,2,1
-0.0005463839,-0.0003215994,2,1
-0.0005533527,-0.0002814071,2,1
-0.0005549733,-0.0002256567,2,1
-0.0005677765,-0.0001648822,2,1
-0.0005964621,-0.0001107524,2,1
-0.0006407059,-7.299116e-05,2,1
-0.0006902979,-5.516398e-05,2,1
-0.0007306521,-5.435365e-05,2,1
-0.0007541516,-6.861539e-05,2,1
-0.000757555,-9.470791e-05,2,1
-0.0007450759,-0.0001258245,2,1
-0.0007248178,-0.0001524032,2,1
-0.0007053699,-0.0001721751,2,1
-0.0006873807,-0.0001864369,2,1
-0.0006714982,-0.0001979435,2,1
-0.0006614503,-0.0002013469,2,1
-0.0006595054,-0.0001929195,2,1
-0.0006635571,-0.000176875,2,1
-0.0006646916,-0.0001536997,2,1
-0.0006465403,-0.0001290658,2,1
-0.0005841451,-0.0001081593,2,1
-0.0004452552,-9.616651e-05,2,1
-0.0002157707,-8.854943e-05,2,1
9.150514e-05,-7.931171e-05,2,1
0.0004527488,-6.504996e-05,2,1
0.0008327923,-4.722278e-05,2,1
0.001176047,-2.566809e-05,2,1
0.001421576,1.002961e-07,2,1
0.001521733,2.829966e-05,2,1
0.001465496,5.666109e-05,2,1
0.001290952,8.356394e-05,2,1
0.001067301,0.0001070634,2,1
0.000854509,0.0001245665,2,1
0.0006849886,0.0001338042,2,1
0.0005648981,0.0001346145,2,1
0.0004783552,0.0001316974,2,1
0.0004076947,0.0001351007,2,1
0.0003401134,0.0001526038,2,1
0.0002694529,0.0001842065,2,1
0.0001900409,0.0002240746,2,1
9.620504e-05,0.0002590807,2,1
-8.651231e-06,0.0002816078,2,1
-0.0001170729,0.0002916559,2,1
-0.0002128535,0.0002934386,2,1
-0.0002757348,0.0002880904,2,1
-0.0002950206,0.0002762596,2,1
-0.0002794623,0.0002585945,2,1
-0.0002491561,0.0002380122,2,1
-0.0002254946,0.0002159713,2,1
-0.0002105846,0.0001945787,2,1
-0.0001924333,0.0001757791,2,1
-0.0001653684,0.0001634622,2,1
-0.0001360346,0.0001568175,2,1
-0.0001144799,0.0001517934,2,1
-0.0001055663,0.0001419075,2,1
-0.0001079973,0.0001287802,2,1
-0.0001149661,0.0001172735,2,1
-0.0001177212,0.0001112771,2,1
-0.0001157764,0.0001093323,2,1
-0.0001195039,0.0001116012,2,1
-0.0001366828,0.0001156529,2,1
-0.0001747682,0.0001205148,2,1
-0.0002326255,0.0001287802,2,1
-0.0002964792,0.0001398006,2,1
-0.0003489884,0.0001492004,2,1
-0.0003781601,0.0001535762,2,1
-0.0003784843,0.0001485521,2,1
-0.0003473677,0.0001291043,2,1
-0.0002903207,9.199134e-05,2,1
-0.0002199844,3.93201e-05,2,1
-0.0001504584,-1.756482e-05,2,1
-9.146661e-05,-6.537409e-05,2,1
-4.85193e-05,-9.794922e-05,2,1
-2.42095e-05,-0.0001188556,2,1
-2.145439e-05,-0.0001339277,2,1
-3.571614e-05,-0.0001451102,2,1
-5.386745e-05,-0.0001536997,2,1
-6.294311e-05,-0.0001587237,2,1
-6.310517e-05,-0.0001616409,2,1
-5.710876e-05,-0.000159534,2,1
-4.916756e-05,-0.0001499722,2,1
-4.560212e-05,-0.0001344139,2,1
-5.062615e-05,-0.0001159385,2,1
-6.407757e-05,-9.616651e-05,2,1
-8.579432e-05,-8.271508e-05,2,1
-0.0001216107,-8.239095e-05,2,1
-0.0001707166,-9.843541e-05,2,1
-0.0002259808,-0.0001267968,2,1
-0.0002757348,-0.0001540238,2,1
-0.0003087962,-0.0001710407,2,1
-0.0003167374,-0.0001788198,2,1
-0.0002925897,-0.0001835197,2,1
-0.0002355427,-0.0001893541,2,1
-0.0001541859,-0.0001958367,2,1
-6.796714e-05,-0.0002003745,2,1
2.04508e-06,-0.0002024813,2,1
4.402e-05,-0.0002019951,2,1
6.071273e-05,-0.0001997262,2,1
6.41161e-05,-0.0001994021,2,1
6.119892e-05,-0.000201509,2,1
5.730935e-05,-0.0002058847,2,1
5.115087e-05,-0.0002122053,2,1
4.239934e-05,-0.0002201465,2,1
3.575467e-05,-0.0002280877,2,1
3.834771e-05,-0.0002337599,2,1
5.795762e-05,-0.0002378116,2,1
9.863601e-05,-0.0002386219,2,1
0.000163138,-0.0002352185,2,1
0.0002503292,-0.0002241981,2,1
0.000346596,-0.0002013469,2,1
0.0004324906,-0.0001658546,2,1
0.0004921307,-0.0001240417,2,1
0.0005219508,-7.995997e-05,2,1
0.0005334574,-4.041603e-05,2,1
0.0005354022,-9.461558e-06,2,1
0.0005232473,1.54965e-05,2,1
0.0004900239,3.413401e-05,2,1
0.0004298976,4.709924e-05,2,1
0.000346596,5.601284e-05,2,1
0.0002467637,6.233338e-05,2,1
0.0001385041,6.719535e-05,2,1
3.413401e-05,7.335383e-05,2,1
-5.062615e-05,7.724339e-05,2,1
-0.0001010285,8.210535e-05,2,1
-0.0001109144,9.620504e-05,2,1
-8.384954e-05,0.0001227837,2,1
-3.458168e-05,0.0001573037,2,1
1.419998e-05,0.0001923098,2,1
4.02925e-05,0.0002213195,2,1
2.910999e-05,0.0002440086,2,1
-1.691656e-05,0.0002636185,2,1
-8.530812e-05,0.0002804733,2,1
-0.0001498101,0.0002953834,2,1
-0.0001838438,0.0003102934,2,1
-0.0001760647,0.0003308757,2,1
-0.0001415448,0.0003610198,2,1
-0.0001045939,0.0003999155,2,1
-8.984595e-05,0.0004415663,2,1
-0.0001070249,0.0004775448,2,1
-0.0001344139,0.0005008822,2,1
-0.0001302002,0.0005068787,2,1
-5.354332e-05,0.0004921307,2,1
0.0001140322,0.0004589073,2,1
0.0003584268,0.0004140152,2,1
0.0006441481,0.000366368,2,1
0.0009279247,0.0003164518,2,1
0.001167133,0.0002608634,2,1
0.001321906,0.0002000889,2,1
0.001371984,0.0001365593,2,1
0.001320934,7.027458e-05,2,1
0.001197116,4.80019e-06,2,1
0.001036833,-6.148453e-05,2,1
0.0008729845,-0.0001267968,2,1
0.0007240463,-0.0001857886,2,1
0.0005898562,-0.0002334358,2,1
0.0004621486,-0.0002635799,2,1
0.0003305515,-0.0002775176,2,1
0.0001950649,-0.0002791382,2,1
6.395404e-05,-0.0002708729,2,1
-5.030202e-05,-0.000256287,2,1
-0.000137007,-0.0002381357,2,1
-0.0001953505,-0.0002177155,2,1
-0.0002279256,-0.0001955125,2,1
-0.0002489941,-0.0001731475,2,1
-0.0002744383,-0.0001538618,2,1
-0.0003126857,-0.000144462,2,1
-0.0003744326,-0.0001488377,2,1
-0.0004656754,-0.0001656925,2,1
-0.0005708557,-0.0001877334,2,1
-0.0006664743,-0.000208964,2,1
-0.0007295177,-0.000221443,2,1
-0.0007539895,-0.0002198223,2,1
-0.0007489655,-0.0001995642,2,1
-0.0007285453,-0.0001661787,2,1
-0.0007022907,-0.0001289037,2,1
-0.0006810602,-9.794922e-05,2,1
-0.0006702017,-7.65566e-05,2,1
-0.0006617744,-6.456377e-05,2,1
-0.0006413542,-5.905355e-05,2,1
-0.0005969483,-5.483985e-05,2,1
-0.0005314739,-4.965376e-05,2,1
-0.0004541688,-4.819517e-05,2,1
-0.0003810773,-6.278104e-05,2,1
-0.0003292164,-9.973194e-05,2,1
-0.0003136581,-0.0001571031,2,1
-0.0003379679,-0.0002243602,2,1
-0.0003882082,-0.0002882139,2,1
-0.0004418518,-0.0003366714,2,1
-0.0004763717,-0.0003673017,2,1
-0.0004800992,-0.0003825359,2,1
-0.0004588687,-0.000382698,2,1
-0.0004269418,-0.0003681121,2,1
-0.0003980942,-0.0003391024,2,1
-0.0003700569,-0.000300855,2,1
-0.0003288923,-0.0002548284,2,1
-0.0002690902,-0.0002011848,2,1
-0.0001972953,-0.0001442999,2,1
-0.0001211246,-8.579432e-05,2,1
-3.863332e-05,-2.955766e-05,2,1
5.115087e-05,2.376183e-05,2,1
0.0001417454,7.643307e-05,2,1
0.0002171058,0.0001294284,2,1
0.0002655633,0.0001801549,2,1
0.0002887387,0.0002263435,2,1
0.0002997591,0.0002642668,2,1
0.0003078624,0.000289549,2,1
0.0003177483,0.0003033245,2,1
0.0003347652,0.0003117519,2,1
0.0003550234,0.0003187208,2,1
0.0003655576,0.0003284447,2,1
0.0003610198,0.0003414099,2,1
0.0003422202,0.0003527545,2,1
0.0003146691,0.0003582647,2,1
0.0002744769,0.0003579406,2,1
0.0002184023,0.0003555096,2,1
0.0001459591,0.0003550234,2,1
6.476436e-05,0.0003530786,2,1
-1.3027e-05,0.0003462718,2,1
-7.769106e-05,0.0003358997,2,1
-0.0001216107,0.0003234207,2,1
-0.0001468929,0.0003106175,2,1
-0.0001585616,0.0003005694,2,1
-0.0001588858,0.0002968419,2,1
-0.0001464067,0.0002984626,2,1
-0.0001096179,0.0003028383,2,1
-3.766092e-05,0.0003109416,2,1
6.168512e-05,0.0003190449,2,1
0.0001611932,0.0003248792,2,1
0.0002271538,0.000324231,2,1
0.000244981,0.0003101313,2,1
0.0002227781,0.0002838767,2,1
0.0001837203,0.0002511395,2,1
0.0001417454,0.000217754,2,1
9.361199e-05,0.000185503,2,1
3.024445e-05,0.0001537382,2,1
-4.90055e-05,0.0001216493,2,1
-0.0001400862,8.534666e-05,2,1
-0.0002340841,3.867184e-05,2,1
-0.0003180339,-1.497178e-05,2,1
-0.0003781601,-6.974985e-05,2,1
-0.0004023079,-0.0001182074,2,1
-0.0003817256,-0.0001532135,2,1
-0.0003199787,-0.0001708786,2,1
-0.0002284118,-0.0001747682,2,1
-0.0001233935,-0.0001773612,2,1
-2.664048e-05,-0.0001927574,2,1
4.337174e-05,-0.0002261429,2,1
7.481241e-05,-0.0002684419,2,1
6.573675e-05,-0.0003042584,2,1
2.846173e-05,-0.0003194925,2,1
-1.837515e-05,-0.0003110651,2,1
-5.516398e-05,-0.0002815692,2,1
-6.748094e-05,-0.0002404046,2,1
-5.386745e-05,-0.0001979435,2,1
-2.064406e-05,-0.0001609926,2,1
2.230325e-05,-0.0001311726,2,1
6.346784e-05,-0.0001020008,2,1
9.717743e-05,-6.731888e-05,2,1
0.0001206769,-1.853722e-05,2,1
0.0001351007,5.1475e-05,2,1
0.0001399627,0.0001349386,2,1
0.0001352628,0.0002130541,2,1
0.0001224596,0.0002655633,2,1
0.0001106288,0.0002807975,2,1
0.0001140322,0.0002568118,2,1
0.0001346145,0.0002005751,2,1
0.0001561692,0.0001226217,2,1
0.0001526038,3.98063e-05,2,1
0.0001112771,-3.166451e-05,2,1
3.996837e-05,-8.433573e-05,2,1
-3.68506e-05,-0.0001169109,2,1
-9.551824e-05,-0.0001337657,2,1
-0.0001233935,-0.0001412206,2,1
-0.0001248521,-0.0001483515,2,1
-0.0001154523,-0.0001577513,2,1
-0.000104756,-0.0001658546,2,1
-9.551824e-05,-0.000176875,2,1
-8.093236e-05,-0.0001943781,2,1
-5.370539e-05,-0.0002220912,2,1
-1.853722e-05,-0.0002629317,2,1
8.527692e-06,-0.0003193304,2,1
1.371378e-05,-0.0003909633,2,1
-1.358292e-06,-0.0004664857,2,1
-2.89094e-05,-0.0005290429,2,1
-5.467778e-05,-0.0005630766,2,1
-6.39155e-05,-0.0005578905,2,1
-4.365734e-05,-0.0005102433,2,1
1.533444e-05,-0.00042759,2,1
0.0001130598,-0.0003284061,2,1
0.0002376881,-0.0002300324,2,1
0.0003725265,-0.0001449482,2,1
0.0004992616,-7.785312e-05,2,1
0.0006071971,-2.518189e-05,2,1
0.0006966573,1.954813e-05,2,1
0.0007861174,5.876794e-05,2,1
0.0009058838,9.377406e-05,2,1
0.001068273,0.0001263492,2,1
0.001251732,0.0001545486,2,1
0.001402128,0.0001801549,2,1
0.001464038,0.0002081922,2,1
0.001408611,0.0002406053,2,1
0.001245573,0.0002764217,2,1
0.001014143,0.000311914,2,1
0.0007613214,0.0003401134,2,1
0.0005305402,0.000354051,2,1
0.0003527545,0.0003499994,2,1
0.0002394708,0.0003297412,2,1
0.0001795066,0.0003002453,2,1
0.0001451488,0.0002707494,2,1
0.0001080358,0.0002504913,2,1
5.1475e-05,0.0002435224,2,1
-2.291298e-05,0.0002459534,2,1
-0.0001007043,0.0002501671,2,1
-0.0001666649,0.0002509774,2,1
-0.0002131776,0.0002446569,2,1
-0.0002428356,0.0002308813,2,1
-0.0002669833,0.00021273,2,1
-0.0002977757,0.0001926339,2,1
-0.000338292,0.0001654069,2,1
-0.0003873979,0.000123432,2,1
-0.0004387725,6.622294e-05,2,1
-0.0004882024,1.720949e-06,2,1
-0.0005330946,-5.095028e-05,2,1
-0.0005690731,-7.720486e-05,2,1
-0.0005979206,-7.007399e-05,2,1
-0.0006219063,-3.587821e-05,2,1
-0.0006398956,1.727922e-05,2,1
-0.0006544815,7.643307e-05,2,1
-0.000665826,0.0001328318,2,1
-0.0006711741,0.0001788584,2,1
-0.0006661501,0.0002106232,2,1
-0.0006520505,0.0002243987,2,1
-0.0006356818,0.0002208333,2,1
-0.0006196374,0.0002007372,2,1
-0.000603593,0.0001662173,2,1
-0.0005830107,0.0001193804,2,1
-0.0005572423,6.379197e-05,2,1
-0.0005283947,-3.303076e-06,2,1
-0.0004932265,-8.628052e-05,2,1
-0.0004546549,-0.0001857886,2,1
-0.0004159214,-0.0002929138,2,1
-0.0003765395,-0.0003859393,2,1
-0.0003353749,-0.0004514136,2,1
-0.0002946965,-0.0004885266,2,1
-0.0002643903,-0.0005016539,2,1
-0.0002455907,-0.0004937127,2,1
-0.0002321393,-0.0004648651,2,1
-0.00021415,-0.0004154351,2,1
-0.0001874093,-0.000350609,2,1
-0.0001583996,-0.0002846485,2,1
-0.0001376552,-0.0002269532,2,1
-0.0001285796,-0.0001791439,2,1
-0.0001267968,-0.0001358725,2,1
-0.0001258245,-9.276313e-05,2,1
-0.0001258245,-4.85193e-05,2,1
-0.0001326312,-4.599598e-06,2,1
-0.0001483515,3.640293e-05,2,1
-0.0001729855,7.157111e-05,2,1
-0.0001896782,9.831188e-05,2,1
-0.0001794681,0.0001167873,2,1
-0.0001306864,0.0001342904,2,1
-4.689865e-05,0.0001527658,2,1
5.52025e-05,0.0001726999,2,1
0.0001498487,0.0001958752,2,1
0.0002135403,0.0002218057,2,1
0.0002363916,0.0002478982,2,1
0.0002239125,0.0002709115,2,1
0.0001919856,0.0002864697,2,1
0.0001553589,0.0002958695,2,1
0.0001222976,0.0002997591,2,1
9.571884e-05,0.0002999212,2,1
7.90261e-05,0.0002978143,2,1
7.173317e-05,0.0002948972,2,1
7.189524e-05,0.0002910076,2,1
7.756752e-05,0.0002848491,2,1
8.907416e-05,0.0002741528,2,1
0.0001081979,0.0002568118,2,1
0.0001295905,0.0002318537,2,1
0.000150659,0.0001974959,2,1
0.0001707551,0.0001551968,2,1
0.0001861513,0.0001064152,2,1
0.0001866375,5.633696e-05,2,1
0.000163138,1.22552e-05,2,1
0.0001140322,-1.659243e-05,2,1
4.337174e-05,-3.247483e-05,2,1
-3.830919e-05,-3.895745e-05,2,1
-0.0001159385,-4.090223e-05,2,1
-0.00016942,-4.187462e-05,2,1
-0.0001854645,-4.236082e-05,2,1
-0.000169258,-3.879538e-05,2,1
-0.0001455964,-3.069211e-05,2,1
-0.0001413827,-2.015787e-05,2,1
-0.0001635857,-9.623623e-06,2,1
-0.0001984297,-1.358292e-06,2,1
-0.000223874,2.369211e-06,2,1
-0.0002194982,1.234753e-06,2,1
-0.0001844921,-2.81688e-06,2,1
-0.0001276072,-1.237873e-05,2,1
-6.81292e-05,-2.46957e-05,2,1
-3.117831e-05,-3.652646e-05,2,1
-3.490581e-05,-4.576419e-05,2,1
-7.218083e-05,-5.338126e-05,2,1
-0.0001211246,-6.06742e-05,2,1
-0.0001592099,-6.683268e-05,2,1
-0.0001708786,-7.428769e-05,2,1
-0.0001553203,-8.40116e-05,2,1
-0.0001029732,-9.227693e-05,2,1
7.555301e-06,-9.794922e-05,2,1
0.0002034923,-0.000104918,2,1
0.0004924549,-0.0001139937,2,1
0.0008415438,-0.0001216107,2,1
0.001185123,-0.0001274451,2,1
0.001454962,-0.0001300382,2,1
0.001604711,-0.0001263107,2,1
0.001613948,-0.0001170729,2,1
0.001494182,-0.0001088076,2,1
0.001273448,-0.0001045939,2,1
0.0009966405,-0.0001055663,2,1
0.0007165913,-0.0001094559,2,1
0.000477869,-0.0001162626,2,1
0.0003065659,-0.0001232314,2,1
0.0002054371,-0.0001285796,2,1
0.0001534141,-0.0001344139,2,1
0.0001143563,-0.0001467309,2,1
5.714729e-05,-0.0001671511,2,1
-3.620233e-05,-0.0001904885,2,1
-0.0001558065,-0.0002123673,2,1
-0.0002767073,-0.0002276015,2,1
-0.000370381,-0.000233922,2,1
-0.0004164075,-0.0002301945,2,1
-0.0004167317,-0.0002147983,2,1
-0.000390315,-0.0001874093,2,1
-0.0003562813,-0.0001493239,2,1
-0.000318358,-0.0001067007,2,1
-0.0002668213,-6.748094e-05,2,1
-0.0001864369,-3.506788e-05,2,1
-7.18567e-05,-8.327101e-06,2,1
6.946425e-05,1.468618e-05,2,1
0.0002169437,3.575467e-05,2,1
0.0003375204,5.552663e-05,2,1
0.000406074,7.643307e-05,2,1
0.0004127187,0.0001017153,2,1
0.0003600474,0.000130725,2,1
0.0002707494,0.000165569,2,1
0.0001735102,0.0002094887,2,1
9.571884e-05,0.0002611876,2,1
5.747142e-05,0.0003115899,2,1
6.816773e-05,0.0003521062,2,1
0.0001244044,0.0003754436,2,1
0.0002104611,0.0003777126,2,1
0.0003026763,0.0003600474,2,1
0.0003691231,0.0003287688,2,1
0.0003944053,0.0002898731,2,1
0.0003807918,0.0002511395,2,1
0.000353889,0.000220023,2,1
0.0003328204,0.0002013854,2,1
0.0003182346,0.0001949028,2,1
0.0002877662,0.0001936063,2,1
0.0002205092,0.0001889064,2,1
0.0001174356,0.0001752929,2,1
-2.168618e-06,0.0001514693,2,1
-0.0001182074,0.0001242423,2,1
-0.0002169052,9.798775e-05,2,1
-0.0002922655,7.124698e-05,2,1
-0.0003444506,4.02925e-05,2,1
-0.0003794566,1.193106e-05,2,1
-0.0004006872,-9.623623e-06,2,1
-0.0004228902,-2.955766e-05,2,1
-0.0004553032,-5.127441e-05,2,1
-0.0005016539,-7.169464e-05,2,1
-0.0005528665,-8.465986e-05,2,1
-0.0005958138,-8.806324e-05,2,1
-0.0006241752,-8.44978e-05,2,1
-0.0006400577,-7.914964e-05,2,1
-0.0006504298,-7.282909e-05,2,1
-0.0006635571,-6.650855e-05,2,1
-0.0006860842,-6.359137e-05,2,1
-0.0007162283,-6.650855e-05,2,1
-0.0007426449,-6.991193e-05,2,1
-0.0007536653,-6.780507e-05,2,1
-0.000742807,-5.354332e-05,2,1
-0.0007095836,-2.988179e-05,2,1
-0.0006614503,-3.303076e-06,2,1
-0.0006125065,1.711715e-05,2,1
-0.0005752315,2.603075e-05,2,1
-0.0005552975,2.295151e-05,2,1
-0.0005578905,8.851824e-06,2,1
-0.0005822003,-1.286493e-05,2,1
-0.0006178547,-4.074016e-05,2,1
-0.0006505919,-7.704279e-05,2,1
-0.0006700397,-0.0001183694,2,1
-0.0006663122,-0.0001543479,2,1
-0.0006334129,-0.0001776853,2,1
-0.0005685869,-0.0001864369,2,1
-0.0004737787,-0.0001835197,2,1
-0.0003650328,-0.0001716889,2,1
-0.0002577456,-0.0001572651,2,1
-0.0001577513,-0.0001459206,2,1
-6.229485e-05,-0.0001373311,2,1
3.818565e-05,-0.0001290658,2,1
0.0001433661,-0.0001214487,2,1
0.000235095,-0.0001120489,2,1
0.0002863077,-9.908367e-05,2,1
0.0002851732,-8.303922e-05,2,1
0.0002469258,-6.521203e-05,2,1
0.0002025199,-4.155049e-05,2,1
0.0001795066,-9.947754e-06,2,1
0.0001945787,2.635488e-05,2,1
0.0002517878,5.909208e-05,2,1
0.0003427064,7.999851e-05,2,1
0.000440756,8.242948e-05,2,1
0.0005182233,6.168512e-05,2,1
0.0005569569,2.133085e-05,2,1
0.00055485,-2.809907e-05,2,1
0.0005255162,-7.574627e-05,2,1
0.000487917,-0.0001143178,2,1
0.0004597176,-0.0001355484,2,1
0.0004503179,-0.000134738,2,1
0.0004592314,-0.0001151281,2,1
0.0004794896,-8.82253e-05,2,1
0.0005042856,-6.537409e-05,2,1
0.0005305402,-4.981582e-05,2,1
0.0005554983,-3.198864e-05,2,1
0.000579484,-4.275467e-06,2,1
0.0006024973,3.640293e-05,2,1
0.0006230795,8.534666e-05,2,1
0.000636531,0.000135749,2,1
0.0006341,0.0001822617,2,1
0.0006078454,0.0002208333,2,1
0.0005533914,0.0002487085,2,1
0.000470576,0.000264753,2,1
0.0003619922,0.0002718839,2,1
0.0002381743,0.0002738286,2,1
0.0001145184,0.0002731804,2,1
9.66215e-06,0.0002709115,2,1
-6.326724e-05,0.0002692908,2,1
-0.0001037836,0.0002665357,2,1
-0.0001224211,0.0002582704,2,1
-0.0001383035,0.0002391467,2,1
-0.0001658546,0.0002112714,2,1
-0.0002102605,0.0001816135,2,1
-0.0002635799,0.0001568175,2,1
-0.0003079858,0.0001389903,2,1
-0.0003313232,0.0001292664,2,1
-0.0003350507,0.0001213252,2,1
-0.0003224097,0.0001119254,2,1
-0.0003024756,9.960841e-05,2,1
-0.0002849726,8.453633e-05,2,1
-0.0002780038,6.881599e-05,2,1
-0.0002755728,5.212327e-05,2,1
-0.000273628,3.040651e-05,2,1
-0.0002718453,2.855407e-06,2,1
-0.0002742763,-2.566809e-05,2,1
-0.0002857829,-5.22468e-05,2,1
-0.0003053928,-7.347736e-05,2,1
-0.0003233821,-8.563225e-05,2,1
-0.0003275957,-8.628052e-05,2,1
-0.0003138202,-7.60704e-05,2,1
-0.0002930758,-5.69467e-05,2,1
-0.0002781658,-3.766092e-05,2,1
-0.0002823795,-2.550602e-05,2,1
-0.000310903,-2.080613e-05,2,1
-0.0003522297,-1.805102e-05,2,1
-0.0003854531,-1.286493e-05,2,1
-0.000377836,6.90704e-06,2,1
-0.0002997205,5.19612e-05,2,1
-0.0001342519,0.0001185701,2,1
0.0001216493,0.0001916615,2,1
0.0004519385,0.0002529222,2,1
0.0008254994,0.00029198,2,1
0.00119744,0.0003080245,2,1
0.001517357,0.0003101313,2,1
0.001739063,0.0003039728,2,1
0.00183533,0.0002856594,2,1
0.001806969,0.0002475741,2,1
0.00167845,0.000187934,2,1
0.001484134,0.0001141943,2,1
0.001252056,4.175109e-05,2,1
0.0009942095,-2.194059e-05,2,1
0.000718374,-7.995997e-05,2,1
0.0004405939,-0.0001392759,2,1
0.0001820997,-0.0001979435,2,1
-3.847125e-05,-0.0002481838,2,1
-0.0002050744,-0.0002817312,2,1
-0.0003105789,-0.0003013411,2,1
-0.0003611433,-0.0003173856,2,1
-0.0003724878,-0.0003376438,2,1
-0.0003674638,-0.0003651949,2,1
-0.0003671397,-0.0003997148,2,1
-0.0003822118,-0.0004425001,2,1
-0.0004130042,-0.0004953333,2,1
-0.0004561135,-0.0005583767,2,1
-0.0005032745,-0.0006183409,2,1
-0.0005480045,-0.0006622606,2,1
-0.0005847933,-0.0006847876,2,1
-0.0006071584,-0.0006868945,2,1
-0.0006048895,-0.0006740913,2,1
-0.0005630766,-0.0006492953,2,1
-0.0004719959,-0.0006142893,2,1
-0.0003389403,-0.0005630766,2,1
-0.0001835197,-0.0004922541,2,1
-3.182657e-05,-0.0004023079,2,1
9.733949e-05,-0.0002971275,2,1
0.000200413,-0.0001885437,2,1
0.00027707,-9.616651e-05,2,1
0.0003239069,-3.604027e-05,2,1
0.000331848,-7.030578e-06,2,1
0.0003000832,1.047248e-05,2,1
0.0002407673,3.494434e-05,2,1
0.0001762653,7.270556e-05,2,1
0.0001222976,0.0001211631,2,1
8.275361e-05,0.0001743205,2,1
5.19612e-05,0.00022764,2,1
1.54965e-05,0.0002814457,2,1
-3.63644e-05,0.0003358997,2,1
-0.0001058904,0.0003893813,2,1
-0.000179306,0.0004380009,2,1
-0.0002421874,0.0004788414,2,1
-0.0002906449,0.0005086614,2,1
-0.0003254889,0.0005282713,2,1
-0.0003475298,0.0005396159,2,1
-0.0003595226,0.0005444778,2,1
-0.0003626019,0.0005430193,2,1
-0.0003593606,0.0005342677,2,1
-0.0003535262,0.0005203301,2,1
-0.000348016,0.0005055821,2,1
-0.0003452609,0.0004942376,2,1
-0.0003447747,0.0004812723,2,1
-0.0003425058,0.0004574487,2,1
-0.0003334301,0.0004174185,2,1
-0.0003188442,0.0003608578,2,1
-0.0003015032,0.0002931144,2,1
-0.000283514,0.0002247229,2,1
-0.0002673075,0.0001689724,2,1
-0.0002590421,0.0001375317,2,1
-0.0002616352,0.0001316974,2,1
-0.0002694143,0.0001467694,2,1
-0.0002718453,0.0001686482,2,1
-0.0002663351,0.0001850168,2,1
-0.0002572594,0.0001895547,2,1
-0.0002468872,0.0001812893,2,1
-0.0002327876,0.0001613553,2,1
-0.000209126,0.0001355869,2,1
-0.0001712027,0.0001103047,2,1
-0.000127283,8.972242e-05,2,1
-9.454585e-05,7.319176e-05,2,1
-8.417367e-05,5.52025e-05,2,1
-9.892161e-05,2.992031e-05,2,1
-0.0001302002,-2.978945e-06,2,1
-0.0001673132,-4.252288e-05,2,1
-0.0002018331,-8.060823e-05,2,1
-0.0002308428,-0.0001125351,2,1
-0.0002522354,-0.0001339277,2,1
-0.0002574215,-0.0001459206,2,1
-0.0002436459,-0.0001559686,2,1
-0.0002175534,-0.0001673132,2,1
-0.0001908126,-0.0001799543,2,1
-0.000176713,-0.0001900023,2,1
-0.0001849783,-0.0001925954,2,1
-0.0002149604,-0.0001921092,2,1
-0.0002532078,-0.0001937298,2,1
-0.0002833519,-0.0001948643,2,1
-0.0002963172,-0.0001940539,2,1
-0.0002865932,-0.0001914609,2,1
-0.0002485079,-0.0001872472,2,1
-0.0001712027,-0.000181737,2,1
-5.613637e-05,-0.000174444,2,1
7.157111e-05,-0.000166989,2,1
0.00018291,-0.0001606685,2,1
0.0002501671,-0.0001532135,2,1
0.0002619979,-0.0001413827,2,1
0.0002260194,-0.0001280934,2,1
0.0001710792,-0.0001149661,2,1
0.000128456,-0.0001024871,2,1
0.000110953,-8.838737e-05,2,1
0.0001187321,-7.282909e-05,2,1
0.0001504969,-5.2733e-05,2,1
0.000200251,-2.404744e-05,2,1
0.0002607014,9.66215e-06,2,1
0.0003344411,4.272347e-05,2,1
0.0004174185,6.978839e-05,2,1
0.0004979651,8.761557e-05,2,1
0.00055955,9.490851e-05,2,1
0.0005947181,9.458438e-05,2,1
0.0006039558,9.037068e-05,2,1
0.0005924492,8.939829e-05,2,1
0.00057446,9.426025e-05,2,1
0.0005679773,9.977047e-05,2,1
0.0005786736,9.831188e-05,2,1
0.0006012007,8.988449e-05,2,1
0.0006243761,7.789165e-05,2,1
0.0006337758,6.800567e-05,2,1
0.0006208107,6.184718e-05,2,1
0.0005849942,6.444023e-05,2,1
0.0005287575,7.643307e-05,2,1
0.0004546936,9.377406e-05,2,1
0.0003681507,0.0001094944,2,1
0.0002842008,0.0001172735,2,1
0.0002154851,0.0001154908,2,1
0.0001718896,0.0001104668,2,1
0.000155521,0.0001038221,2,1
0.0001624898,9.652917e-05,2,1
0.0001838824,8.567078e-05,2,1
0.000207706,7.367795e-05,2,1
0.0002282883,6.444023e-05,2,1
0.0002386605,5.94162e-05,2,1
0.0002303951,6.087479e-05,2,1
0.0001976579,6.670914e-05,2,1
0.0001448246,7.384002e-05,2,1
8.210535e-05,7.789165e-05,2,1
1.954813e-05,7.497447e-05,2,1
-3.604027e-05,6.265751e-05,2,1
-7.704279e-05,3.964424e-05,2,1
-0.0001002181,1.12828e-05,2,1
-0.0001107524,-1.367526e-05,2,1
-0.0001178833,-3.069211e-05,2,1
-0.0001279313,-4.203669e-05,2,1
-0.0001357104,-5.419158e-05,2,1
-0.0001313347,-7.007399e-05,2,1
-0.000112211,-8.903562e-05,2,1
-8.82253e-05,-0.0001112386,2,1
-7.363943e-05,-0.000137007,2,1
-8.433573e-05,-0.0001665028,2,1
-0.0001216107,-0.0001930815,2,1
-0.0001776853,-0.0002086398,2,1
-0.0002410529,-0.0002083157,2,1
-0.0002972895,-0.0002003745,2,1
-0.0003342404,-0.0001974573,2,1
-0.0003402368,-0.0002050744,2,1
-0.0003130099,-0.0002209568,2,1
-0.0002640662,-0.0002350565,2,1
-0.0002147983,-0.0002394322,2,1
-0.0001830335,-0.0002358668,2,1
-0.0001812508,-0.0002263049,2,1
-0.000213988,-0.0002100984,2,1
-0.0002707109,-0.0001903264,2,1
-0.0003358611,-0.0001708786,2,1
-0.0003906392,-0.0001546721,2,1
-0.0004183523,-0.0001405724,2,1
-0.0004092767,-0.0001266348,2,1
-0.0003676259,-0.0001130213,2,1
-0.0003117133,-9.892161e-05,2,1
-0.0002624455,-8.417367e-05,2,1
-0.0002332737,-6.796714e-05,2,1
-0.0002272773,-5.2733e-05,2,1
-0.0002352185,-4.041603e-05,2,1
-0.0002444563,-3.279896e-05,2,1
-0.0002452666,-2.777494e-05,2,1
-0.0002324634,-2.372331e-05,2,1
-0.0002044261,-1.967167e-05,2,1
-0.000166989,-1.367526e-05,2,1
-0.0001269589,-5.247859e-06,2,1
-8.82253e-05,5.124321e-06,2,1
-5.64605e-05,1.97102e-05,2,1
-3.555408e-05,3.93201e-05,2,1
-2.680255e-05,6.444023e-05,2,1
-2.696461e-05,9.247754e-05,2,1
-3.150244e-05,0.000120839,2,1
-3.539201e-05,0.0001480659,2,1
-3.344723e-05,0.000170431,2,1
-2.615429e-05,0.00018291,2,1
-2.064406e-05,0.0001817755,2,1
-2.275091e-05,0.000170431,2,1
-3.393342e-05,0.0001561692,2,1
-5.095028e-05,0.0001446626,2,1
-7.461182e-05,0.00013818,2,1
-0.0001092938,0.0001363972,2,1
-0.0001548341,0.0001376938,2,1
-0.0002057227,0.0001370455,2,1
-0.0002517492,0.000130725,2,1
-0.0002867553,0.0001188942,2,1
-0.0003117133,0.0001047945,2,1
-0.0003287302,9.604298e-05,2,1
-0.0003369955,9.442231e-05,2,1
-0.00033813,9.68533e-05,2,1
-0.0003329439,0.0001020394,2,1
-0.0003250027,0.0001070634,2,1
-0.0003188442,0.0001116012,2,1
-0.0003074997,0.000115977,2,1
-0.0002656868,0.0001224596,2,1
-0.0001574272,0.0001331559,2,1
3.769945e-05,0.0001462832,2,1
0.0003026763,0.0001589243,2,1
0.0005849942,0.0001696206,2,1
0.0008287407,0.0001775618,2,1
0.001004582,0.0001814514,2,1
0.001113328,0.0001782101,2,1
0.001175399,0.000168162,2,1
0.001224018,0.0001521176,2,1
0.001278797,0.0001363972,2,1
0.001336816,0.0001240803,2,1
0.001376846,0.0001146805,2,1
0.00136615,0.0001090082,2,1
0.001272962,0.0001022015,2,1
0.001086749,9.361199e-05,2,1
0.0008217718,8.323981e-05,2,1
0.0005164405,7.140904e-05,2,1
0.0002162954,5.471631e-05,2,1
-3.911951e-05,3.429608e-05,2,1
-0.0002319772,1.274139e-05,2,1
-0.0003614674,-7.678839e-06,2,1
-0.0004416897,-2.485776e-05,2,1
-0.0004864197,-3.976777e-05,2,1
-0.0005011677,-5.159854e-05,2,1
-0.0004893369,-6.245691e-05,2,1
-0.0004630823,-7.947377e-05,2,1
-0.0004413656,-9.989401e-05,2,1
-0.0004280762,-0.0001206384,2,1
-0.0004115456,-0.0001353863,2,1
-0.0003684362,-0.0001413827,2,1
-0.0002771934,-0.0001383035,2,1
-0.0001332795,-0.0001298761,2,1
4.693717e-05,-0.0001235555,2,1
0.0002234263,-0.0001256624,2,1
0.0003571303,-0.0001360346,2,1
0.0004190393,-0.0001499722,2,1
0.000406074,-0.0001611547,2,1
0.0003252034,-0.0001616409,2,1
0.0001974959,-0.0001468929,2,1
4.953022e-05,-0.0001208004,2,1
-9.324933e-05,-9.049421e-05,2,1
-0.000204102,-6.39155e-05,2,1
-0.0002619593,-4.268495e-05,2,1
-0.0002630937,-2.404744e-05,2,1
-0.0002175534,-4.275467e-06,2,1
-0.0001528894,1.679302e-05,2,1
-9.568031e-05,3.60788e-05,2,1
-6.035007e-05,5.034055e-05,2,1
-4.868137e-05,5.666109e-05,2,1
-4.754691e-05,5.163707e-05,2,1
-3.944364e-05,3.364782e-05,2,1
-9.137427e-06,5.448452e-06,2,1
4.628891e-05,-2.518189e-05,2,1
0.000113546,-5.2733e-05,2,1
0.0001676758,-6.958779e-05,2,1
0.0001845306,-7.477388e-05,2,1
0.0001529279,-6.48879e-05,2,1
7.853991e-05,-4.284701e-05,2,1
-2.307504e-05,-1.092015e-05,2,1
-0.0001290658,2.927205e-05,2,1
-0.0002183637,7.157111e-05,2,1
-0.0002849726,0.0001065772,2,1
-0.0003366714,0.0001286181,2,1
-0.000387884,0.0001389903,2,1
-0.0004429862,0.0001445005,2,1
-0.0004938748,0.0001501728,2,1
-0.0005301774,0.0001545486,2,1
-0.0005505976,0.0001564933,2,1
-0.0005569181,0.0001543865,2,1
-0.0005470322,0.0001470936,2,1
-0.000511864,0.0001401247,2,1
-0.0004369898,0.0001360731,2,1
-0.0003151167,0.0001375317,2,1
-0.0001642339,0.0001427178,2,1
-1.432352e-05,0.000145797,2,1
0.0001146805,0.0001454729,2,1
0.0002245608,0.000145635,2,1
0.0003226103,0.0001493625,2,1
0.0004104497,0.0001526038,2,1
0.0004814344,0.0001535762,2,1
0.000522599,0.0001480659,2,1
0.0005230852,0.0001370455,2,1
0.0004793275,0.0001257009,2,1
0.0003973225,0.0001180839,2,1
0.000297004,0.0001150046,2,1
0.0001997648,0.0001106288,2,1
0.0001206769,0.0001041462,2,1
6.379197e-05,9.458438e-05,2,1
2.214118e-05,8.388807e-05,2,1
-1.3027e-05,7.076078e-05,2,1
-4.527799e-05,5.325772e-05,2,1
-7.623246e-05,2.846173e-05,2,1
-0.0001068628,-5.409925e-06,2,1
-0.0001417068,-4.462973e-05,2,1
-0.0001836818,-8.547019e-05,2,1
-0.000231491,-0.0001250141,2,1
-0.0002851347,-0.0001652063,2,1
-0.0003399127,-0.0002112329,2,1
-0.0003848048,-0.0002622834,2,1
-0.000415111,-0.0003079858,2,1
-0.0004334244,-0.0003441264,2,1
-0.000447362,-0.0003682741,2,1
-0.0004694029,-0.0003817256,2,1
-0.0005055434,-0.0003818876,2,1
-0.0005470322,-0.000365519,2,1
-0.0005716661,-0.0003301888,2,1
-0.0005536768,-0.0002789762,2,1
-0.0004716718,-0.0002183637,2,1
-0.0003190063,-0.0001553203,2,1
-0.000119828,-9.940781e-05,2,1
8.680524e-05,-6.229485e-05,2,1
0.0002611876,-5.159854e-05,2,1
0.0003775505,-6.407757e-05,2,1
0.0004256839,-9.000802e-05,2,1
0.0004132049,-0.0001143178,2,1
0.0003587509,-0.0001219349,2,1
0.0002842008,-0.0001034594,2,1
0.0002086784,-6.06742e-05,2,1
0.0001419075,-6.382317e-06,2,1
8.729144e-05,4.45062e-05,2,1
3.93201e-05,7.756752e-05,2,1
-1.043395e-05,8.680524e-05,2,1
-6.148453e-05,7.497447e-05,2,1
-0.0001120489,5.601284e-05,2,1
-0.0001574272,4.223728e-05,2,1
-0.000189192,4.142696e-05,2,1
-0.0002011848,5.439218e-05,2,1
-0.0001901644,7.643307e-05,2,1
-0.0001579134,9.523264e-05,2,1
-0.0001086455,9.588091e-05,2,1
-5.127441e-05,6.978839e-05,2,1
1.558884e-06,2.408596e-05,2,1
4.175109e-05,-2.46957e-05,2,1
7.432621e-05,-5.629844e-05,2,1
0.0001033359,-6.229485e-05,2,1
0.0001271595,-4.414354e-05,2,1
0.0001423936,-1.367526e-05,2,1
0.0001446626,1.841368e-05,2,1
0.0001318594,4.531652e-05,2,1
0.0001091703,6.444023e-05,2,1
8.42122e-05,8.113296e-05,2,1
7.043665e-05,9.993253e-05,2,1
8.016057e-05,0.0001167873,2,1
0.000115977,0.0001269974,2,1
0.0001633001,0.0001291043,2,1
0.0002000889,0.0001247285,2,1
0.0002046267,0.0001177597,2,1
0.0001684862,0.0001192183,2,1
9.53947e-05,0.0001446626,2,1
-3.627206e-06,0.0001973338,2,1
-0.0001096179,0.0002632944,2,1
-0.0002018331,0.0003162898,2,1
-0.0002666592,0.0003376824,2,1
-0.000298424,0.0003227724,2,1
-0.000300855,0.0002793389,2,1
-0.0002843243,0.0002184023,2,1
-0.0002614731,0.0001459591,2,1
-0.0002405667,7.270556e-05,2,1
-0.0002207947,2.207145e-06,2,1
-0.0001977815,-6.423963e-05,2,1
-0.0001660166,-0.0001282554,2,1
-0.0001235555,-0.0001828714,2,1
-7.33153e-05,-0.0002169052,2,1
-2.226472e-05,-0.0002206326,2,1
3.202716e-05,-0.0001937298,2,1
0.0001000946,-0.0001439758,2,1
0.0001869616,-8.676672e-05,2,1
0.0002942489,-3.441962e-05,2,1
0.0004190393,8.689758e-06,2,1
0.0005504743,4.645098e-05,2,1
0.0006697544,8.097089e-05,2,1
0.0007626179,0.0001072255,2,1
0.0008180443,0.0001154908,2,1
0.0008305234,9.831188e-05,2,1
0.0007994067,5.536457e-05,2,1
0.0007353909,1.558884e-06,2,1
0.0006639201,-4.884343e-05,2,1
0.0006128695,-8.709085e-05,2,1
0.000601849,-0.0001136696,2,1
0.0006368551,-0.000137169,2,1
0.0007070294,-0.0001661787,2,1
0.0007961654,-0.0002002124,2,1
0.0008820602,-0.0002352185,2,1
0.0009395934,-0.0002616352,2,1
0.0009392693,-0.0002703867,2,1
0.000859371,-0.0002592042,2,1
0.000695847,-0.0002334358,2,1
0.0004684692,-0.0002023193,2,1
0.0002154851,-0.0001783336,2,1
-2.09682e-05,-0.0001703924,2,1
-0.000219012,-0.000174282,2,1
-0.0003822118,-0.0001812508,2,1
-0.0005256396,-0.0001814128,2,1
-0.0006556159,-0.0001707166,2,1
-0.0007658203,-0.0001480274,2,1
-0.0008413427,-0.0001159385,2,1
-0.0008687317,-7.866345e-05,2,1
-0.0008434496,-4.009191e-05,2,1
-0.0007758683,-2.238346e-07,2,1
-0.0006865704,3.915804e-05,2,1
-0.0005928966,7.691926e-05,2,1
-0.0005089468,0.0001153287,2,1
-0.0004426621,0.0001526038,2,1
-0.0003966356,0.0001837203,2,1
-0.0003663294,0.0002078681,2,1
-0.0003378059,0.0002273159,2,1
-0.0002882139,0.000235095,2,1
-0.0001947022,0.0002179161,2,1
-4.187462e-05,0.0001764274,2,1
0.0001645966,0.0001260251,2,1
0.0003968363,9.523264e-05,2,1
0.0006196762,9.68533e-05,2,1
0.0008013516,0.0001292664,2,1
0.0009185249,0.0001825859,2,1
0.0009622826,0.0002428742,2,1
0.0009352177,0.000297004,2,1
0.0008425161,0.0003329825,2,1
0.0006955228,0.000344165,2,1
0.0005166026,0.0003311998,2,1
0.0003328204,0.0003038107,2,1
0.000158114,0.0002741528,2,1
-5.89612e-06,0.0002530843,2,1
-0.0001577513,0.0002464396,2,1
-0.000290969,0.0002509774,2,1
-0.0003958252,0.000257298,2,1
-0.0004651892,0.0002521119,2,1
-0.0005003574,0.0002237505,2,1
-0.0005113778,0.0001722137,2,1
-0.000512026,0.0001051186,2,1
-0.0005139708,3.348575e-05,2,1
-0.0005209396,-3.134038e-05,2,1
-0.000526774,-8.125649e-05,2,1
-0.0005219121,-0.0001088076,2,1
-0.0005066779,-0.0001118868,2,1
-0.0004877163,-8.919769e-05,2,1
-0.0004750752,-4.576419e-05,2,1
-0.0004752372,6.90704e-06,2,1
-0.0004839888,5.115087e-05,2,1
-0.0004914437,7.52986e-05,2,1
-0.00048723,8.323981e-05,2,1
-0.0004728062,8.923623e-05,2,1
-0.0004591928,0.0001020394,2,1
-0.0004536825,0.0001221355,2,1
-0.0004559515,0.0001380179,2,1
-0.00046211,0.0001402868,2,1
-0.0004634065,0.0001289422,2,1
-0.0004507654,0.0001116012,2,1
-0.000419973,9.717743e-05,2,1
-0.0003771877,8.907416e-05,2,1
-0.0003311612,9.037068e-05,2,1
-0.000290969,0.0001004187,2,1
-0.0002609869,0.0001114392,2,1
-0.0002423494,0.0001166253,2,1
-0.0002318152,0.000115977,2,1
-0.0002267911,0.0001106288,2,1
-0.000228898,0.0001005808,2,1
-0.0002428356,9.069481e-05,2,1
-0.0002728177,7.999851e-05,2,1
-0.0003185201,7.20573e-05,2,1
-0.000370543,6.557468e-05,2,1
-0.0004138145,5.601284e-05,2,1
-0.0004316416,3.526847e-05,2,1
-0.0004121938,3.017472e-06,2,1
-0.0003548227,-3.766092e-05,2,1
-0.0002630937,-7.833932e-05,2,1
-0.000147055,-0.0001114006,2,1
-1.594417e-05,-0.0001332795,2,1
0.0001278078,-0.0001447861,2,1
0.0002767458,-0.0001472171,2,1
0.0004211461,-0.0001442999,2,1
0.0005446399,-0.0001431655,2,1
0.0006306967,-0.0001506204,2,1
0.0006665131,-0.0001677994,2,1
0.000656465,-0.0001906506,2,1
0.0006256726,-0.0002160948,2,1
0.0006059006,-0.0002378116,2,1
0.0006047662,-0.0002540181,2,1
0.0006024973,-0.0002676316,2,1
0.0005619809,-0.0002788141,2,1
0.0004634451,-0.0002840002,2,1
0.0003141829,-0.0002822175,2,1
0.0001451488,-0.0002781658,2,1
-6.382317e-06,-0.0002765452,2,1
-0.0001110765,-0.0002802727,2,1
-0.000151917,-0.0002916173,2,1
-0.0001326312,-0.0003113892,2,1
-7.963584e-05,-0.0003348887,2,1
-2.923353e-05,-0.0003574158,2,1
-1.010982e-05,-0.0003775118,2,1
-3.441962e-05,-0.0003919357,2,1
-9.29252e-05,-0.0003940425,2,1
-0.0001682856,-0.000377836,2,1
-0.0002382978,-0.000345585,2,1
-0.0002880518,-0.0003029619,2,1
-0.0003134961,-0.0002551526,2,1
-0.0003233821,-0.0002057227,2,1
-0.0003254889,-0.0001535376,2,1
-0.0003159271,-9.908367e-05,2,1
-0.0002836761,-4.252288e-05,2,1
-0.0002196603,1.582063e-05,2,1
-0.0001285796,7.157111e-05,2,1
-1.756482e-05,0.000121001,2,1
0.0001122495,0.0001558451,2,1
0.0002783665,0.0001764274,2,1
0.0005093097,0.0001876099,2,1
0.0008225822,0.0001965235,2,1
0.001191119,0.0002106232,2,1
0.001548474,0.0002359054,2,1
0.00182512,0.0002696149,2,1
0.001979731,0.0003046211,2,1
0.001994965,0.0003349273,2,1
0.001877954,0.0003556717,2,1
0.001653006,0.0003645853,2,1
0.001360802,0.0003595612,2,1
0.001054822,0.0003414099,2,1
0.0007843347,0.000314345,2,1
0.0005811046,0.0002854973,2,1
0.0004616624,0.0002613496,2,1
0.000418391,0.0002444948,2,1
0.0004311941,0.0002380122,2,1
0.0004733311,0.0002409294,2,1
0.0005136854,0.0002485465,2,1
0.0005242196,0.0002551911,2,1
0.0004901859,0.000257298,2,1
0.0004055878,0.0002538946,2,1
0.0002793389,0.0002444948,2,1
0.0001242423,0.0002295848,2,1
-4.544006e-05,0.0002093267,2,1
-0.0002162569,0.0001808031,2,1
-0.0003700569,0.0001443384,2,1
-0.0004899852,9.831188e-05,2,1
-0.0005687489,4.72613e-05,2,1
-0.0006084549,-4.761664e-06,2,1
-0.0006249856,-5.500191e-05,2,1
-0.0006413542,-0.0001000561,2,1
-0.0006763602,-0.0001365208,2,1
-0.0007308142,-0.0001656925,2,1
-0.0007894818,-0.0001878955,2,1
-0.000836967,-0.0002034537,2,1
-0.0008680834,-0.0002136638,2,1
-0.0008876934,-0.0002199844,2,1
-0.0009084377,-0.0002263049,2,1
-0.0009332337,-0.0002357047,2,1
-0.0009508989,-0.0002455907,2,1
-0.0009429576,-0.0002480217,2,1
-0.0008990379,-0.0002355427,2,1
-0.0008338877,-0.0002053985,2,1
-0.0007701961,-0.0001645581,2,1
-0.0007248178,-0.000122259,2,1
-0.0007032631,-8.595638e-05,2,1
-0.0006992114,-5.64605e-05,2,1
-0.0007065044,-3.539201e-05,2,1
-0.0007248178,-2.258885e-05,2,1
-0.0007554481,-1.821308e-05,2,1
-0.0007901301,-1.691656e-05,2,1
-0.0008103882,-1.3027e-05,2,1
-0.0008011505,-3.627206e-06,2,1
-0.000757555,1.031041e-05,2,1
-0.000685436,2.424803e-05,2,1
-0.0005993792,2.910999e-05,2,1
-0.0005157535,1.954813e-05,2,1
-0.0004493068,-1.682422e-06,2,1
-0.0004013355,-2.696461e-05,2,1
-0.0003543365,-5.127441e-05,2,1
-0.0002929138,-7.137051e-05,2,1
-0.0002088019,-8.352541e-05,2,1
-0.0001156143,-8.628052e-05,2,1
-2.955766e-05,-8.02841e-05,2,1
3.818565e-05,-6.942573e-05,2,1
8.79397e-05,-5.629844e-05,2,1
0.0001328318,-4.252288e-05,2,1
0.0001926339,-2.923353e-05,2,1
0.0002827423,-1.610624e-05,2,1
0.0003982949,-3.14101e-06,2,1
0.0005182233,8.527692e-06,2,1
0.0006154625,1.744129e-05,2,1
0.0006697544,2.100672e-05,2,1
0.000676237,1.954813e-05,2,1
0.0006459308,1.565857e-05,2,1
0.0005892079,1.484824e-05,2,1
0.0005120648,2.181705e-05,2,1
0.000426008,3.915804e-05,2,1
0.0003511338,6.395404e-05,2,1
0.0003124002,9.182927e-05,2,1
0.0003303894,0.000118408,2,1
0.0004089912,0.0001404489,2,1
0.0005311884,0.0001574657,2,1
0.0006689441,0.0001686482,2,1
0.0007836864,0.0001801549,2,1
0.0008358715,0.0001958752,2,1
0.00080751,0.0002162954,2,1
0.0007114052,0.000237526,2,1
0.0005862907,0.0002543808,2,1
0.000470576,0.0002637806,2,1
0.0003827366,0.0002662116,2,1
0.0003159656,0.0002644289,2,1
0.0002550291,0.0002605393,2,1
0.0001864754,0.0002537325,2,1
0.0001039842,0.0002409294,2,1
1.565857e-05,0.0002213195,2,1
-5.872941e-05,0.0001999268,2,1
-9.875954e-05,0.0001863134,2,1
-9.794922e-05,0.0001856651,2,1
-6.521203e-05,0.000200413,2,1
-1.62683e-05,0.0002282883,2,1
2.894792e-05,0.0002590807,2,1
5.325772e-05,0.000284525,2,1
4.77475e-05,0.0002976523,2,1
8.203562e-06,0.0002961937,2,1
-6.099833e-05,0.0002809595,2,1
-0.0001441378,0.000252274,2,1
-0.0002233878,0.0002104611,2,1
-0.0002862691,0.0001579519,2,1
-0.0003228959,0.0001005808,2,1
-0.0003290543,4.466826e-05,2,1
-0.0003065273,-1.156841e-05,2,1
-0.0002619593,-7.817725e-05,2,1
-0.0002075054,-0.0001642339,2,1
-0.0001603444,-0.0002689281,2,1
-0.0001331174,-0.0003801049,2,1
-0.0001298761,-0.0004856094,2,1
-0.000147055,-0.0005762039,2,1
-0.0001749302,-0.0006496195,2,1
-0.0002053985,-0.0007022907,2,1
-0.0002368392,-0.0007317866,2,1
-0.0002666592,-0.0007325969,2,1
-0.0002890242,-0.0007016424,2,1
-0.0002993964,-0.0006373025,2,1
-0.0002950206,-0.0005397392,2,1
-0.0002749245,-0.0004180282,2,1
-0.0002423494,-0.0002883759,2,1
-0.0002062088,-0.0001689338,2,1
-0.0001791439,-7.282909e-05,2,1
-0.0001671511,-5.247859e-06,2,1
-0.0001583996,3.510641e-05,2,1
-0.0001336036,5.423012e-05,2,1
-8.222889e-05,6.184718e-05,2,1
-9.461558e-06,6.152305e-05,2,1
6.492643e-05,5.536457e-05,2,1
0.0001119254,4.175109e-05,2,1
0.000113546,2.554455e-05,2,1
7.367795e-05,1.306552e-05,2,1
1.160693e-05,9.66215e-06,2,1
-4.754691e-05,1.825161e-05,2,1
-7.898758e-05,3.656499e-05,2,1
-7.169464e-05,5.730935e-05,2,1
-2.177852e-05,7.30297e-05,2,1
6.314371e-05,8.534666e-05,2,1
0.0001624898,9.507057e-05,2,1
0.000244981,0.0001038221,2,1
0.0002838767,0.0001067393,2,1
0.0002756114,9.863601e-05,2,1
0.000249843,8.259155e-05,2,1
0.000242388,6.622294e-05,2,1
0.000269777,5.487838e-05,2,1
0.0003324963,5.082674e-05,2,1
0.0004200116,5.115087e-05,2,1
0.0005115786,5.244739e-05,2,1
0.0005864528,5.034055e-05,2,1
0.0006300483,4.628891e-05,2,1
0.0006366931,4.110282e-05,2,1
0.0006070351,3.883391e-05,2,1
0.0005460985,4.385793e-05,2,1
0.0004678209,5.682316e-05,2,1
0.0003867882,7.400208e-05,2,1
0.000307052,8.631905e-05,2,1
0.0002269918,9.085688e-05,2,1
0.0001500107,9.118101e-05,2,1
8.518459e-05,9.328786e-05,2,1
4.742337e-05,9.912221e-05,2,1
4.661304e-05,0.0001091703,2,1
8.210535e-05,0.0001240803,2,1
0.000143204,0.000140773,2,1
0.0002094887,0.0001569795,2,1
0.0002636185,0.0001725378,2,1
0.00029198,0.0001895547,2,1
0.0002882525,0.0002081922,2,1
0.0002517878,0.0002248849,2,1
0.0001944166,0.0002352571,2,1
0.0001334801,0.000235095,2,1
8.161915e-05,0.0002243987,2,1
4.612685e-05,0.0002046267,2,1
4.02925e-05,0.0001830721,2,1
8.46984e-05,0.0001718896,2,1
0.0001876099,0.0001814514,2,1
0.0003277964,0.0002135403,2,1
0.0004563143,0.0002571359,2,1
0.0005161164,0.0002987867,2,1
0.0004743035,0.0003279585,2,1
0.0003287688,0.0003370341,2,1
0.0001056048,0.0003234207,2,1
-0.0001467309,0.0002929524,2,1
-0.0003750809,0.000252274,2,1
-0.0005452494,0.0002090025,2,1
-0.000643461,0.0001644345,2,1
-0.0006737672,0.0001203528,2,1
-0.0006546435,7.853991e-05,2,1
-0.0006150996,3.543054e-05,2,1
-0.0005812279,-1.189254e-05,2,1
-0.0005698834,-6.310517e-05,2,1
-0.0005852795,-0.0001120489,2,1
-0.0006196374,-0.0001501342,2,1
-0.0006591813,-0.0001712027,2,1
-0.0006922426,-0.0001757406,2,1
-0.0007157421,-0.0001784957,2,1
-0.0007325969,-0.0001921092,2,1
-0.0007437794,-0.0002217671,2,1
-0.0007416725,-0.0002600145,2,1
-0.0007159042,-0.0002925897,2,1
-0.0006638812,-0.0003068514,2,1
-0.0005891691,-0.0003027998,2,1
-0.0005021401,-0.0002882139,2,1
-0.0004094387,-0.0002716832,2,1
-0.0003141443,-0.0002533699,2,1
-0.000224036,-0.0002311669,2,1
-0.000152079,-0.0002005366,2,1
-0.000107349,-0.0001621271,2,1
-8.741498e-05,-0.0001232314,2,1
-8.44978e-05,-8.903562e-05,2,1
-9.098041e-05,-6.245691e-05,2,1
-9.730096e-05,-4.689865e-05,2,1
-9.454585e-05,-3.879538e-05,2,1
-8.773911e-05,-3.198864e-05,2,1
-9.373552e-05,-2.388537e-05,2,1
-0.0001274451,-1.189254e-05,2,1
-0.0001912988,3.341602e-06,2,1
-0.0002721694,2.295151e-05,2,1
-0.0003433161,4.645098e-05,2,1
-0.0003747568,6.800567e-05,2,1
-0.0003517435,7.967438e-05,2,1
-0.0002865932,7.546067e-05,2,1
-0.0002096122,5.471631e-05,2,1
-0.000149486,2.116879e-05,2,1
-0.0001267968,-2.226472e-05,2,1
-0.0001413827,-7.55842e-05,2,1
-0.0001716889,-0.0001396,2,1
-0.0001831956,-0.0002130156,2,1
-0.0001480274,-0.0002899966,2,1
-5.402952e-05,-0.0003614674,2,1
9.750156e-05,-0.0004152731,2,1
0.0002892249,-0.0004397449,2,1
0.0004931031,-0.0004288866,2,1
0.0006726716,-0.0003872358,2,1
0.0007922759,-0.00032322,2,1
0.0008284165,-0.0002533699,2,1
0.0007891966,-0.0001869231,2,1
0.0007076777,-0.0001284175,2,1
0.0006321552,-7.704279e-05,2,1
0.0005989318,-2.761287e-05,2,1
0.0006198382,3.170304e-05,2,1
0.0006827196,0.000113546,2,1
0.0007673178,0.0002159713,2,1
0.0008609917,0.0003247172,2,1
0.0009551517,0.0004179048,2,1
0.001036671,0.0004777069,2,1
0.001084318,0.0004968306,2,1
0.001078808,0.0004812723,2,1
0.001008471,0.0004415663,2,1
0.0008793051,0.0003906778,2,1
0.000710757,0.0003401134,2,1
0.0005268127,0.0002984626,2,1
0.0003443271,0.0002652392,2,1
0.0001744826,0.000234933,2,1
1.630683e-05,0.000202844,2,1
-0.0001331174,0.0001658931,2,1
-0.0002684419,0.000123432,2,1
-0.0003831841,7.740546e-05,2,1
-0.0004695649,3.60788e-05,2,1
-0.0005283947,8.689758e-06,2,1
-0.0005676145,-2.654814e-06,2,1
-0.0005975965,-2.654814e-06,2,1
-0.000623689,4.47606e-06,2,1
-0.0006437852,1.1769e-05,2,1
-0.0006512401,1.679302e-05,2,1
-0.0006518884,2.116879e-05,2,1
-0.0006536711,2.505836e-05,2,1
-0.0006599916,2.197911e-05,2,1
-0.0006677708,6.420843e-06,2,1
-0.0006672846,-1.886135e-05,2,1
-0.0006405439,-4.90055e-05,2,1
-0.0005729626,-7.898758e-05,2,1
-0.000464703,-0.0001000561,2,1
-0.0003318095,-0.0001065387,2,1
-0.0001972953,-9.713889e-05,2,1
-8.125649e-05,-7.639453e-05,2,1
3.827799e-06,-4.462973e-05,2,1
5.309566e-05,-6.058186e-06,2,1
6.573675e-05,3.283749e-05,2,1
4.742337e-05,6.152305e-05,2,1
1.290346e-05,7.756752e-05,2,1
-1.950961e-05,8.129502e-05,2,1
-2.826114e-05,7.546067e-05,2,1
3.827799e-06,5.504044e-05,2,1
7.805372e-05,2.149292e-05,2,1
0.0001837203,-1.788895e-05,2,1
0.0003004074,-5.613637e-05,2,1
0.0004021844,-8.644259e-05,2,1
0.0004702519,-0.0001067007,2,1
0.0004947237,-0.0001146419,2,1
0.0004791655,-0.0001088076,2,1
0.0004339493,-9.778715e-05,2,1
0.0003773884,-9.146661e-05,2,1
0.0003205035,-9.535618e-05,2,1
0.0002631324,-0.0001078352,2,1
0.0002007372,-0.0001238797,2,1
0.0001274836,-0.0001365208,2,1
4.466826e-05,-0.0001442999,2,1
-3.830919e-05,-0.0001423551,2,1
-0.0001065387,-0.0001243659,2,1
-0.0001489998,-9.227693e-05,2,1
-0.0001642339,-5.581224e-05,2,1
-0.0001642339,-2.339918e-05,2,1
-0.0001622891,3.179537e-06,2,1
-0.000169258,2.619281e-05,2,1
-0.0001938919,4.871989e-05,2,1
-0.0002358668,7.059871e-05,2,1
-0.0002804347,9.101894e-05,2,1
-0.0003081479,0.0001075496,2,1
-0.0002998826,0.0001182459,2,1
-0.0002473734,0.0001213252,2,1
-0.0001603444,0.0001192183,2,1
-7.072225e-05,0.0001146805,2,1
-1.497178e-05,0.0001132219,2,1
-1.529591e-05,0.0001192183,2,1
-7.023606e-05,0.0001292664,2,1
-0.0001587237,0.0001394765,2,1
-0.0002457528,0.0001493625,2,1
-0.0002972895,0.0001577899,2,1
-0.0002827037,0.0001633001,2,1
-0.0001809267,0.0001650828,2,1
5.610517e-06,0.0001611932,2,1
0.0002504913,0.0001517934,2,1
0.0005091476,0.0001414213,2,1
0.0007391184,0.000138342,2,1
0.0009058838,0.0001470936,2,1
0.0009904819,0.000163138,2,1
0.0009908061,0.0001767515,2,1
0.0009256558,0.0001770756,2,1
0.0008292268,0.0001608691,2,1
0.0007292324,0.000133318,2,1
0.0006397723,9.750156e-05,2,1
0.0005614947,6.022653e-05,2,1
0.0004906721,3.073064e-05,2,1
0.0004235771,1.209313e-05,2,1
0.0003602095,3.179537e-06,2,1
0.0003038107,-1.520357e-06,2,1
0.0002624841,-6.220252e-06,2,1
0.0002329882,-1.140634e-05,2,1
0.0002088404,-1.62683e-05,2,1
0.0001867996,-1.788895e-05,2,1
0.0001752929,-1.367526e-05,2,1
0.000180479,-4.923729e-06,2,1
0.0001973338,5.934648e-06,2,1
0.0002166196,1.306552e-05,2,1
0.0002261814,1.533444e-05,2,1
0.0002188885,1.419998e-05,2,1
0.0001958752,1.403791e-05,2,1
0.0001637863,1.906194e-05,2,1
0.0001261871,3.13789e-05,2,1
8.275361e-05,4.580272e-05,2,1
2.570662e-05,5.260946e-05,2,1
-5.532604e-05,4.45062e-05,2,1
-0.0001671511,1.857574e-05,2,1
-0.0003031239,-2.145439e-05,2,1
-0.0004455793,-6.472583e-05,2,1
-0.000573935,-9.924574e-05,2,1
-0.0006794395,-0.0001182074,2,1
-0.0007594998,-0.00012469,2,1
-0.0008129813,-0.0001306864,2,1
-0.0008449082,-0.0001442999,2,1
-0.0008614388,-0.0001652063,2,1
-0.0008650042,-0.0001865989,2,1
-0.0008552803,-0.0002053985,2,1
-0.0008298361,-0.0002217671,2,1
-0.0007886715,-0.0002382978,2,1
-0.0007325969,-0.0002545043,2,1
-0.0006666363,-0.0002723315,2,1
-0.0005932208,-0.0002904828,2,1
-0.0005238568,-0.0003055549,2,1
-0.0004739407,-0.0003172236,2,1
-0.0004557894,-0.0003266234,2,1
-0.0004728062,-0.0003344025,2,1
-0.0005154294,-0.0003363473,2,1
-0.0005609698,-0.0003324577,2,1
-0.0005822003,-0.0003274337,2,1
-0.0005625904,-0.0003246786,2,1
-0.0004976023,-0.0003211132,2,1
-0.0003969597,-0.0003078238,2,1
-0.0002809209,-0.0002789762,2,1
-0.0001736337,-0.0002347323,2,1
-9.389759e-05,-0.000176713,2,1
-5.305713e-05,-0.0001083214,2,1
-5.257093e-05,-2.826114e-05,2,1
-8.044617e-05,6.055066e-05,2,1
-0.0001161005,0.0001535762,2,1
-0.0001292278,0.0002417397,2,1
-9.794922e-05,0.0003158036,2,1
-2.534396e-05,0.0003712299,2,1
6.978839e-05,0.0004086671,2,1
0.0001684862,0.0004303838,2,1
0.0002654013,0.0004412422,2,1
0.0003809539,0.0004444835,2,1
0.0005394538,0.0004405939,2,1
0.000738146,0.0004287631,2,1
0.0009415382,0.0004075326,2,1
0.001091935,0.0003781987,2,1
0.001140717,0.0003404375,2,1
0.001072001,0.0002936006,2,1
0.0009133389,0.0002365536,2,1
0.0007169155,0.0001725378,2,1
0.0005339436,0.0001062531,2,1
0.0003869503,4.288554e-05,2,1
0.0002676702,-1.156841e-05,2,1
0.0001540623,-5.095028e-05,2,1
3.283749e-05,-7.428769e-05,2,1
-8.806324e-05,-8.255302e-05,2,1
-0.0001883817,-7.509801e-05,2,1
-0.0002491561,-5.257093e-05,2,1
-0.0002590421,-2.113026e-05,2,1
-0.0002258187,1.419998e-05,2,1
-0.0001681235,4.888196e-05,2,1
-0.0001058904,7.821578e-05,2,1
-5.402952e-05,9.863601e-05,2,1
-2.339918e-05,0.0001080358,2,1
-1.869928e-05,0.0001065772,2,1
-3.701266e-05,9.571884e-05,2,1
-6.845333e-05,8.161915e-05,2,1
-0.0001070249,6.622294e-05,2,1
-0.0001486757,5.179914e-05,2,1
-0.0001898403,3.478228e-05,2,1
-0.0002229016,1.54965e-05,2,1
-0.0002358668,-4.275467e-06,2,1
-0.0002224154,-2.177852e-05,2,1
-0.0001872472,-3.522994e-05,2,1
-0.0001493239,-4.203669e-05,2,1
-0.0001353863,-4.462973e-05,2,1
-0.0001590478,-4.446767e-05,2,1
-0.0002135018,-3.976777e-05,2,1
-0.0002862691,-3.231277e-05,2,1
-0.0003611433,-2.874733e-05,2,1
-0.00042759,-2.955766e-05,2,1
-0.00047702,-2.858527e-05,2,1
-0.0005018159,-2.453363e-05,2,1
-0.0005024642,-1.432352e-05,2,1
-0.0004788027,4.151929e-06,2,1
-0.0004340726,2.667901e-05,2,1
-0.0003718396,4.547859e-05,2,1
-0.0002964792,5.260946e-05,2,1
-0.0002094502,4.645098e-05,2,1
-0.0001088076,3.316162e-05,2,1
8.527692e-06,2.522042e-05,2,1
0.0001389903,2.829966e-05,2,1
0.000267346,4.013043e-05,2,1
0.0003765781,4.953022e-05,2,1
0.000458097,5.179914e-05,2,1
0.0005157923,4.612685e-05,2,1
0.000559712,3.218923e-05,2,1
0.0005976353,1.241726e-05,2,1
0.0006264829,-9.137427e-06,2,1
0.0006407447,-3.21507e-05,2,1
0.0006399344,-6.06742e-05,2,1
0.0006350724,-9.503204e-05,2,1
0.0006318311,-0.0001360346,2,1
0.0006250244,-0.0001853024,2,1
0.0005974732,-0.0002340841,2,1
0.0005323229,-0.0002726556,2,1
0.0004313562,-0.0002950206,2,1
0.0003185587,-0.0002979378,2,1
0.0002294227,-0.0002781658,2,1
0.0002064095,-0.0002361909,2,1
0.0002696149,-0.0001737958,2,1
0.0004008879,-0.0001052422,2,1
0.0005558224,-4.608832e-05,2,1
0.0006951987,-2.81688e-06,2,1
0.0007987585,2.424803e-05,2,1
0.0008554814,3.737532e-05,2,1
0.0008574262,4.531652e-05,2,1
0.0007995688,5.893001e-05,2,1
0.0006900126,8.307774e-05,2,1
0.0005535535,0.0001116012,2,1
0.000423415,0.000135749,2,1
0.0003266619,0.0001553589,2,1
0.0002676702,0.0001757791,2,1
0.0002333123,0.0001999268,2,1
0.0002088404,0.000220185,2,1
0.0001871237,0.0002248849,2,1
0.0001793446,0.0002078681,2,1
0.00019782,0.0001743205,2,1
0.0002372019,0.000135749,2,1
0.0002759355,9.960841e-05,2,1
0.0002804733,7.254349e-05,2,1
0.000225047,5.244739e-05,2,1
0.0001039842,3.413401e-05,2,1
-6.423963e-05,1.727922e-05,2,1
-0.0002433218,4.47606e-06,2,1
-0.0003961493,-3.858999e-07,2,1
-0.0005014918,3.665733e-06,2,1
-0.0005522182,1.403791e-05,2,1
-0.0005557837,2.76514e-05,2,1
-0.0005248293,4.564065e-05,2,1
-0.0004715097,6.946425e-05,2,1
-0.0004159214,9.377406e-05,2,1
-0.0003870737,0.0001137081,2,1
-0.0004134903,0.0001240803,2,1
-0.0005024642,0.0001295905,2,1
-0.0006223925,0.0001367214,2,1
-0.0007248178,0.0001527658,2,1
-0.0007735994,0.0001749688,2,1
-0.0007590136,0.0001970097,2,1
-0.0006996976,0.0002146748,2,1
-0.000628551,0.000225047,2,1
-0.0005757177,0.0002253711,2,1
-0.0005551354,0.0002148369,2,1
-0.0005635628,0.0001934442,2,1
-0.0005894933,0.0001649207,2,1
-0.0006133168,0.0001370455,2,1
-0.0006176926,0.0001166253,2,1
-0.000601162,0.0001096565,2,1
-0.0005750695,0.0001137081,2,1
-0.0005587008,0.0001185701,2,1
-0.0005634008,0.0001138702,2,1
-0.0005877105,9.588091e-05,2,1
-0.0006220684,6.670914e-05,2,1
-0.0006538332,3.024445e-05,2,1
-0.0006693914,-1.25408e-05,2,1
-0.0006551297,-5.64605e-05,2,1
-0.0005993792,-9.827335e-05,2,1
-0.0005086227,-0.0001363587,2,1
-0.0004021458,-0.000166989,2,1
-0.000300855,-0.0001874093,2,1
-0.0002144742,-0.0001963229,2,1
-0.000134576,-0.0001948643,2,1
-4.592625e-05,-0.0001846542,2,1
5.504044e-05,-0.0001712027,2,1
0.0001628139,-0.0001582375,2,1
0.0002668598,-0.0001455964,2,1
0.0003608578,-0.0001298761,2,1
0.0004401077,-0.0001029732,2,1
0.0005068787,-5.548811e-05,2,1
0.0005655463,9.338019e-06,2,1
0.0006206486,7.52986e-05,2,1
0.0006713751,0.0001185701,2,1
0.0007080019,0.0001252147,2,1
0.0007170775,9.588091e-05,2,1
0.0006874196,4.223728e-05,2,1
0.0006125454,-2.145439e-05,2,1
0.0004990995,-8.303922e-05,2,1
0.0003640991,-0.0001386276,2,1
0.0002362295,-0.0001900023,2,1
0.0001341283,-0.0002366771,2,1
6.055066e-05,-0.0002720074,2,1
1.565857e-05,-0.0002875656,2,1
6.420843e-06,-0.0002755728,2,1
3.543054e-05,-0.000238784,2,1
9.863601e-05,-0.000191623,2,1
0.0001796687,-0.0001504584,2,1
0.000250005,-0.0001253383,2,1
0.0002858215,-0.0001165867,2,1
0.0002783665,-0.0001178833,2,1
0.000237526,-0.0001204763,2,1
0.0001786963,-0.0001203142,2,1
0.0001182459,-0.0001191798,2,1
6.589881e-05,-0.0001203142,2,1
1.59827e-05,-0.0001259865,2,1
-3.749886e-05,-0.0001413827,2,1
-9.454585e-05,-0.0001697442,2,1
-0.0001465688,-0.0002099363,2,1
-0.0001799543,-0.0002570974,2,1
-0.0001770371,-0.000301017,2,1
-0.0001292278,-0.0003329439,2,1
-4.317115e-05,-0.0003493125,2,1
6.946425e-05,-0.000348016,2,1
0.0001869616,-0.0003297026,2,1
0.0002806354,-0.000301017,2,1
0.0003248792,-0.0002716832,2,1
0.000304459,-0.0002447804,2,1
0.0002187264,-0.0002222533,2,1
8.502253e-05,-0.0002019951,2,1
-6.132246e-05,-0.000174282,2,1
-0.0001797922,-0.0001274451,2,1
-0.0002452666,-5.69467e-05,2,1
-0.0002528836,3.93201e-05,2,1
-0.0002133397,0.000153252,2,1
-0.0001491618,0.0002717218,2,1
-8.384954e-05,0.0003798194,2,1
-3.668853e-05,0.0004640934,2,1
-2.0482e-05,0.0005170888,2,1
-3.830919e-05,0.0005362125,2,1
-8.174268e-05,0.0005242196,2,1
-0.000132145,0.0004858102,2,1
-0.0001723372,0.0004313562,2,1
-0.0001937298,0.0003705817,2,1
-0.0001961608,0.0003099692,2,1
-0.0001827094,0.0002537325,2,1
-0.0001566169,0.0002093267,2,1
-0.000119828,0.0001833962,2,1
-6.958779e-05,0.0001796687,2,1
1.002961e-07,0.0001934442,2,1
9.798775e-05,0.0002125679,2,1
0.0002268297,0.0002255332,2,1
0.0003811159,0.0002294227,2,1
0.0005405883,0.0002237505,2,1
0.0006806127,0.0002085163,2,1
0.000779959,0.0001845306,2,1
0.0008207994,0.0001551968,2,1
0.0007866036,0.000128294,2,1
0.0006754267,0.0001056048,2,1
0.0005086614,8.453633e-05,2,1
0.0003159656,6.703327e-05,2,1
0.0001232699,5.358185e-05,2,1
-4.754691e-05,4.337174e-05,2,1
-0.0001838438,3.397195e-05,2,1
-0.000285945,1.987227e-05,2,1
-0.000365519,1.396819e-06,2,1
-0.0004334244,-2.0482e-05,2,1
-0.0004890127,-4.300908e-05,2,1
-0.0005317981,-6.002594e-05,2,1
-0.0005595111,-7.266703e-05,2,1
-0.0005705316,-8.433573e-05,2,1
-0.0005684248,-9.632857e-05,2,1
-0.0005580526,-0.0001055663,2,1
-0.0005428185,-0.0001081593,2,1
-0.000524181,-0.0001031353,2,1
-0.0005037607,-9.584238e-05,2,1
-0.000479613,-9.000802e-05,2,1
-0.000452386,-8.417367e-05,2,1
-0.0004154351,-7.542214e-05,2,1
-0.0003613053,-5.808115e-05,2,1
-0.0002857829,-3.328516e-05,2,1
-0.0001870851,-6.868513e-06,2,1
-7.104638e-05,1.112074e-05,2,1
5.390598e-05,1.484824e-05,2,1
0.0001723757,1.002961e-07,2,1
0.000272208,-2.745081e-05,2,1
0.0003572923,-5.678463e-05,2,1
0.0004367043,-8.02841e-05,2,1
0.0005167646,-9.211487e-05,2,1
0.0005976353,-8.563225e-05,2,1
0.0006725095,-6.180866e-05,2,1
0.0007310151,-2.437157e-05,2,1
0.0007668316,2.003433e-05,2,1
0.0007815796,7.189524e-05,2,1
0.0007749349,0.0001268354,2,1
0.0007462493,0.0001756171,2,1
0.0007008709,0.0002122438,2,1
0.0006481997,0.0002346088,2,1
0.0005986077,0.0002431983,2,1
0.0005456123,0.0002436845,2,1
0.0004704139,0.0002446569,2,1
0.0003623164,0.0002496809,2,1
0.0002282883,0.0002563256,2,1
8.259155e-05,0.0002603772,2,1
-5.483985e-05,0.0002602152,2,1
-0.0001671511,0.000259891,2,1
-0.0002499665,0.0002632944,2,1
-0.0002992343,0.0002683184,2,1
-0.000303448,0.0002709115,2,1
-0.000246239,0.0002665357,2,1
-0.0001276072,0.0002538946,2,1
2.035846e-05,0.0002328261,2,1
0.0001462832,0.0002065715,2,1
0.0002075439,0.0001783722,2,1
0.0001885823,0.0001428799,2,1
0.000105929,9.588091e-05,2,1
-4.275467e-06,3.786152e-05,2,1
-0.0001128592,-2.84232e-05,2,1
-0.0002032917,-9.811128e-05,2,1
-0.0002742763,-0.0001661787,2,1
-0.0003314853,-0.0002259808,2,1
-0.0003797808,-0.0002697385,2,1
-0.0004170558,-0.0002940482,2,1
-0.0004343968,-0.0002982619,2,1
-0.0004217557,-0.0002846485,2,1
-0.0003762153,-0.0002601766,2,1
-0.00030831,-0.0002366771,2,1
-0.0002358668,-0.0002241981,2,1
-0.0001762268,-0.0002230636,2,1
-0.0001412206,-0.0002266291,2,1
-0.0001361966,-0.0002276015,2,1
-0.0001665028,-0.0002203085,2,1
-0.0002295462,-0.0002013469,2,1
-0.0003123616,-0.0001686097,2,1
-0.0003964735,-0.0001263107,2,1
-0.0004690787,-8.287715e-05,2,1
-0.0005222362,-4.576419e-05,2,1
-0.0005499493,-2.437157e-05,2,1
-0.0005489769,-2.258885e-05,2,1
-0.0005204534,-3.766092e-05,2,1
-0.000467134,-6.083626e-05,2,1
-0.0003938804,-8.060823e-05,2,1
-0.0003078238,-9.146661e-05,2,1
-0.0002151224,-9.000802e-05,2,1
-0.0001242038,-7.639453e-05,2,1
-4.05781e-05,-5.59743e-05,2,1
3.040651e-05,-3.377136e-05,2,1
8.891209e-05,-1.562004e-05,2,1
0.0001372076,-6.706447e-06,2,1
0.0001880961,-8.813297e-06,2,1
0.0002470879,-1.821308e-05,2,1
0.0003098072,-3.21507e-05,2,1
0.0003636129,-4.884343e-05,2,1
0.0003939191,-6.81292e-05,2,1
0.0003991052,-9.422172e-05,2,1
0.0003969983,-0.0001284175,2,1
0.0004068843,-0.0001705545,2,1
0.0004350837,-0.0002157707,2,1
0.0004684692,-0.0002580697,2,1
0.0004811103,-0.0002953447,2,1
0.0004472386,-0.0003238683,2,1
0.0003579406,-0.0003361852,2,1
0.0002342847,-0.0003220855,2,1
0.0001227837,-0.0002807589,2,1
7.221937e-05,-0.0002185258,2,1
8.988449e-05,-0.0001477033,2,1
0.0001349386,-8.125649e-05,2,1
0.0001496866,-2.907146e-05,2,1
0.0001017153,4.638125e-06,2,1
9.338019e-06,2.327564e-05,2,1
-7.850138e-05,3.218923e-05,2,1
-0.000119828,3.526847e-05,2,1
-0.0001007043,3.753739e-05,2,1
-4.284701e-05,4.304761e-05,2,1
1.906194e-05,5.406805e-05,2,1
5.309566e-05,7.20573e-05,2,1
4.790957e-05,9.652917e-05,2,1
7.879432e-06,0.0001229458,2,1
-5.2733e-05,0.0001479039,2,1
-0.0001193418,0.0001712413,2,1
-0.0001741199,0.0001906891,2,1
-0.0002052365,0.0002080301,2,1
-0.0002003745,0.0002258573,2,1
-0.0001546721,0.0002451431,2,1
-7.23429e-05,0.0002628082,2,1
2.732727e-05,0.0002736666,2,1
0.0001093323,0.0002744769,2,1
0.0001448246,0.0002686426,2,1
0.0001292664,0.0002595669,2,1
7.999851e-05,0.0002504913,2,1
1.987227e-05,0.0002430362,2,1
-3.296103e-05,0.0002341226,2,1
-7.509801e-05,0.0002224539,2,1
-0.0001060525,0.0002107852,2,1
-0.000132145,0.000200251,2,1
-0.0001574272,0.0001916615,2,1
-0.0001838438,0.0001833962,2,1
-0.0002130156,0.0001775618,2,1
-0.0002423494,0.000173024,2,1
-0.0002718453,0.0001701068,2,1
-0.0003013411,0.000168162,2,1
-0.0003269475,0.0001634622,2,1
-0.0003392644,0.0001543865,2,1
-0.000325813,0.0001402868,2,1
-0.000276059,0.0001221355,2,1
-0.000184168,0.0001047945,2,1
-5.046408e-05,9.101894e-05,2,1
0.0001187321,8.145709e-05,2,1
0.000299597,7.335383e-05,2,1
0.0004499937,6.638502e-05,2,1
0.0005292437,6.670914e-05,2,1
0.0005238955,7.57848e-05,2,1
0.0004550177,9.199134e-05,2,1
0.0003653956,0.0001091703,2,1
0.000302028,0.0001182459,2,1
