EMG1,EMG2,class,user
0.001200843,-0.0002919414,0,1
0.001233418,-0.0002263049,0,1
0.001196629,-0.0001972953,0,1
0.001090801,-0.0002135018,0,1
0.0009235489,-0.0002590421,0,1
0.0007123777,-0.0003029619,0,1
0.0004802999,-0.0003134961,0,1
0.0002519498,-0.0002681178,0,1
5.358185e-05,-0.0001601823,0,1
-9.276313e-05,4.313994e-06,0,1
-0.0001754164,0.0002188885,0,1
-0.0001929195,0.0004947237,0,1
-0.0001489998,0.0008496471,0,1
-5.662256e-05,0.001259349,0,1
4.888196e-05,0.001634369,0,1
0.0001195424,0.001860126,0,1
0.0001179218,0.001850078,0,1
4.709924e-05,0.001598876,0,1
-4.949169e-05,0.001182854,0,1
-0.0001139937,0.0007238843,0,1
-0.0001102662,0.0003397893,0,1
-4.187462e-05,9.344993e-05,0,1
5.61749e-05,-1.432352e-05,0,1
0.000143204,-2.372331e-05,0,1
0.0001983062,2.586868e-05,0,1
0.0002216436,0.0001094944,0,1
0.0002162954,0.0002033302,0,1
0.0001806411,0.0002901973,0,1
0.0001054428,0.0003525924,0,1
-1.270286e-05,0.0003765781,0,1
-0.0001665028,0.0003542131,0,1
-0.0003361852,0.0002916559,0,1
-0.0004972781,0.0002043026,0,1
-0.000618503,0.0001174356,0,1
-0.0006710121,5.082674e-05,0,1
-0.0006463782,1.64689e-05,0,1
-0.0005674524,1.857574e-05,0,1
-0.0004753993,5.957827e-05,0,1
-0.0004123559,0.000135749,0,1
-0.0003933943,0.0002318537,0,1
-0.0004066836,0.0003219621,0,1
-0.0004321279,0.0003806297,0,1
-0.0004655133,0.0003908399,0,1
-0.000509595,0.000346596,0,1
-0.0005679386,0.000252436,0,1
-0.0006374646,0.0001304008,0,1
-0.0007146077,1.436204e-05,0,1
-0.0007885094,-6.667062e-05,0,1
-0.0008450702,-0.0001016767,0,1
-0.000864518,-9.811128e-05,0,1
-0.000824812,-7.23429e-05,0,1
-0.0007249799,-3.360929e-05,0,1
-0.0005877105,1.711715e-05,0,1
-0.0004494688,7.643307e-05,0,1
-0.0003322956,0.0001365593,0,1
-0.0002368392,0.0001814514,0,1
-0.0001533756,0.0001916615,0,1
-7.914964e-05,0.0001535762,0,1
-1.286493e-05,7.497447e-05,0,1
4.531652e-05,-2.0482e-05,0,1
8.939829e-05,-0.0001075111,0,1
0.0001171115,-0.0001713648,0,1
0.0001394765,-0.0002149604,0,1
0.0001751309,-0.0002621213,0,1
0.0002313675,-0.0003334301,0,1
0.000299435,-0.0004224039,0,1
0.0003608578,-0.0005034366,0,1
0.0004062361,-0.000554163,0,1
0.0004337872,-0.0005677765,0,1
0.0004459421,-0.0005561078,0,1
0.0004480489,-0.0005397392,0,1
0.0004423766,-0.0005379565,0,1
0.0004222805,-0.0005624284,0,1
0.0003728506,-0.0006120203,0,1
0.0002827423,-0.0006693914,0,1
0.0001496866,-0.00071558,0,1
-8.327101e-06,-0.0007356761,0,1
-0.0001559686,-0.0007220627,0,1
-0.0002605007,-0.0006680949,0,1
-0.0003079858,-0.0005684248,0,1
-0.0003102548,-0.0004222419,0,1
-0.0002875656,-0.0002345703,0,1
-0.000251263,-1.918548e-05,0,1
-0.0001972953,0.0002065715,0,1
-0.0001138316,0.0004170944,0,1
3.503668e-06,0.0005872631,0,1
0.000138342,0.0006927677,0,1
0.0002495189,0.0007269635,0,1
0.0002981384,0.0007115673,0,1
0.0002718839,0.0006930918,0,1
0.0001937684,0.0007127018,0,1
0.0001130598,0.0007700729,0,1
7.335383e-05,0.0008146409,0,1
9.68533e-05,0.000785145,0,1
0.0001817755,0.0006452826,0,1
0.0003057555,0.0004088291,0,1
0.0004365423,0.0001295905,0,1
0.0005511225,-0.0001324691,0,1
0.0006422033,-0.000345585,0,1
0.0007105949,-0.0005066779,0,1
0.0007545147,-0.0006170443,0,1
0.0007634282,-0.0006724707,0,1
0.0007243705,-0.0006750637,0,1
0.0006328035,-0.0006377887,0,1
0.0004960203,-0.0005781487,0,1
0.0003375204,-0.0005133225,0,1
0.0001806411,-0.0004603272,0,1
4.110282e-05,-0.0004288866,0,1
-6.796714e-05,-0.0004143007,0,1
-0.0001368449,-0.0004014975,0,1
-0.0001690959,-0.0003760533,0,1
-0.0001734716,-0.0003342404,0,1
-0.0001634236,-0.0002843243,0,1
-0.000151917,-0.0002350565,0,1
-0.0001451102,-0.0001925954,0,1
-0.0001459206,-0.0001609926,0,1
-0.0001477033,-0.0001454344,0,1
-0.0001489998,-0.0001465688,0,1
-0.0001527273,-0.0001533756,0,1
-0.0001613168,-0.0001465688,0,1
-0.0001746061,-0.0001131834,0,1
-0.0001890299,-4.722278e-05,0,1
-0.000206533,4.920609e-05,0,1
-0.0002254946,0.0001636242,0,1
-0.0002428356,0.0002783665,0,1
-0.0002580697,0.0003803056,0,1
-0.0002689281,0.0004516144,0,1
-0.0002771934,0.0004686312,0,1
-0.0002872415,0.0004221185,0,1
-0.0003026377,0.0003282826,0,1
-0.0003214373,0.0002156472,0,1
-0.0003395886,0.0001046324,0,1
-0.0003525538,2.855407e-06,0,1
-0.0003538503,-9.146661e-05,0,1
-0.0003439643,-0.0001822232,0,1
-0.0003342404,-0.0002708729,0,1
-0.0003363473,-0.0003509331,0,1
-0.0003559572,-0.0004180282,0,1
-0.000385291,-0.0004681064,0,1
-0.0004039285,-0.0004958195,0,1
-0.0003950149,-0.0005035987,0,1
-0.0003570916,-0.000507002,0,1
-0.0002945344,-0.0005270981,0,1
-0.0002060468,-0.0005622663,0,1
-8.887356e-05,-0.0005953276,0,1
5.098881e-05,-0.0006120203,0,1
0.0001939304,-0.0006094273,0,1
0.0003128864,-0.0005979206,0,1
0.0003841952,-0.0005940311,0,1
0.0003994293,-0.0006078067,0,1
0.0003631267,-0.0006361681,0,1
0.0002953834,-0.0006617744,0,1
0.0002208333,-0.0006646916,0,1
0.0001644345,-0.0006337371,0,1
0.0001433661,-0.0005758798,0,1
0.0001573037,-0.0005060296,0,1
0.0001867996,-0.0004339106,0,1
0.0002128921,-0.0003499608,0,1
0.0002229401,-0.0002295462,0,1
0.00021273,-4.511593e-05,0,1
0.000185341,0.0002334744,0,1
0.0001469315,0.0006164349,0,1
0.0001062531,0.001064546,0,1
7.659513e-05,0.001490616,0,1
6.849186e-05,0.001795624,0,1
8.405014e-05,0.001911501,0,1
0.000121001,0.001830144,0,1
0.0001788584,0.001602928,0,1
0.0002534084,0.001312344,0,1
0.0003299033,0.001034078,0,1
0.0003880847,0.0008066997,0,1
0.0004120704,0.0006298863,0,1
0.0003939191,0.0004901859,0,1
0.0003440029,0.0003752816,0,1
0.0002882525,0.0002853353,0,1
0.0002487085,0.0002355812,0,1
0.0002308813,0.0002459534,0,1
0.0002227781,0.0003227724,0,1
0.0002046267,0.0004461041,0,1
0.000163138,0.0005749461,0,1
9.798775e-05,0.0006765611,0,1
2.505836e-05,0.0007389564,0,1
-3.409549e-05,0.0007590525,0,1
-6.780507e-05,0.0007413874,0,1
-7.509801e-05,0.000690823,0,1
-6.06742e-05,0.0006151384,0,1
-3.150244e-05,0.0005229231,0,1
-4.923729e-06,0.0004302217,0,1
4.313994e-06,0.0003488649,0,1
-1.562004e-05,0.0002838767,0,1
-7.072225e-05,0.0002380122,0,1
-0.0001548341,0.0002125679,0,1
-0.0002546664,0.0002023578,0,1
-0.0003485022,0.0001979821,0,1
-0.0004188385,0.0001819376,0,1
-0.0004562756,0.0001351007,0,1
-0.0004640547,4.628891e-05,0,1
-0.0004527101,-7.752899e-05,0,1
-0.0004306693,-0.0002143121,0,1
-0.0004099249,-0.0003344025,0,1
-0.0004029561,-0.0004170558,0,1
-0.0004211074,-0.0004587066,0,1
-0.000467296,-0.0004708614,0,1
-0.0005311498,-0.000477182,0,1
-0.0005859278,-0.0004966299,0,1
-0.0006079687,-0.0005334187,0,1
-0.0005865761,-0.0005796073,0,1
-0.0005189948,-0.0006227166,0,1
-0.0004180282,-0.0006400577,0,1
-0.000303286,-0.0006105618,0,1
-0.0001921092,-0.0005274223,0,1
-9.081835e-05,-0.0004089525,0,1
4.47606e-06,-0.0002901587,0,1
0.0001065772,-0.0001948643,0,1
0.0002320158,-0.0001208004,0,1
0.0003978086,-3.830919e-05,0,1
0.0006159487,7.853991e-05,0,1
0.0008624502,0.0002256952,0,1
0.001080428,0.000368799,0,1
0.001214133,0.0004525868,0,1
0.001230015,0.000428277,0,1
0.001132127,0.0002833905,0,1
0.0009587171,5.001642e-05,0,1
0.0007671557,-0.0002130156,0,1
0.0006057385,-0.0004481723,0,1
0.0004898618,-0.0006290372,0,1
0.0004140152,-0.000755124,0,1
0.0003694472,-0.00083956,0,1
0.000344165,-0.0009019551,0,1
0.0003237448,-0.0009635399,0,1
0.0002903593,-0.001038576,0,1
0.0002299089,-0.001120905,0,1
0.0001376938,-0.001182166,0,1
2.424803e-05,-0.001189459,0,1
-8.628052e-05,-0.001125119,0,1
-0.0001626133,-0.001000491,0,1
-0.0001968091,-0.0008500942,0,1
-0.0002097743,-0.0007152559,0,1
-0.0002308428,-0.0006183409,0,1
-0.0002880518,-0.0005530285,0,1
-0.0003958252,-0.0004841508,0,1
-0.0005488148,-0.0003741085,0,1
-0.0007136352,-0.0002073433,0,1
-0.0008453943,-4.275467e-06,0,1
-0.000911517,0.0001890685,0,1
-0.0008922312,0.0003263378,0,1
-0.0007883473,0.0003864641,0,1
-0.0006243373,0.0003804677,0,1
-0.0004327761,0.0003446512,0,1
-0.0002423494,0.0003226103,0,1
-7.65566e-05,0.0003546993,0,1
4.564065e-05,0.000473007,0,1
0.0001140322,0.0006814231,0,1
0.0001289422,0.0009321384,0,1
0.0001013911,0.00113861,0,1
6.168512e-05,0.001224829,0,1
4.418206e-05,0.001160813,0,1
6.589881e-05,0.0009724927,0,1
0.0001271595,0.0007214533,0,1
0.0002143507,0.0004723587,0,1
0.0003077003,0.0002684805,0,1
0.0003856538,0.0001261871,0,1
0.0004251977,3.818565e-05,0,1
0.0004033189,-7.516774e-06,0,1
0.0003174242,-2.258885e-05,0,1
0.000192796,-1.950961e-05,0,1
6.541262e-05,-1.464765e-05,0,1
-3.360929e-05,-2.615429e-05,0,1
-8.336335e-05,-5.905355e-05,0,1
-7.914964e-05,-0.0001037836,0,1
-2.745081e-05,-0.0001384655,0,1
5.212327e-05,-0.0001441378,0,1
0.0001257009,-0.0001135075,0,1
0.0001516314,-5.808115e-05,0,1
0.0001015532,-2.978945e-06,0,1
-2.550602e-05,2.603075e-05,0,1
-0.0002076674,2.34377e-05,0,1
-0.0004136524,8.041497e-06,0,1
-0.000608779,-6.544382e-06,0,1
-0.0007682513,-3.522994e-05,0,1
-0.0008739179,-0.000104918,0,1
-0.000916379,-0.0002224154,0,1
-0.0008983897,-0.0003660052,0,1
-0.0008353463,-0.0004979264,0,1
-0.0007547998,-0.0005873864,0,1
-0.0006786292,-0.0006183409,0,1
-0.0006091032,-0.0005873864,0,1
-0.0005387668,-0.0005001953,0,1
-0.0004565997,-0.0003650328,0,1
-0.0003601709,-0.0001951884,0,1
-0.0002601766,-2.323711e-05,0,1
-0.0001673132,0.0001148425,0,1
-7.995997e-05,0.0002099749,0,1
6.744974e-06,0.0002688046,0,1
9.16672e-05,0.0003062417,0,1
0.0001728619,0.00033671,0,1
0.0002417397,0.000373985,0,1
0.0002882525,0.0004235771,0,1
0.0003085106,0.0004807861,0,1
0.0003031625,0.0005331332,0,1
0.00027707,0.0005661946,0,1
0.0002389846,0.0005692738,0,1
0.0002094887,0.0005394538,0,1
0.0002031682,0.0004838654,0,1
0.0002237505,0.0004251977,0,1
0.0002736666,0.0003982949,0,1
0.0003569682,0.0004213082,0,1
0.000462959,0.0004871067,0,1
0.0005674912,0.0005759185,0,1
0.0006465791,0.0006890402,0,1
0.000685961,0.000837168,0,1
0.0006825576,0.001004582,0,1
0.0006493342,0.001134882,0,1
0.0006039558,0.001165999,0,1
0.0005532294,0.001063574,0,1
0.0004893756,0.0008442989,0,1
0.0004038051,0.0005577672,0,1
0.00029198,0.0002556773,0,1
0.0001566554,-2.777494e-05,0,1
7.23117e-06,-0.0002815692,0,1
-0.000142031,-0.000489661,0,1
-0.0002715212,-0.0006308199,0,1
-0.0003624398,-0.0006893255,0,1
-0.0004049009,-0.0006726327,0,1
-0.0004011734,-0.0006076446,0,1
-0.0003598467,-0.0005282326,0,1
-0.0002896725,-0.0004604893,0,1
-0.0001971332,-0.0004191627,0,1
-8.741498e-05,-0.0004034423,0,1
4.320967e-05,-0.0004040906,0,1
0.0001898788,-0.0004045768,0,1
0.0003337929,-0.0003979321,0,1
0.000443349,-0.0003904771,0,1
0.0004929411,-0.0003930701,0,1
0.0004759242,-0.0004024699,0,1
0.0004078567,-0.000405225,0,1
0.0003164518,-0.0003925839,0,1
0.0002279642,-0.0003650328,0,1
0.0001587623,-0.0003262992,0,1
0.0001088461,-0.0002833519,0,1
7.594687e-05,-0.000238784,0,1
5.828175e-05,-0.0001925954,0,1
4.126489e-05,-0.0001447861,0,1
7.069105e-06,-9.017008e-05,0,1
-5.451572e-05,-3.085418e-05,0,1
-0.0001360346,2.716521e-05,0,1
-0.0002229016,7.870197e-05,0,1
-0.000301017,0.000128294,0,1
-0.0003624398,0.0001832341,0,1
-0.000405063,0.0002461155,0,1
-0.0004292107,0.0003067279,0,1
-0.000437476,0.0003488649,0,1
-0.0004379622,0.0003558337,0,1
-0.0004353692,0.0003200173,0,1
-0.0004269418,0.0002448189,0,1
-0.0004034423,0.0001441764,0,1
-0.0003575778,3.299956e-05,0,1
-0.0002922655,-7.60704e-05,0,1
-0.0002167431,-0.0001690959,0,1
-0.0001400862,-0.0002335979,0,1
-6.083626e-05,-0.0002658489,0,1
2.797553e-05,-0.000266011,0,1
0.0001252147,-0.0002421874,0,1
0.0002171058,-0.0002028055,0,1
0.0002803113,-0.0001621271,0,1
0.0002966799,-0.0001344139,0,1
0.000262322,-0.0001284175,0,1
0.0001892305,-0.0001391138,0,1
0.0001009049,-0.0001514308,0,1
1.760335e-05,-0.0001551583,0,1
-4.835724e-05,-0.0001425172,0,1
-8.82253e-05,-0.0001096179,0,1
-9.519411e-05,-6.456377e-05,0,1
-7.477388e-05,-3.296103e-05,0,1
-3.798505e-05,-3.911951e-05,0,1
3.341602e-06,-9.422172e-05,0,1
4.126489e-05,-0.0001880575,0,1
7.059871e-05,-0.0003031239,0,1
8.74535e-05,-0.000412518,0,1
0.0001025256,-0.0004937127,0,1
0.0001227837,-0.0005431426,0,1
0.0001495245,-0.0005752315,0,1
0.0001772377,-0.000608779,0,1
0.0001992786,-0.0006489712,0,1
0.0002091646,-0.0006823567,0,1
0.0002122438,-0.0006859221,0,1
0.0002195368,-0.0006442713,0,1
0.0002412535,-0.0005577285,0,1
0.0002854973,-0.0004285624,0,1
0.0003522683,-0.0002580697,0,1
0.0004192013,-5.240886e-05,0,1
0.0004551798,0.0001735102,0,1
0.0004412422,0.0003989431,0,1
0.0003769022,0.0005989318,0,1
0.000279663,0.0007574318,0,1
0.0001820997,0.0008793051,0,1
0.0001104668,0.0009728169,0,1
7.57848e-05,0.001022895,0,1
7.140904e-05,0.001003609,0,1
8.113296e-05,0.0008981046,0,1
8.388807e-05,0.0007149707,0,1
6.654708e-05,0.0004884033,0,1
2.846173e-05,0.0002678322,0,1
-2.064406e-05,0.0001041462,0,1
-7.380149e-05,2.781346e-05,0,1
-0.0001229073,4.175109e-05,0,1
-0.0001464067,0.000121001,0,1
-0.000132145,0.0002310434,0,1
-9.081835e-05,0.0003308757,0,1
-4.770897e-05,0.0003922984,0,1
-2.031993e-05,0.0004089912,0,1
-7.516774e-06,0.0003939191,0,1
3.827799e-06,0.0003624784,0,1
2.34377e-05,0.0003114278,0,1
5.552663e-05,0.0002284504,0,1
8.939829e-05,0.0001120874,0,1
0.0001056048,-1.837515e-05,0,1
8.696731e-05,-0.0001400862,0,1
3.18651e-05,-0.0002376495,0,1
-3.782299e-05,-0.0002980999,0,1
-9.114248e-05,-0.0003214373,0,1
-0.0001138316,-0.0003087962,0,1
-0.0001214487,-0.0002648765,0,1
-0.0001464067,-0.0001974573,0,1
-0.0002102605,-0.0001209625,0,1
-0.0003036101,-4.981582e-05,0,1
-0.0003865875,8.527692e-06,0,1
-0.0004170558,5.082674e-05,0,1
-0.00038286,7.708133e-05,0,1
-0.0002987481,8.84259e-05,0,1
-0.0001940539,8.178122e-05,0,1
-9.697683e-05,4.628891e-05,0,1
-2.339918e-05,-3.117831e-05,0,1
2.505836e-05,-0.0001405724,0,1
5.633696e-05,-0.0002585559,0,1
6.687121e-05,-0.000358064,0,1
5.293359e-05,-0.0004282383,0,1
1.857574e-05,-0.0004734545,0,1
-2.988179e-05,-0.0005108916,0,1
-9.357346e-05,-0.0005533527,0,1
-0.000171851,-0.0005927345,0,1
-0.0002528836,-0.0006053757,0,1
-0.0003170615,-0.0005703696,0,1
-0.0003496366,-0.0004802613,0,1
-0.000335699,-0.0003352128,0,1
-0.0002694143,-0.0001417068,0,1
-0.0001695821,8.129502e-05,0,1
-7.315322e-05,0.0002885766,0,1
-1.335113e-05,0.0004217943,0,1
-4.113403e-06,0.0004389733,0,1
-4.106429e-05,0.0003431926,0,1
-0.0001114006,0.0001809652,0,1
-0.0001935677,1.452411e-05,0,1
-0.0002614731,-0.0001068628,0,1
-0.0002977757,-0.000156941,0,1
-0.0002951827,-0.000134738,0,1
-0.0002553146,-6.099833e-05,0,1
-0.0001888679,3.024445e-05,0,1
-0.0001190177,0.0001025256,0,1
-6.650855e-05,0.000133318,0,1
-5.095028e-05,0.000115977,0,1
-7.963584e-05,5.082674e-05,0,1
-0.0001438137,-4.673658e-05,0,1
-0.0002258187,-0.0001540238,0,1
-0.0003003688,-0.0002496423,0,1
-0.0003450988,-0.0003196545,0,1
-0.000342992,-0.0003697327,0,1
-0.0002925897,-0.0004233763,0,1
-0.0002024813,-0.0005027883,0,1
-9.000802e-05,-0.000613641,0,1
2.489629e-05,-0.0007368106,0,1
0.0001253768,-0.0008282154,0,1
0.0002093267,-0.000842153,0,1
0.0002869559,-0.0007546378,0,1
0.0003704196,-0.0005624284,0,1
0.0004587452,-0.0002653627,0,1
0.0005392918,0.0001401247,0,1
0.0005932595,0.0006255105,0,1
0.0006023352,0.001105062,0,1
0.0005485295,0.001462579,0,1
0.0004290873,0.00160698,0,1
0.0002681563,0.001517681,0,1
0.0001130598,0.001256594,0,1
1.987227e-05,0.0009340832,0,1
1.209313e-05,0.0006535479,0,1
6.995045e-05,0.0004694416,0,1
0.0001409351,0.0003845193,0,1
0.0001795066,0.0003741471,0,1
0.0001741585,0.0004047775,0,1
0.0001479039,0.0004555039,0,1
0.0001305629,0.0005196818,0,1
0.0001331559,0.0005999042,0,1
0.0001398006,0.0006951987,0,1
0.0001336421,0.0008086445,0,1
0.0001158149,0.0009473725,0,1
0.0001039842,0.001094204,0,1
0.000118408,0.001203436,0,1
0.0001573037,0.001237956,0,1
0.0001906891,0.001191443,0,1
0.0001770756,0.001095825,0,1
8.486046e-05,0.0009966405,0,1
-8.336335e-05,0.0009243593,0,1
-0.0002817312,0.0008739569,0,1
-0.0004460655,0.000809779,0,1
-0.0005358497,0.0006921195,0,1
-0.0005523803,0.0005046097,0,1
-0.000514295,0.0002665357,0,1
-0.0004450931,1.906194e-05,0,1
-0.0003724878,-0.0002068571,0,1
-0.0003267854,-0.0004042526,0,1
-0.0003326198,-0.000578959,0,1
-0.0004083043,-0.0007394037,0,1
-0.0005470322,-0.0008847762,0,1
-0.0007097457,-0.001011997,0,1
-0.0008374532,-0.00111183,0,1
-0.0008734317,-0.00117779,0,1
-0.0007941817,-0.001212148,0,1
-0.0006264441,-0.001231596,0,1
-0.0004290486,-0.001261254,0,1
-0.0002585559,-0.001316194,0,1
-0.0001374932,-0.001399009,0,1
-4.657452e-05,-0.0015003,0,1
4.515445e-05,-0.001595595,0,1
0.0001514693,-0.001649887,0,1
0.0002550291,-0.001629952,0,1
0.0003299033,-0.001516345,0,1
0.0003589129,-0.00131749,0,1
0.0003525924,-0.001074231,0,1
0.0003482167,-0.0008428013,0,1
0.0003825745,-0.0006726327,0,1
0.0004759242,-0.0005825245,0,1
0.0006109247,-0.000559187,0,1
0.0007376599,-0.0005697213,0,1
0.000799893,-0.0005844692,0,1
0.0007744487,-0.0005916001,0,1
0.0006781818,-0.0005896553,0,1
0.0005509604,-0.0005762039,0,1
0.0004292493,-0.0005394151,0,1
0.0003347652,-0.000454817,0,1
0.0002757735,-0.0002977757,0,1
0.0002527602,-6.764301e-05,0,1
0.0002608634,0.0002062474,0,1
0.0003007315,0.0004767345,0,1
0.0003767402,0.0006887161,0,1
0.0004947237,0.0007908173,0,1
0.0006480376,0.0007593766,0,1
0.0008169098,0.0006149763,0,1
0.0009677928,0.0004091532,0,1
0.00105855,0.0002031682,0,1
0.001061143,6.03886e-05,0,1
0.0009768684,2.246531e-05,0,1
0.0008327923,8.810177e-05,0,1
0.0006691061,0.0002224539,0,1
0.0005198439,0.0003775505,0,1
0.0004107739,0.0005164405,0,1
0.0003524304,0.0006381517,0,1
0.0003321722,0.0007548388,0,1
0.0003185587,0.0008679605,0,1
0.0002832284,0.0009574206,0,1
0.0002190506,0.0009917786,0,1
0.000130887,0.0009580689,0,1
3.462021e-05,0.000866826,0,1
-5.046408e-05,0.0007460872,0,1
-0.0001109144,0.0006298863,0,1
-0.0001512687,0.0005409124,0,1
-0.0001929195,0.0004825689,0,1
-0.0002485079,0.0004470765,0,1
-0.0003165753,0.0004245494,0,1
-0.0003920977,0.0004057499,0,1
-0.0004661616,0.0003824125,0,1
-0.0005322842,0.0003524304,0,1
-0.0005826865,0.0003161277,0,1
-0.0006074825,0.0002812837,0,1
-0.0006047274,0.0002581083,0,1
-0.0005800935,0.0002576221,0,1
-0.0005420081,0.0002848491,0,1
-0.0004954954,0.0003247172,0,1
-0.0004525481,0.0003559958,0,1
-0.0004272659,0.0003602095,0,1
-0.0004313175,0.0003350894,0,1
-0.0004650271,0.000289387,0,1
-0.0005157535,0.0002352571,0,1
-0.0005655076,0.000177886,0,1
-0.0005975965,0.0001119254,0,1
-0.0005972724,2.667901e-05,0,1
-0.0005574043,-7.526008e-05,0,1
-0.0004749131,-0.0001799543,0,1
-0.0003483401,-0.0002747625,0,1
-0.0001854645,-0.000358064,0,1
-1.432352e-05,-0.0004305072,0,1
0.0001222976,-0.0004883645,0,1
0.0001936063,-0.0005206155,0,1
0.0001890685,-0.0005207775,0,1
0.0001099806,-0.0005035987,0,1
-3.247483e-05,-0.0004917679,0,1
-0.0002178775,-0.0004959816,0,1
-0.0004246728,-0.000509595,0,1
-0.0006230408,-0.0005175362,0,1
-0.0007886715,-0.0005065158,0,1
-0.000904224,-0.0004734545,0,1
-0.0009578677,-0.0004133283,0,1
-0.000943768,-0.0003139823,0,1
-0.0008638698,-0.0001624512,0,1
-0.0007251419,4.02925e-05,0,1
-0.0005421702,0.0002675081,0,1
-0.00033813,0.0004684692,0,1
-0.0001499722,0.0005835356,0,1
-1.286493e-05,0.0005811046,0,1
5.666109e-05,0.0004759242,0,1
5.536457e-05,0.0003122381,0,1
-7.354709e-06,0.0001336421,0,1
-0.0001112386,-2.89094e-05,0,1
-0.0002206326,-0.0001509446,0,1
-0.0002998826,-0.0002122053,0,1
-0.0003384541,-0.000201671,0,1
-0.0003520676,-0.0001293899,0,1
-0.0003650328,-2.356124e-05,0,1
-0.0003919357,7.546067e-05,0,1
-0.0004290486,0.0001339663,0,1
-0.0004645409,0.0001363972,0,1
-0.0004828543,9.004655e-05,0,1
-0.00047232,1.533444e-05,0,1
-0.0004222419,-6.683268e-05,0,1
-0.0003292164,-0.0001501342,0,1
-0.0002021572,-0.0002358668,0,1
-6.504996e-05,-0.0003225718,0,1
6.022653e-05,-0.000402794,0,1
0.0001600588,-0.0004676201,0,1
0.0002239125,-0.0005105674,0,1
0.0002485465,-0.0005337428,0,1
0.0002420638,-0.0005423322,0,1
0.0002159713,-0.000546546,0,1
0.000178048,-0.0005523803,0,1
0.0001406109,-0.0005643732,0,1
0.0001201907,-0.0005723144,0,1
0.00013818,-0.0005587008,0,1
0.0002135403,-0.0005014918,0,1
0.0003593992,-0.0003933943,0,1
0.0005574431,-0.0002395943,0,1
0.0007676419,-4.722278e-05,0,1
0.0009415382,0.0001936063,0,1
0.001049636,0.0005057442,0,1
0.001096959,0.0008856256,0,1
0.001112193,0.001269883,0,1
0.001120297,0.001552364,0,1
0.001124672,0.001636476,0,1
0.001106197,0.00149564,0,1
0.001051743,0.001193712,0,1
0.0009548276,0.000839599,0,1
0.0008264717,0.0005328091,0,1
0.0006927677,0.0003258516,0,1
0.0005880735,0.0002167816,0,1
0.0005433434,0.0001775618,0,1
0.000567005,0.000175455,0,1
0.0006384758,0.0001871237,0,1
0.0007195085,0.0002034923,0,1
0.0007742866,0.0002188885,0,1
0.0007880622,0.0002221298,0,1
0.0007551629,0.0002034923,0,1
0.0006760749,0.0001644345,0,1
0.00055485,0.0001167873,0,1
0.0004002396,7.124698e-05,0,1
0.0002198609,3.769945e-05,0,1
2.489629e-05,2.133085e-05,0,1
-0.0001682856,2.975825e-05,0,1
-0.0003412093,6.719535e-05,0,1
-0.00047232,0.0001237561,0,1
-0.0005428185,0.0001809652,0,1
-0.0005489769,0.0002162954,0,1
-0.0005003574,0.0002143507,0,1
-0.0004219178,0.0001765894,0,1
-0.0003416954,0.0001185701,0,1
-0.0002801106,5.260946e-05,0,1
-0.000243808,-1.950961e-05,0,1
-0.0002220912,-9.762509e-05,0,1
-0.0001937298,-0.0001861127,0,1
-0.0001512687,-0.0002862691,0,1
-0.0001010285,-0.000385291,0,1
-5.743289e-05,-0.0004625961,0,1
-3.506788e-05,-0.0005121881,0,1
-3.960571e-05,-0.0005397392,0,1
-6.683268e-05,-0.0005507597,0,1
-0.0001058904,-0.0005533527,0,1
-0.0001512687,-0.0005471942,0,1
-0.000201671,-0.000529205,0,1
-0.000253856,-0.0004976023,0,1
-0.000310741,-0.0004616237,0,1
-0.0003786463,-0.0004442827,0,1
-0.0004483344,-0.0004669719,0,1
-0.0004911196,-0.0005387668,0,1
-0.0004792889,-0.0006539953,0,1
-0.0004084663,-0.0007961266,0,1
-0.0003031239,-0.0009408508,0,1
-0.0002042641,-0.001059158,0,1
-0.0001488377,-0.001121229,0,1
-0.0001501342,-0.001112964,0,1
-0.000196647,-0.001037928,0,1
-0.0002608248,-0.0009178375,0,1
-0.0003121996,-0.0007868888,0,1
-0.0003241924,-0.0006774947,0,1
-0.0002825416,-0.0006029447,0,1
-0.0002011848,-0.0005603215,0,1
-0.0001101041,-0.0005339049,0,1
-3.766092e-05,-0.0005031124,0,1
9.66215e-06,-0.0004429862,0,1
4.272347e-05,-0.0003314853,0,1
7.286763e-05,-0.0001697442,0,1
0.0001004187,2.035846e-05,0,1
0.000113546,0.0002098128,0,1
0.0001051186,0.0003783608,0,1
8.405014e-05,0.0005162785,0,1
6.622294e-05,0.0006237278,0,1
6.83298e-05,0.0006981159,0,1
9.555677e-05,0.0007298806,0,1
0.0001378558,0.0007190223,0,1
0.0001777239,0.0006725095,0,1
0.0002012234,0.0006106006,0,1
0.0002030061,0.0005614947,0,1
0.0001858272,0.0005537156,0,1
0.0001598967,0.0006054144,0,1
0.0001351007,0.0007191843,0,1
0.0001161391,0.0008754155,0,1
9.863601e-05,0.001035212,0,1
6.78436e-05,0.001156113,0,1
2.01964e-05,0.001215267,0,1
-3.393342e-05,0.001215429,0,1
-7.639453e-05,0.00115903,0,1
-9.29252e-05,0.001035698,0,1
-9.065628e-05,0.0008352232,0,1
-9.065628e-05,0.0005666808,0,1
-0.0001151281,0.0002577842,0,1
-0.0001760647,-5.435365e-05,0,1
-0.0002621213,-0.0003363473,0,1
-0.0003488263,-0.000571342,0,1
-0.0004207833,-0.000755286,0,1
-0.0004747511,-0.0008909347,0,1
-0.0005201293,-0.0009914152,0,1
-0.0005687489,-0.00107342,0,1
-0.0006144513,-0.00113776,0,1
-0.0006369784,-0.001170821,0,1
-0.0006157478,-0.001163042,0,1
-0.000539091,-0.001099837,0,1
-0.0004168937,-0.0009643502,0,1
-0.0002724935,-0.0007492896,0,1
-0.0001261486,-0.0004778303,0,1
9.175954e-06,-0.0001953505,0,1
0.0001216493,5.714729e-05,0,1
0.0001931201,0.0002676702,0,1
0.0001999268,0.0004420525,0,1
0.0001318594,0.0005871011,0,1
1.419998e-05,0.0007018434,0,1
-0.0001057284,0.0007947069,0,1
-0.0001806025,0.0008686088,0,1
-0.000191785,0.0009071803,0,1
-0.0001509446,0.000886598,0,1
-8.806324e-05,0.0008044308,0,1
-3.620233e-05,0.0006893643,0,1
-1.934754e-05,0.0005832114,0,1
-5.111234e-05,0.000512713,0,1
-0.0001242038,0.0004751139,0,1
-0.0002188499,0.0004521006,0,1
-0.0003126857,0.000425846,0,1
-0.000390315,0.0003845193,0,1
-0.000437476,0.0003234207,0,1
-0.0004454172,0.000242388,0,1
-0.0004055492,0.0001561692,0,1
-0.0003052308,7.67572e-05,0,1
-0.0001415448,1.112074e-05,0,1
7.384002e-05,-3.895745e-05,0,1
0.0003140208,-7.65566e-05,0,1
0.0005451261,-9.19528e-05,0,1
0.000737984,-6.197072e-05,0,1
0.000884167,3.478228e-05,0,1
0.0009846477,0.0001793446,0,1
0.001046233,0.00030689,0,1
0.001081563,0.0003472443,0,1
0.001100038,0.0002720459,0,1
0.001102956,0.0001031738,0,1
0.001079294,-0.0001081593,0,1
0.001016899,-0.0003121996,0,1
0.0009160939,-0.0004666478,0,1
0.0007937344,-0.0005480045,0,1
0.0006695924,-0.0005549733,0,1
0.0005553362,-0.0005040849,0,1
0.0004428628,-0.0004198109,0,1
0.0003073762,-0.0003329439,0,1
0.0001325077,-0.0002705488,0,1
-6.602235e-05,-0.0002410529,0,1
-0.0002528836,-0.0002366771,0,1
-0.0004071698,-0.0002397564,0,1
-0.000524181,-0.0002395943,0,1
-0.0006076446,-0.0002417012,0,1
-0.0006596675,-0.0002556388,0,1
-0.0006786292,-0.0002822175,0,1
-0.0006630709,-0.000300855,0,1
-0.0006172064,-0.0002815692,0,1
-0.000554001,-0.0002055606,0,1
-0.0004810716,-7.671866e-05,0,1
-0.0004036044,6.78436e-05,0,1
-0.0003324577,0.0001744826,0,1
-0.00027849,0.0002049509,0,1
-0.0002376495,0.000163138,0,1
-0.0001964849,8.680524e-05,0,1
-0.0001352242,2.34377e-05,0,1
-3.928157e-05,4.638125e-06,0,1
7.999851e-05,4.239934e-05,0,1
0.0001976579,0.0001299146,0,1
0.0002861456,0.0002581083,0,1
0.0003331446,0.0004354078,0,1
0.0003488649,0.0006657028,0,1
0.0003545372,0.0009091251,0,1
0.0003720403,0.001090314,0,1
0.0004078567,0.001132451,0,1
0.0004483731,0.001006851,0,1
0.0004639314,0.0007535422,0,1
0.0004329769,0.0004465904,0,1
0.0003495132,0.0001517934,0,1
0.0002179161,-8.984595e-05,0,1
6.233338e-05,-0.0002668213,0,1
-7.979791e-05,-0.0003857772,0,1
-0.0001814128,-0.0004593548,0,1
-0.000236353,-0.0004904714,0,1
-0.0002577456,-0.0004737787,0,1
-0.0002559629,-0.0004120317,0,1
-0.0002284118,-0.0003301888,0,1
-0.0001752544,-0.000266173,0,1
-0.0001054042,-0.0002444563,0,1
-2.874733e-05,-0.0002515871,0,1
3.364782e-05,-0.0002391081,0,1
5.893001e-05,-0.0001527273,0,1
4.094075e-05,3.154097e-05,0,1
-7.678839e-06,0.0002876042,0,1
-6.537409e-05,0.000549826,0,1
-0.0001120489,0.0007443045,0,1
-0.0001340898,0.0008128582,0,1
-0.000129714,0.0007410632,0,1
-0.0001175591,0.0005619809,0,1
-0.0001332795,0.0003333067,0,1
-0.0002097743,0.0001128978,0,1
-0.0003449367,-5.775702e-05,0,1
-0.0004954954,-0.0001647201,0,1
-0.0005975965,-0.000219012,0,1
-0.000611048,-0.0002426735,0,1
-0.0005327704,-0.0002554767,0,1
-0.0003950149,-0.0002668213,0,1
-0.0002459149,-0.0002791382,0,1
-0.0001298761,-0.0002898345,0,1
-6.764301e-05,-0.0002980999,0,1
-5.775702e-05,-0.0003100927,0,1
-8.968389e-05,-0.000330675,0,1
-0.0001464067,-0.0003595226,0,1
-0.0002094502,-0.000387722,0,1
-0.0002609869,-0.0004044147,0,1
-0.000285945,-0.0003959873,0,1
-0.0002904828,-0.000355633,0,1
-0.0002955068,-0.0002887001,0,1
-0.0003172236,-0.0002110708,0,1
-0.000350447,-0.0001394379,0,1
-0.0003707051,-8.838737e-05,0,1
-0.0003551469,-6.537409e-05,0,1
-0.0003005308,-7.347736e-05,0,1
-0.0002217671,-0.0001032974,0,1
-0.0001460826,-0.0001391138,0,1
-9.405965e-05,-0.000164396,0,1
-7.201877e-05,-0.000174282,0,1
-6.893953e-05,-0.0001746061,0,1
-6.537409e-05,-0.0001750923,0,1
-4.365734e-05,-0.0001820611,0,1
8.527692e-06,-0.0001989159,0,1
8.599492e-05,-0.0002332737,0,1
0.0001712413,-0.0002906449,0,1
0.0002456293,-0.000367788,0,1
0.0002989488,-0.0004564377,0,1
0.000341572,-0.0005436288,0,1
0.0003955397,-0.0006115342,0,1
0.0004783552,-0.0006436231,0,1
0.0005875872,-0.0006373025,0,1
0.0006979538,-0.000606348,0,1
0.0007785003,-0.0005661559,0,1
0.0008101031,-0.0005269361,0,1
0.000797624,-0.0004851232,0,1
0.0007556491,-0.0004322899,0,1
0.0006973055,-0.0003579019,0,1
0.0006331276,-0.0002664971,0,1
0.0005739738,-0.0001723372,0,1
0.0005331332,-8.514606e-05,0,1
0.0005195198,-6.868513e-06,0,1
0.0005274609,6.78436e-05,0,1
0.0005409124,0.0001451488,0,1
0.000537347,0.0002243987,0,1
0.0005033132,0.0002992729,0,1
0.0004438352,0.0003613439,0,1
0.0003751195,0.0003963501,0,1
0.0003055935,0.0003947294,0,1
0.0002391467,0.0003585888,0,1
0.000187772,0.0003034866,0,1
0.0001574657,0.0002475741,0,1
0.0001375317,0.0002093267,0,1
0.0001127357,0.0002020337,0,1
7.157111e-05,0.0002384984,0,1
3.017472e-06,0.0003128864,0,1
-0.0001028112,0.0003893813,0,1
-0.0002485079,0.0004175806,0,1
-0.0004237005,0.0003853296,0,1
-0.0005969483,0.0003250413,0,1
-0.0007321107,0.0002879283,0,1
-0.0008026091,0.0003047831,0,1
-0.0008024471,0.0003653956,0,1
-0.0007522068,0.0004268184,0,1
-0.0006818705,0.0004266563,0,1
-0.0006139652,0.0003187208,0,1
-0.0005483287,0.000106091,0,1
-0.0004684305,-0.0001590478,0,1
-0.0003674638,-0.0004034423,0,1
-0.0002535319,-0.0005624284,0,1
-0.000127283,-0.0006052136,0,1
1.59827e-05,-0.0005340669,0,1
0.0001717275,-0.0003757291,0,1
0.0003148312,-0.0001747682,0,1
0.00041596,1.679302e-05,0,1
0.0004496696,0.0001483901,0,1
0.000411098,0.0001851789,0,1
0.0003282826,0.0001271595,0,1
0.0002521119,1.501031e-05,0,1
0.0002302331,-9.146661e-05,0,1
0.0002717218,-0.0001434896,0,1
0.000341734,-0.0001199901,0,1
0.0003955397,-2.226472e-05,0,1
0.0004055878,0.000143204,0,1
0.0003817642,0.0003679886,0,1
0.0003569682,0.0006237278,0,1
0.000354051,0.0008553194,0,1
0.0003717161,0.001004906,0,1
0.0003940812,0.001041046,0,1
0.0004075326,0.0009549896,0,1
0.0004106118,0.0007438183,0,1
0.0004038051,0.0004289252,0,1
0.0003848434,7.043665e-05,0,1
0.0003396272,-0.0002556388,0,1
0.0002393087,-0.0004953333,0,1
6.233338e-05,-0.0006348715,0,1
-0.0001794681,-0.0006844635,0,1
-0.0004334244,-0.0006569124,0,1
-0.0006322784,-0.00056648,0,1
-0.0007288694,-0.0004279142,0,1
-0.0007150938,-0.0002583939,0,1
-0.0006183409,-8.498399e-05,0,1
-0.0004799371,5.633696e-05,0,1
-0.0003468815,0.0001495245,0,1
-0.000253694,0.0002111094,0,1
-0.0002193361,0.0002940868,0,1
-0.0002404046,0.0004571246,0,1
-0.0002968033,0.0007334462,0,1
-0.0003647087,0.001111869,0,1
-0.0004337485,0.001524488,0,1
-0.0005091089,0.001864988,0,1
-0.0005975965,0.00203532,0,1
-0.000700508,0.001983296,0,1
-0.0008142778,0.001731932,0,1
-0.0009249684,0.001360316,0,1
-0.001013942,0.0009627688,0,1
-0.0010671,0.0006174073,0,1
-0.001076175,0.0003608578,0,1
-0.00103339,0.0001890685,0,1
-0.0009308027,7.724339e-05,0,1
-0.000772465,-2.654814e-06,0,1
-0.0005792832,-7.428769e-05,0,1
-0.0003854531,-0.0001564548,0,1
-0.0002274394,-0.0002570974,0,1
-0.0001209625,-0.0003736223,0,1
-5.240886e-05,-0.0004961436,0,1
4.638125e-06,-0.0006076446,0,1
6.881599e-05,-0.0006932151,0,1
0.0001428799,-0.0007449139,0,1
0.0002193747,-0.0007692237,0,1
0.0002777182,-0.00077992,0,1
0.000299435,-0.0007886715,0,1
0.0002867939,-0.000802285,0,1
0.0002563256,-0.0008157364,0,1
0.0002334744,-0.0008133054,0,1
0.0002370398,-0.000775058,0,1
0.0002701012,-0.0006883531,0,1
0.000321638,-0.0005659938,0,1
0.0003662059,-0.0004379622,0,1
0.0003822504,-0.0003308371,0,1
0.0003619922,-0.0002575835,0,1
0.0003164518,-0.0002131776,0,1
0.0002636185,-0.0001684476,0,1
0.0002153231,-8.40116e-05,0,1
0.0001803169,5.763349e-05,0,1
0.0001598967,0.0002341226,0,1
0.0001378558,0.0003897054,0,1
9.328786e-05,0.0004658761,0,1
2.100672e-05,0.0004255218,0,1
-7.493595e-05,0.0002744769,0,1
-0.0001734716,5.098881e-05,0,1
-0.0002455907,-0.0001898403,0,1
-0.0002632558,-0.0004016596,0,1
-0.0002135018,-0.0005538389,0,1
-0.0001182074,-0.0006420024,0,1
-2.09682e-05,-0.0006763602,0,1
3.591673e-05,-0.0006736051,0,1
4.126489e-05,-0.0006423265,0,1
1.679302e-05,-0.0005854416,0,1
-3.951337e-06,-0.0004964678,0,1
7.23117e-06,-0.0003781601,0,1
5.925414e-05,-0.0002494803,0,1
0.0001423936,-0.0001391138,0,1
0.0002367157,-7.412562e-05,0,1
0.0003269861,-6.861539e-05,0,1
0.000406074,-0.0001180453,0,1
0.0004744656,-0.0002034537,0,1
0.0005310264,-0.0002993964,0,1
0.0005673291,-0.0003883702,0,1
0.0005725152,-0.0004632444,0,1
0.0005384815,-0.0005288809,0,1
0.0004611762,-0.0005963,0,1
0.0003433547,-0.0006705259,0,1
0.0001966855,-0.0007439415,0,1
5.115087e-05,-0.0007941817,0,1
-6.035007e-05,-0.0007928851,0,1
-0.000119666,-0.0007188214,0,1
-0.0001302002,-0.0005783107,0,1
-0.0001076731,-0.0004120317,0,1
-7.299116e-05,-0.0002676316,0,1
-4.787104e-05,-0.0001859507,0,1
-5.062615e-05,-0.0001802784,0,1
-8.984595e-05,-0.0002334358,0,1
-0.0001527273,-0.000310903,0,1
-0.0002126914,-0.0003771877,0,1
-0.0002502906,-0.0004057112,0,1
-0.0002585559,-0.0003875599,0,1
-0.0002439701,-0.0003272716,0,1
-0.0002154466,-0.0002365151,0,1
-0.0001763888,-0.0001277692,0,1
-0.0001238797,-8.165035e-06,0,1
-5.013995e-05,0.000121001,0,1
4.839576e-05,0.0002621599,0,1
0.0001649207,0.0004146635,0,1
0.0002853353,0.000574622,0,1
0.0003978086,0.0007300428,0,1
0.0004906721,0.0008744431,0,1
0.0005475571,0.001007175,0,1
0.0005580913,0.001122241,0,1
0.0005203301,0.001200033,0,1
0.0004558281,0.00121397,0,1
0.0004034809,0.001147523,0,1
0.0004047775,0.001002313,0,1
0.0004721967,0.0007994067,0,1
0.0005741358,0.0005814288,0,1
0.0006585719,0.0003927847,0,1
0.0006906608,0.0002686426,0,1
0.0006660269,0.0002180782,0,1
0.000606873,0.0002174299,0,1
0.0005396159,0.0002255332,0,1
0.000480462,0.0002051129,0,1
0.000435732,0.0001363972,0,1
0.0004063981,2.003433e-05,0,1
0.0003880847,-0.0001316588,0,1
0.0003704196,-0.0003023136,0,1
0.0003433547,-0.0004851232,0,1
0.0002986247,-0.0006820326,0,1
0.0002396328,-0.0008782936,0,1
0.0001825859,-0.001039549,0,1
0.0001329939,-0.001141326,0,1
8.550872e-05,-0.001176008,0,1
4.02925e-05,-0.001156074,0,1
-2.330684e-06,-0.001106806,0,1
-5.305713e-05,-0.001047166,0,1
-0.0001237176,-0.0009930359,0,1
-0.0002123673,-0.0009543023,0,1
-0.0003078238,-0.000921403,0,1
-0.0003922598,-0.0008530114,0,1
-0.0004405553,-0.0006992114,0,1
-0.0004369898,-0.0004378002,0,1
-0.0003848048,-0.0001002181,0,1
-0.0002964792,0.000264753,0,1
-0.0001854645,0.0006498204,0,1
-6.407757e-05,0.001105224,0,1
6.103686e-05,0.001674237,0,1
0.0001833962,0.002312128,0,1
0.0002791768,0.002875632,0,1
0.0003214759,0.003183397,0,1
0.000307052,0.003117436,0,1
0.0002503292,0.002696063,0,1
0.0001709172,0.002063681,0,1
7.951231e-05,0.001409097,0,1
-2.46957e-05,0.0008822222,0,1
-0.0001399241,0.0005543638,0,1
-0.000266173,0.0004128807,0,1
-0.0004039285,0.0004055878,0,1
-0.0005499493,0.0004812723,0,1
-0.0006878669,0.0006023352,0,1
-0.0007936955,0.0007436562,0,1
-0.0008479874,0.0008765499,0,1
-0.0008539838,0.0009640653,0,1
-0.0008319429,0.0009687652,0,1
-0.0008087676,0.0008734707,0,1
-0.0008013126,0.000693416,0,1
-0.0008081193,0.0004736553,0,1
-0.0008131433,0.0002645909,0,1
-0.0007914266,9.847395e-05,0,1
-0.000720442,-1.772689e-05,0,1
-0.0005985689,-9.989401e-05,0,1
-0.0004467137,-0.0001770371,0,1
-0.0002964792,-0.0002653627,0,1
-0.00016942,-0.0003574158,0,1
-7.590833e-05,-0.0004360174,0,1
-1.902341e-05,-0.0004847991,0,1
4.313994e-06,-0.0005029504,0,1
-2.238346e-07,-0.0005006815,0,1
-2.615429e-05,-0.0004841508,0,1
-6.877746e-05,-0.0004565997,0,1
-0.0001195039,-0.000427428,0,1
-0.0001747682,-0.000410249,0,1
-0.0002326255,-0.0004167317,0,1
-0.0002823795,-0.0004491447,0,1
-0.0003019894,-0.0005045711,0,1
-0.000263742,-0.0005716661,0,1
-0.0001556445,-0.0006426507,0,1
4.47606e-06,-0.0007194696,0,1
0.0001824238,-0.0008115227,0,1
0.0003485408,-0.0009210788,0,1
0.000485486,-0.00102869,0,1
0.0005815908,-0.001100809,0,1
0.0006256726,-0.001111181,0,1
0.0006101143,-0.001059807,0,1
0.0005355643,-0.0009701846,0,1
0.0004239012,-0.0008789418,0,1
0.0003028383,-0.0008136295,0,1
0.0002034923,-0.0007826751,0,1
0.0001451488,-0.000777489,0,1
0.0001257009,-0.0007810544,0,1
0.000135749,-0.0007739235,0,1
0.0001595726,-0.0007436173,0,1
0.0001793446,-0.0006928909,0,1
0.0001795066,-0.0006298475,0,1
0.0001477418,-0.0005593491,0,1
7.935024e-05,-0.0004812336,0,1
-2.939559e-05,-0.0003919357,0,1
-0.0001724993,-0.0002728177,0,1
-0.0003340784,-0.0001016767,0,1
-0.0004987367,0.0001205148,0,1
-0.000648485,0.0003655576,0,1
-0.0007539895,0.000591801,0,1
-0.0007852681,0.0007566215,0,1
-0.0007313004,0.0008293889,0,1
-0.0006133168,0.0007995688,0,1
-0.0004755614,0.000681099,0,1
-0.0003656811,0.0005097958,0,1
-0.0003091203,0.0003334687,0,1
-0.0003055549,0.000190365,0,1
-0.0003300267,0.0001033359,0,1
-0.000350447,6.557468e-05,0,1
-0.0003493125,4.985435e-05,0,1
-0.000335537,1.954813e-05,0,1
-0.0003287302,-4.576419e-05,0,1
-0.0003463953,-0.0001434896,0,1
-0.0003937184,-0.0002457528,0,1
-0.0004703753,-0.0003199787,0,1
-0.0005642111,-0.0003434782,0,1
-0.0006497815,-0.0003173856,0,1
-0.0006992114,-0.0002697385,0,1
-0.0006901358,-0.0002405667,0,1
-0.0006040792,-0.0002441321,0,1
-0.0004284004,-0.0002679557,0,1
-0.000166827,-0.0002922655,0,1
0.000158114,-0.0003079858,0,1
0.0005042856,-0.0003188442,0,1
0.0008284165,-0.0003308371,0,1
0.001090152,-0.0003423437,0,1
0.001258863,-0.0003497987,0,1
0.001319637,-0.000350609,0,1
0.001284955,-0.0003374817,0,1
0.001183664,-0.0002998826,0,1
0.001052067,-0.0002378116,0,1
0.0009269523,-0.0001613168,0,1
0.0008254994,-8.417367e-05,0,1
0.0007428459,-1.967167e-05,0,1
0.000659058,2.959619e-05,0,1
0.000562143,7.092284e-05,0,1
0.0004546936,0.000113546,0,1
0.0003461098,0.000165569,0,1
0.0002483844,0.0002360674,0,1
0.0001717275,0.0003422202,0,1
0.0001201907,0.0005031512,0,1
9.652917e-05,0.0007125397,0,1
0.0001081979,0.0009175525,0,1
0.0001524417,0.001042829,0,1
0.0002159713,0.001037319,0,1
0.0002798251,0.0009024804,0,1
0.0003321722,0.000685961,0,1
0.0003722023,0.0004459421,0,1
0.0004021844,0.0002337985,0,1
0.000418553,7.886404e-05,0,1
0.0004164462,-1.156841e-05,0,1
0.0003953777,-5.143648e-05,0,1
0.0003645853,-6.407757e-05,0,1
0.0003376824,-7.007399e-05,0,1
0.0003198552,-7.542214e-05,0,1
0.0003065659,-8.514606e-05,0,1
0.0002884145,-0.0001020008,0,1
0.0002530843,-0.0001313347,0,1
0.0001932822,-0.0001762268,0,1
0.0001106288,-0.0002293842,0,1
1.808955e-05,-0.0002699005,0,1
-6.618442e-05,-0.0002749245,0,1
-0.0001240417,-0.0002318152,0,1
-0.0001410586,-0.000147055,0,1
-0.00010978,-4.219875e-05,0,1
-3.879538e-05,6.103686e-05,0,1
5.244739e-05,0.0001522796,0,1
0.0001433661,0.0002357433,0,1
0.0002182402,0.000311914,0,1
0.0002645909,0.0003778746,0,1
0.0002707494,0.0004292493,0,1
0.000225209,0.0004590694,0,1
0.0001166253,0.0004665244,0,1
-4.657452e-05,0.00046069,0,1
-0.0002344082,0.0004590694,0,1
-0.0004204592,0.0004781931,0,1
-0.000586252,0.0005247059,0,1
-0.0007197938,0.0005887217,0,1
-0.0008116848,0.0006400964,0,1
-0.0008572251,0.0006469032,0,1
-0.0008533355,0.0005977973,0,1
-0.0008055263,0.0005020167,0,1
-0.0007240074,0.0003848434,0,1
-0.0006133168,0.0002736666,0,1
-0.0004775062,0.0001856651,0,1
-0.0003402368,0.0001167873,0,1
-0.0002386219,4.272347e-05,0,1
-0.0001987538,-5.613637e-05,0,1
-0.0002237119,-0.0001712027,0,1
-0.0002908069,-0.0002799486,0,1
-0.0003591985,-0.0003579019,0,1
-0.0003823738,-0.0003919357,0,1
-0.0003201407,-0.0003885323,0,1
-0.0001613168,-0.0003711913,0,1
7.189524e-05,-0.0003788084,0,1
0.0003389789,-0.0004463896,0,1
0.0006021731,-0.0005800935,0,1
0.0008280924,-0.000750424,0,1
0.0009830269,-0.0009047102,0,1
0.001037157,-0.0009839601,0,1
0.0009650377,-0.0009515471,0,1
0.0007749349,-0.0007954782,0,1
0.0005144958,-0.0005238568,0,1
0.0002451431,-0.0001451102,0,1
1.760335e-05,0.000319207,0,1
-0.0001408965,0.0008026481,0,1
-0.000226467,0.001200843,0,1
-0.0002509389,0.001407477,0,1
-0.0002357047,0.001364853,0,1
-0.0002081536,0.001106359,0,1
-0.0001956746,0.0007316634,0,1
-0.0002100984,0.0003535648,0,1
-0.0002433218,5.633696e-05,0,1
-0.0002674695,-0.0001282554,0,1
-0.0002648765,-0.0002128535,0,1
-0.0002459149,-0.0002344082,0,1
-0.0002376495,-0.0002298704,0,1
-0.0002617972,-0.0002237119,0,1
-0.0003204649,-0.0002233878,0,1
-0.0003920977,-0.0002276015,0,1
-0.0004481723,-0.0002368392,0,1
-0.0004692408,-0.0002523975,0,1
-0.0004585445,-0.0002723315,0,1
-0.0004332623,-0.0002882139,0,1
-0.0004146248,-0.0002872415,0,1
-0.0004133283,-0.0002596904,0,1
-0.0004206212,-0.0002147983,0,1
-0.0004170558,-0.0001760647,0,1
-0.0003873979,-0.0001712027,0,1
-0.0003353749,-0.0002175534,0,1
-0.0002807589,-0.0003081479,0,1
-0.0002335979,-0.0004141386,0,1
-0.0001853024,-0.0004959816,0,1
-0.0001240417,-0.0005189948,0,1
-4.414354e-05,-0.0004604893,0,1
3.98063e-05,-0.0003238683,0,1
0.0001083599,-0.0001455964,0,1
0.0001509831,2.262738e-05,0,1
0.0001791825,0.0001368834,0,1
0.0002154851,0.0001871237,0,1
0.0002807975,0.0001910133,0,1
0.0003835469,0.0001759412,0,1
0.000522599,0.0001636242,0,1
0.0006807749,0.0001777239,0,1
0.0008287407,0.0002376881,0,1
0.000933597,0.0003503235,0,1
0.0009778409,0.0004841895,0,1
0.0009695755,0.0005730013,0,1
0.0009245213,0.0005590637,0,1
0.0008473782,0.0004334631,0,1
0.0007259911,0.0002367157,0,1
0.0005456123,3.024445e-05,0,1
0.0003010556,-0.0001263107,0,1
3.827799e-06,-0.0002031296,0,1
-0.0003168994,-0.0001974573,0,1
-0.0006262821,-0.0001185315,0,1
-0.0008906106,2.489629e-05,0,1
-0.001073744,0.00021273,0,1
-0.001143919,0.0004128807,0,1
-0.001082172,0.0005814288,0,1
-0.0009087619,0.0006721854,0,1
-0.0006723086,0.0006434998,0,1
-0.0004298589,0.000478031,0,1
-0.0002310048,0.0001984683,0,1
-0.0001089697,-0.0001378173,0,1
-6.423963e-05,-0.0004669719,0,1
-5.953974e-05,-0.0007313004,0,1
-3.701266e-05,-0.0008868831,0,1
3.98063e-05,-0.0009160548,0,1
0.0001684862,-0.0008327533,0,1
0.000309483,-0.0006761982,0,1
0.0004138531,-0.0005053814,0,1
0.0004449697,-0.0003783222,0,1
0.0003965121,-0.0003199787,0,1
0.0002936006,-0.0003045825,0,1
0.0001791825,-0.0002872415,0,1
9.571884e-05,-0.0002381357,0,1
5.876794e-05,-0.0001536997,0,1
5.601284e-05,-4.446767e-05,0,1
5.730935e-05,7.821578e-05,0,1
3.818565e-05,0.0002094887,0,1
-5.734056e-06,0.0003344411,0,1
-6.39155e-05,0.0004145014,0,1
-0.0001170729,0.0004062361,0,1
-0.0001496481,0.0002887387,0,1
-0.00015451,9.020862e-05,0,1
-0.0001284175,-0.0001255003,0,1
-8.595638e-05,-0.0002946965,0,1
-4.689865e-05,-0.00038286,0,1
-2.46957e-05,-0.0003932322,0,1
-2.307504e-05,-0.0003491504,0,1
-3.960571e-05,-0.000276221,0,1
-6.39155e-05,-0.0002008607,0,1
-7.898758e-05,-0.0001381414,0,1
-6.748094e-05,-9.260107e-05,0,1
-2.161646e-05,-5.775702e-05,0,1
4.547859e-05,-2.275091e-05,0,1
0.0001049566,2.165498e-05,0,1
0.0001313732,7.384002e-05,0,1
0.0001177597,0.0001235941,0,1
7.367795e-05,0.000162976,0,1
1.825161e-05,0.0001882582,0,1
-3.069211e-05,0.0001971717,0,1
-6.39155e-05,0.0001902029,0,1
-8.384954e-05,0.0001665414,0,1
-9.811128e-05,0.0001292664,0,1
-0.0001107524,7.643307e-05,0,1
-0.0001195039,1.112074e-05,0,1
-0.0001199901,-5.451572e-05,0,1
-0.000104756,-0.0001010285,0,1
-6.877746e-05,-0.0001131834,0,1
-7.516774e-06,-8.579432e-05,0,1
8.486046e-05,-2.955766e-05,0,1
0.0002135403,4.483033e-05,0,1
0.000368961,0.000123432,0,1
0.0005266506,0.0001887444,0,1
0.0006491721,0.0002266676,0,1
0.0007044364,0.0002302331,0,1
0.0006815852,0.0002054371,0,1
0.0005950422,0.0001671896,0,1
0.0004668485,0.0001305629,0,1
0.0003250413,0.0001093323,0,1
0.0001984683,0.0001124116,0,1
0.0001140322,0.0001454729,0,1
8.615699e-05,0.0001994406,0,1
0.0001112771,0.0002543808,0,1
0.0001684862,0.0002838767,0,1
0.0002232643,0.0002710735,0,1
0.0002386605,0.0002130541,0,1
0.0001908512,0.0001188942,0,1
8.291568e-05,8.041497e-06,0,1
-5.662256e-05,-9.454585e-05,0,1
-0.0001807646,-0.0001724993,0,1
-0.0002472114,-0.0002241981,0,1
-0.0002493182,-0.0002554767,0,1
-0.000208964,-0.0002752487,0,1
-0.0001460826,-0.0002856209,0,1
-7.250496e-05,-0.0002888622,0,1
1.396819e-06,-0.0003040963,0,1
5.94162e-05,-0.0003493125,0,1
8.259155e-05,-0.0004253211,0,1
6.703327e-05,-0.0005112157,0,1
3.121684e-05,-0.0005757177,0,1
3.341602e-06,-0.0005985689,0,1
4.151929e-06,-0.0005778245,0,1
3.105477e-05,-0.0005313118,0,1
6.071273e-05,-0.0004893369,0,1
7.157111e-05,-0.0004643789,0,1
5.682316e-05,-0.0004413656,0,1
2.01964e-05,-0.0003932322,0,1
-3.26369e-05,-0.0002921034,0,1
-0.0001015147,-0.0001235555,0,1
-0.0001856265,0.0001195424,0,1
-0.0002783279,0.0004370285,0,1
-0.0003638984,0.0008217718,0,1
-0.0004238625,0.001251408,0,1
-0.0004446069,0.001658679,0,1
-0.0004267797,0.001944401,0,1
-0.0003854531,0.00201263,0,1
-0.0003452609,0.001827551,0,1
-0.000328082,0.001455124,0,1
-0.0003478539,0.001034402,0,1
-0.0004042526,0.0006987641,0,1
-0.0004835025,0.0004999099,0,1
-0.0005697213,0.0003969983,0,1
-0.0006499436,0.0003161277,0,1
-0.0007197938,0.0002154851,0,1
-0.0007744097,9.750156e-05,0,1
-0.0008060125,-1.3027e-05,0,1
-0.0008058504,-9.616651e-05,0,1
-0.0007708443,-0.0001417068,0,1
-0.0007060182,-0.0001572651,0,1
-0.0006241752,-0.0001621271,0,1
-0.0005381186,-0.0001861127,0,1
-0.0004514136,-0.0002483458,0,1
-0.0003593606,-0.0003483401,0,1
-0.0002540181,-0.0004664857,0,1
-0.0001366828,-0.0005755557,0,1
-2.534396e-05,-0.0006595054,0,1
5.957827e-05,-0.0007094215,0,1
0.0001119254,-0.0007251419,0,1
0.0001312112,-0.0007092595,0,1
0.0001252147,-0.0006726327,0,1
0.000110953,-0.0006308199,0,1
0.0001151667,-0.0005972724,0,1
0.0001634622,-0.0005747453,0,1
0.0002726942,-0.0005518941,0,1
0.0004354078,-0.0005089468,0,1
0.0006185417,-0.0004220798,0,1
0.000777528,-0.0002750866,0,1
0.0008807636,-7.315322e-05,0,1
0.0009177146,0.0001445005,0,1
0.000893891,0.0003075383,0,1
0.0008190167,0.000353889,0,1
0.0007081639,0.0002691288,0,1
0.0005851563,9.733949e-05,0,1
0.0004739794,-9.649064e-05,0,1
0.0003801436,-0.0002545043,0,1
0.0002948972,-0.0003525538,0,1
0.0002064095,-0.0003963114,0,1
0.0001122495,-0.0004060354,0,1
2.100672e-05,-0.0003971218,0,1
-5.176061e-05,-0.0003700569,0,1
-9.551824e-05,-0.0003199787,0,1
-0.0001039456,-0.0002506147,0,1
-7.60704e-05,-0.0001737958,0,1
-1.351319e-05,-0.0001076731,0,1
7.448828e-05,-6.569822e-05,0,1
0.0001686482,-4.625038e-05,0,1
0.0002436845,-3.134038e-05,0,1
0.0002705873,4.151929e-06,0,1
0.0002415777,8.291568e-05,0,1
0.0001842065,0.0002167816,0,1
0.0001428799,0.0004046154,0,1
0.0001498487,0.0006363689,0,1
0.000207706,0.0009003736,0,1
0.0002989488,0.00117945,0,1
0.0004013741,0.001436324,0,1
0.000487917,0.001622214,0,1
0.0005418848,0.001696278,0,1
0.0005627912,0.001643606,0,1
0.0005576051,0.001473599,0,1
0.0005282713,0.001224018,0,1
0.0004709002,0.0009478587,0,1
0.000383709,0.0006911471,0,1
0.0002654013,0.0004841895,0,1
0.000118408,0.0003337929,0,1
-4.284701e-05,0.0002321778,0,1
-0.0001908126,0.0001650828,0,1
-0.0003013411,0.0001169494,0,1
-0.0003638984,6.914012e-05,0,1
-0.0003924218,5.772582e-06,0,1
-0.0004134903,-7.995997e-05,0,1
-0.0004483344,-0.0001895161,0,1
-0.0005061917,-0.0003225718,0,1
-0.0005773384,-0.0004741028,0,1
-0.0006369784,-0.0006371404,0,1
-0.0006577228,-0.0008032574,0,1
-0.0006222305,-0.0009602986,0,1
-0.0005337428,-0.001090275,0,1
-0.000420135,-0.001180383,0,1
-0.0003147926,-0.001231434,0,1
-0.000243808,-0.001259633,0,1
-0.0002143121,-0.00128216,0,1
-0.0002146363,-0.001302094,0,1
-0.0002199844,-0.001300312,0,1
-0.0002120432,-0.001258175,0,1
-0.000176713,-0.001171956,0,1
-0.0001088076,-0.001050893,0,1
-1.027188e-05,-0.000916379,0,1
0.0001030118,-0.000789806,0,1
0.0002090025,-0.0006843015,0,1
0.0002953834,-0.0005993792,0,1
0.0003597233,-0.0005212637,0,1
0.000408505,-0.0004356933,0,1
0.0004521006,-0.0003376438,0,1
0.0004922928,-0.0002381357,0,1
0.0005135234,-0.0001600202,0,1
0.0004932652,-0.0001229073,0,1
0.0004151496,-0.0001311726,0,1
0.0002767458,-0.0001773612,0,1
0.0001017153,-0.0002382978,0,1
-6.764301e-05,-0.0002895104,0,1
-0.0001948643,-0.0003097686,0,1
-0.0002622834,-0.0002877277,0,1
-0.0002731418,-0.0002245222,0,1
-0.0002408908,-0.0001337657,0,1
-0.0001812508,-3.085418e-05,0,1
-0.0001102662,7.254349e-05,0,1
-3.782299e-05,0.0001691344,0,1
2.278944e-05,0.0002556773,0,1
5.828175e-05,0.0003381686,0,1
6.930219e-05,0.000425846,0,1
6.589881e-05,0.0005260024,0,1
5.358185e-05,0.0006329655,0,1
3.364782e-05,0.0007319876,0,1
3.665733e-06,0.0008160995,0,1
-3.247483e-05,0.0008921082,0,1
-6.683268e-05,0.0009729789,0,1
-8.595638e-05,0.001070218,0,1
-8.352541e-05,0.001176533,0,1
-6.602235e-05,0.001263887,0,1
-4.495386e-05,0.001290789,0,1
-3.522994e-05,0.001228556,0,1
-4.608832e-05,0.001079618,0,1
-7.201877e-05,0.0008793051,0,1
-0.0001042698,0.0006692683,0,1
-0.0001314967,0.0004796517,0,1
-0.0001383035,0.0003182346,0,1
-0.0001109144,0.0001795066,0,1
-5.176061e-05,5.730935e-05,0,1
2.052053e-05,-4.949169e-05,0,1
8.129502e-05,-0.0001365208,0,1
0.0001091703,-0.0002037779,0,1
9.944634e-05,-0.000256287,0,1
6.103686e-05,-0.0003016653,0,1
8.851824e-06,-0.0003449367,0,1
-3.733679e-05,-0.0003872358,0,1
-5.305713e-05,-0.0004209454,0,1
-1.886135e-05,-0.0004491447,0,1
6.492643e-05,-0.0004792889,0,1
0.0001786963,-0.0005204534,0,1
0.0002929524,-0.0005734488,0,1
0.0003783608,-0.0006188271,0,1
0.0004102877,-0.0006178547,0,1
0.0003704196,-0.0005403875,0,1
0.000257298,-0.0003804291,0,1
8.210535e-05,-0.000161965,0,1
-0.0001306864,6.427817e-05,0,1
-0.0003489884,0.0002391467,0,1
-0.0005458977,0.0003183966,0,1
-0.0007089354,0.0002812837,0,1
-0.00083956,0.000145797,0,1
-0.0009359888,-4.85193e-05,0,1
-0.0009867153,-0.0002467252,0,1
-0.0009700225,-0.0004029561,0,1
-0.0008813728,-0.0005008436,0,1
-0.0007423208,-0.0005402254,0,1
-0.000591438,-0.0005377944,0,1
-0.0004557894,-0.0005185087,0,1
-0.0003410472,-0.0005008436,0,1
-0.0002480217,-0.0004937127,0,1
-0.0001797922,-0.0004922541,0,1
-0.0001472171,-0.0004791268,0,1
-0.0001507825,-0.0004306693,0,1
-0.0001749302,-0.0003225718,0,1
-0.0001900023,-0.0001355484,0,1
-0.0001677994,0.0001459591,0,1
-9.260107e-05,0.0005188715,0,1
3.235129e-05,0.0009397555,0,1
0.0001816135,0.001320609,0,1
0.0003198552,0.001561277,0,1
0.0004264942,0.001603738,0,1
0.0004921307,0.001469386,0,1
0.0005140096,0.001243142,0,1
0.0004968306,0.001029054,0,1
0.0004542074,0.0008945392,0,1
0.0003995914,0.0008438127,0,1
0.0003477304,0.0008337647,0,1
0.0003172622,0.0008190167,0,1
0.0003245551,0.0007725039,0,1
0.0003694472,0.0006870955,0,1
0.0004388112,0.0005674912,0,1
0.0005164405,0.0004232529,0,1
0.0005838597,0.0002775562,0,1
0.000626645,0.0001571416,0,1
0.0006451205,7.076078e-05,0,1
0.0006407447,5.124321e-06,0,1
0.0006195141,-5.727083e-05,0,1
0.0005921251,-0.0001292278,0,1
0.0005657084,-0.0002029675,0,1
0.000534754,-0.0002480217,0,1
0.0004961824,-0.0002357047,0,1
0.0004529109,-0.0001650443,0,1
0.0004102877,-7.33153e-05,0,1
0.0003767402,-1.286493e-05,0,1
0.0003576164,-2.113026e-05,0,1
0.0003574544,-0.0001026491,0,1
0.0003799815,-0.0002370013,0,1
0.0004148255,-0.0004021458,0,1
0.0004439973,-0.0005784728,0,1
0.0004555039,-0.0007419967,0,1
0.00044578,-0.0008573871,0,1
0.000418391,-0.0009029275,0,1
0.0003790091,-0.000886721,0,1
0.0003248792,-0.0008324291,0,1
0.000250005,-0.000755124,0,1
0.0001511452,-0.0006499436,0,1
4.223728e-05,-0.0004964678,0,1
-4.981582e-05,-0.0002872415,0,1
-0.0001071869,-5.69467e-05,0,1
-0.000134738,0.0001321835,0,1
-0.0001571031,0.000220185,0,1
-0.0001974573,0.0001748067,0,1
-0.0002579077,4.962256e-06,0,1
-0.0003264613,-0.0002319772,0,1
-0.0003908012,-0.000452386,0,1
-0.0004444448,-0.0005836589,0,1
-0.0004933886,-0.0005946793,0,1
-0.0005413599,-0.0004979264,0,1
-0.0005935449,-0.0003319715,0,1
-0.0006445955,-0.0001292278,0,1
-0.000680736,9.68533e-05,0,1
-0.000683005,0.0003504856,0,1
-0.0006444334,0.0006195141,0,1
-0.0005791211,0.0008637467,0,1
-0.0005092709,0.001025488,0,1
-0.0004544929,0.001066653,0,1
-0.0004253211,0.0009942095,0,1
-0.0004272659,0.0008460816,0,1
-0.0004549791,0.0006653786,0,1
-0.0004938748,0.0004843516,0,1
-0.0005185087,0.0003149933,0,1
-0.0005173742,0.0001568175,0,1
-0.0004967919,5.934648e-06,0,1
-0.0004718339,-0.000134576,0,1
-0.0004553032,-0.0002580697,0,1
-0.0004502792,-0.0003601709,0,1
-0.0004504412,-0.000437314,0,1
-0.000444769,-0.0004888507,0,1
-0.0004241867,-0.0005259637,0,1
-0.0003870737,-0.0005621043,0,1
-0.0003418575,-0.000598893,0,1
-0.0002951827,-0.0006256338,0,1
-0.0002434839,-0.0006327647,0,1
-0.0001836818,-0.0006207718,0,1
-0.0001167488,-0.0006003517,0,1
-4.544006e-05,-0.0005852795,0,1
2.01964e-05,-0.0005935449,0,1
6.654708e-05,-0.000633575,0,1
8.518459e-05,-0.0006885151,0,1
8.372601e-05,-0.0007277349,0,1
7.983644e-05,-0.0007298418,0,1
8.340187e-05,-0.000695646,0,1
9.733949e-05,-0.000643461,0,1
0.0001143563,-0.000591438,0,1
0.0001247285,-0.0005499493,0,1
0.0001198666,-0.000519481,0,1
0.0001098185,-0.0004893369,0,1
0.0001219734,-0.0004403932,0,1
0.0001791825,-0.0003609812,0,1
0.0002777182,-0.0002507768,0,1
0.0003869503,-0.0001256624,0,1
0.0004689553,-3.858999e-07,0,1
0.0004984512,0.0001146805,0,1
0.0004739794,0.000220185,0,1
0.0004106118,0.000321638,0,1
0.0003266619,0.000413529,0,1
0.0002310434,0.0004796517,0,1
0.0001354248,0.000507527,0,1
5.228533e-05,0.0004969927,0,1
-8.165035e-06,0.0004632831,0,1
-3.68506e-05,0.0004245494,0,1
-2.501983e-05,0.0003926226,0,1
3.60788e-05,0.0003702575,0,1
0.0001389903,0.0003493511,0,1
0.0002547049,0.000321638,0,1
0.0003459477,0.0002837146,0,1
0.0003841952,0.0002367157,0,1
0.000359075,0.0001856651,0,1
0.0002791768,0.0001420695,0,1
0.0001658931,0.0001153287,0,1
4.45062e-05,0.0001150046,0,1
-6.407757e-05,0.0001419075,0,1
-0.0001464067,0.0001832341,0,1
-0.0001925954,0.000220023,0,1
-0.0001981056,0.0002441707,0,1
-0.0001674752,0.0002602152,0,1
-0.0001143178,0.0002842008,0,1
-5.32192e-05,0.0003363859,0,1
-2.654814e-06,0.0004217943,0,1
2.862379e-05,0.0005378332,0,1
5.082674e-05,0.0006772094,0,1
9.020862e-05,0.0008300372,0,1
0.0001621656,0.0009857821,0,1
0.0002493568,0.001131317,0,1
0.0003190449,0.001242332,0,1
0.0003493511,0.001284307,0,1
0.0003412479,0.001227746,0,1
0.0003078624,0.001078159,0,1
0.0002558394,0.0008663398,0,1
0.0001717275,0.0006264829,0,1
4.110282e-05,0.0003845193,0,1
-0.0001323071,0.0001624898,0,1
-0.0003146305,-2.372331e-05,0,1
-0.0004509274,-0.0001752544,0,1
-0.0004951713,-0.0002977757,0,1
-0.0004418518,-0.0003987424,0,1
-0.0003316474,-0.0004877163,0,1
-0.0002175534,-0.0005724764,0,1
-0.0001386276,-0.0006526987,0,1
-0.0001007043,-0.0007175248,0,1
-8.676672e-05,-0.0007577171,0,1
-8.060823e-05,-0.0007737615,0,1
-7.801519e-05,-0.0007818647,0,1
-8.222889e-05,-0.000814764,0,1
-9.454585e-05,-0.0009111929,0,1
-0.0001081593,-0.001074068,0,1
-0.0001089697,-0.001260282,0,1
-8.644259e-05,-0.001405816,0,1
-4.252288e-05,-0.001460108,0,1
3.179537e-06,-0.001405816,0,1
3.089271e-05,-0.001274057,0,1
2.522042e-05,-0.001126578,0,1
-1.464765e-05,-0.00101378,0,1
-7.201877e-05,-0.0009442542,0,1
-0.0001279313,-0.0008787798,0,1
-0.0001608306,-0.000772465,0,1
-0.0001579134,-0.0006094273,0,1
-0.0001208004,-0.0004063595,0,1
-6.407757e-05,-0.0001828714,0,1
-2.81688e-06,5.52025e-05,0,1
5.536457e-05,0.0003287688,0,1
0.0001054428,0.0006674855,0,1
0.0001449867,0.001068922,0,1
0.0001756171,0.001479596,0,1
0.0002043026,0.001802755,0,1
0.0002381743,0.001953638,0,1
0.0002863077,0.001915067,0,1
0.0003542131,0.001735174,0,1
0.0004428628,0.001485106,0,1
0.0005357263,0.00122337,0,1
0.0006049282,0.0009791374,0,1
0.0006319932,0.0007525698,0,1
0.0006104385,0.0005292437,0,1
0.0005493398,0.000309321,0,1
0.0004674968,0.0001114392,0,1
0.0003749574,-4.657452e-05,0,1
0.0002767458,-0.0001564548,0,1
0.0001731861,-0.0002225774,0,1
6.298164e-05,-0.0002572594,0,1
-5.662256e-05,-0.0002716832,0,1
-0.0001788198,-0.0002703867,0,1
-0.0002891863,-0.0002583939,0,1
-0.0003810773,-0.0002400805,0,1
-0.0004624341,-0.0002204706,0,1
-0.0005303394,-0.0002000504,0,1
-0.0005700454,-0.000176713,0,1
-0.0005621043,-0.0001451102,0,1
-0.0004977643,-9.778715e-05,0,1
-0.0003823738,-3.522994e-05,0,1
-0.0002394322,3.218923e-05,0,1
-9.503204e-05,8.810177e-05,0,1
2.975825e-05,0.0001169494,0,1
0.0001287802,0.0001193804,0,1
0.0002067336,0.0001203528,0,1
0.0002658874,0.000160707,0,1
0.0003059176,0.0002694529,0,1
0.0003320101,0.0004524247,0,1
0.0003535648,0.0006872575,0,1
0.0003702575,0.0009173905,0,1
0.0003741471,0.00106487,0,1
0.0003569682,0.001054822,0,1
0.000319369,0.0008588848,0,1
0.0002663737,0.0005128751,0,1
0.0002072198,9.993253e-05,0,1
0.0001526038,-0.0002841623,0,1
0.0001106288,-0.0005703696,0,1
7.951231e-05,-0.0007342176,0,1
4.709924e-05,-0.0007828371,0,1
-2.006553e-06,-0.0007418346,0,1
-6.91016e-05,-0.0006415162,0,1
-0.0001378173,-0.0005099192,0,1
-0.0001820611,-0.0003736223,0,1
-0.0001775233,-0.0002540181,0,1
-0.0001126972,-0.000166989,0,1
4.962256e-06,-0.0001201522,0,1
0.0001501728,-0.0001114006,0,1
0.0002850112,-0.0001339277,0,1
0.0003746333,-0.0001734716,0,1
0.00040105,-0.0002170672,0,1
0.0003616681,-0.0002509389,0,1
0.0002710735,-0.000263742,0,1
0.0001560072,-0.0002483458,0,1
4.256141e-05,-0.000208964,0,1
-4.106429e-05,-0.0001671511,0,1
-7.396356e-05,-0.0001433275,0,1
-5.856735e-05,-0.0001430034,0,1
-2.242678e-05,-0.0001647201,0,1
-7.516774e-06,-0.0002039399,0,1
-5.046408e-05,-0.0002525595,0,1
-0.0001603444,-0.0003024756,0,1
-0.0003227338,-0.0003462333,0,1
-0.0005039228,-0.0003760533,0,1
-0.0006676087,-0.0003861013,0,1
-0.0007902921,-0.0003732982,0,1
-0.0008646801,-0.0003365093,0,1
-0.0008914209,-0.000283514,0,1
-0.0008698662,-0.0002246843,0,1
-0.0008081193,-0.0001750923,0,1
-0.0007222248,-0.0001442999,0,1
-0.0006379507,-0.0001326312,0,1
-0.0005773384,-0.0001310105,0,1
-0.0005509217,-0.0001313347,0,1
-0.000554163,-0.0001280934,0,1
-0.0005700454,-0.000114804,0,1
-0.000576366,-9.324933e-05,0,1
-0.0005606457,-6.958779e-05,0,1
-0.0005215878,-5.095028e-05,0,1
-0.0004531963,-3.668853e-05,0,1
-0.0003447747,-2.534396e-05,0,1
-0.0001961608,-1.869928e-05,0,1
-2.712668e-05,-1.67545e-05,0,1
0.0001313732,-2.080613e-05,0,1
0.0002602152,-3.26369e-05,0,1
0.0003545372,-5.240886e-05,0,1
0.0004167703,-7.850138e-05,0,1
0.00044578,-0.0001054042,0,1
0.000443187,-0.0001251762,0,1
0.0004149876,-0.0001323071,0,1
0.0003743092,-0.0001285796,0,1
0.0003373583,-0.000119666,0,1
0.0003185587,-0.0001112386,0,1
0.0003237448,-0.0001013526,0,1
0.0003396272,-7.898758e-05,0,1
0.0003363859,-3.766092e-05,0,1
0.0002939248,2.197911e-05,0,1
0.0002132162,9.053275e-05,0,1
0.0001235941,0.0001547106,0,1
6.476436e-05,0.0002039785,0,1
6.508849e-05,0.0002290986,0,1
0.000120839,0.0002299089,0,1
0.0002038164,0.0002166196,0,1
0.0002864697,0.0002046267,0,1
0.0003498373,0.0002080301,0,1
0.000378685,0.0002389846,0,1
0.0003707437,0.0003034866,0,1
0.0003414099,0.0003940812,0,1
0.0003239069,0.0004981271,0,1
0.0003529166,0.0005955285,0,1
0.0004425387,0.0006658648,0,1
0.0005788357,0.000696009,0,1
0.0007203188,0.0006820714,0,1
0.0008269579,0.0006345862,0,1
0.0008676364,0.0005702463,0,1
0.0008301992,0.0005102821,0,1
0.000715781,0.0004670106,0,1
0.0005384815,0.0004371906,0,1
0.0003282826,0.0004132049,0,1
0.0001281319,0.0003858158,0,1
-2.971972e-05,0.0003524304,0,1
-0.0001489998,0.0003102934,0,1
-0.0002567732,0.0002595669,0,1
-0.0003632501,0.0002008992,0,1
-0.0004467137,0.0001299146,0,1
-0.0004703753,5.050261e-05,0,1
-0.0004073319,-2.858527e-05,0,1
-0.0002527216,-9.341139e-05,0,1
-2.745081e-05,-0.0001324691,0,1
0.0002214815,-0.0001384655,0,1
0.0004365423,-0.0001167488,0,1
0.0005660325,-9.486997e-05,0,1
0.0005819149,-0.0001018388,0,1
0.0004932652,-0.0001504584,0,1
0.000334117,-0.0002342462,0,1
0.0001513072,-0.0003277578,0,1
-7.354709e-06,-0.0004008493,0,1
-0.0001091317,-0.0004371519,0,1
-0.0001556445,-0.0004387725,0,1
-0.0001804405,-0.0004196489,0,1
-0.0002245222,-0.000390315,0,1
-0.000303448,-0.0003593606,0,1
-0.0004049009,-0.0003269475,0,1
-0.0005074882,-0.0002924276,0,1
-0.000588845,-0.0002626076,0,1
-0.0006343853,-0.0002493182,0,1
-0.0006400577,-0.0002673075,0,1
-0.000608779,-0.0003165753,0,1
-0.0005478425,-0.0003848048,0,1
-0.0004744269,-0.000449955,0,1
-0.0004087905,-0.0004891749,0,1
-0.0003637363,-0.0004883645,0,1
-0.0003371576,-0.0004489826,0,1
-0.0003230579,-0.0003880461,0,1
-0.0003172236,-0.0003340784,0,1
-0.0003186821,-0.000303448,0,1
-0.0003274337,-0.0002956689,0,1
-0.0003450988,-0.0002964792,0,1
-0.0003695707,-0.0002875656,0,1
-0.0003956632,-0.0002549905,0,1
-0.0004105732,-0.0002008607,0,1
-0.0004047388,-0.0001455964,0,1
-0.0003700569,-0.0001204763,0,1
-0.0003152788,-0.0001480274,0,1
-0.0002635799,-0.0002253326,0,1
-0.000238946,-0.0003300267,0,1
-0.0002476975,-0.0004305072,0,1
-0.0002708729,-0.0004997091,0,1
-0.0002822175,-0.0005259637,0,1
-0.0002643903,-0.0005141329,0,1
-0.0002198223,-0.0004757234,0,1
-0.0001681235,-0.0004298589,0,1
-0.0001300382,-0.0003861013,0,1
-0.0001217728,-0.00033813,0,1
-0.0001404103,-0.0002671454,0,1
-0.0001630995,-0.0001549962,0,1
-0.0001618029,-5.479652e-07,0,1
-0.0001242038,0.0001820997,0,1
-5.872941e-05,0.0003798194,0,1
1.679302e-05,0.000601849,0,1
9.053275e-05,0.0008674743,0,1
0.0001577899,0.001163892,0,1
0.0002133783,0.001428545,0,1
0.0002527602,0.001572946,0,1
0.0002756114,0.001530809,0,1
0.0002817699,0.001309913,0,1
0.0002754493,0.0009956681,0,1
0.000267346,0.0007024916,0,1
0.0002658874,0.0005093097,0,1
0.0002705873,0.0004326527,0,1
0.0002754493,0.0004409181,0,1
0.0002717218,0.0004992616,0,1
0.0002525981,0.0005942319,0,1
0.0002130541,0.0007104329,0,1
0.0001620036,0.0008146409,0,1
0.0001182459,0.0008639088,0,1
9.474644e-05,0.000834737,0,1
9.393612e-05,0.0007387943,0,1
9.847395e-05,0.0006084936,0,1
7.967438e-05,0.0004744656,0,1
1.9224e-05,0.0003483787,0,1
-7.801519e-05,0.0002231022,0,1
-0.0001830335,9.150514e-05,0,1
-0.0002574215,-4.754691e-05,0,1
-0.0002791382,-0.000184168,0,1
-0.0002475355,-0.0002945344,0,1
-0.0001799543,-0.0003566054,0,1
-0.0001054042,-0.0003647087,0,1
-4.398147e-05,-0.0003305129,0,1
5.934648e-06,-0.0002823795,0,1
6.492643e-05,-0.0002549905,0,1
0.000148228,-0.0002715212,0,1
0.0002589186,-0.0003290543,0,1
0.0003775505,-0.0004065215,0,1
0.0004728449,-0.0004836646,0,1
0.0005178991,-0.0005454115,0,1
0.000507689,-0.0005903036,0,1
0.000450804,-0.0006214201,0,1
0.0003720403,-0.0006358439,0,1
0.0002947351,-0.0006244993,0,1
0.0002367157,-0.0005959758,0,1
0.0002120818,-0.0005682627,0,1
0.0002299089,-0.0005554595,0,1
0.0002876042,-0.0005531906,0,1
0.0003705817,-0.0005386047,0,1
0.0004533971,-0.0004912817,0,1
0.0005123889,-0.0004036044,0,1
0.0005381573,-0.0002833519,0,1
0.0005271368,-0.0001392759,0,1
0.0004802999,2.781346e-05,0,1
0.0004073705,0.0002224539,0,1
0.0003174242,0.0004294114,0,1
0.0002090025,0.000611735,0,1
8.761557e-05,0.0007384702,0,1
-2.745081e-05,0.000804755,0,1
-0.0001117248,0.0008269579,0,1
-0.0001455964,0.0008225822,0,1
-0.0001266348,0.0007895208,0,1
-6.91016e-05,0.0007008709,0,1
1.014835e-05,0.0005337815,0,1
9.16672e-05,0.0002971661,0,1
0.0001587623,3.218923e-05,0,1
0.0002039785,-0.0002021572,0,1
0.0002303951,-0.0003613053,0,1
0.0002487085,-0.0004295348,0,1
0.0002654013,-0.0004162455,0,1
0.0002731804,-0.000348016,0,1
0.0002602152,-0.0002595283,0,1
0.0002137024,-0.0001794681,0,1
0.0001316974,-0.0001261486,0,1
2.81376e-05,-0.0001078352,0,1
-7.363943e-05,-0.0001193418,0,1
-0.0001472171,-0.0001387897,0,1
-0.0001778474,-0.0001455964,0,1
-0.0001642339,-0.0001326312,0,1
-0.0001243659,-0.0001086455,0,1
-8.271508e-05,-8.871149e-05,0,1
-5.629844e-05,-8.384954e-05,0,1
-4.965376e-05,-9.454585e-05,0,1
-6.537409e-05,-0.0001235555,0,1
-0.0001010285,-0.0001749302,0,1
-0.0001517549,-0.0002489941,0,1
-0.0002078295,-0.0003314853,0,1
-0.0002558008,-0.0003963114,0,1
-0.0002823795,-0.0004165696,0,1
-0.0002820554,-0.0003838324,0,1
-0.000251101,-0.0003172236,0,1
-0.0001878955,-0.0002525595,0,1
-9.486997e-05,-0.0002125294,0,1
1.355172e-05,-0.0001925954,0,1
0.000111115,-0.0001720131,0,1
0.0001639484,-0.0001412206,0,1
0.000145797,-0.0001055663,0,1
5.698522e-05,-7.866345e-05,0,1
-7.65566e-05,-6.731888e-05,0,1
-0.0002144742,-6.375344e-05,0,1
-0.0003300267,-3.879538e-05,0,1
-0.0004168937,3.591673e-05,0,1
-0.0004833405,0.0001634622,0,1
-0.0005428185,0.0003205035,0,1
-0.0005995413,0.0004702519,0,1
-0.0006395715,0.0005836976,0,1
-0.0006497815,0.0006478756,0,1
-0.0006259579,0.0006657028,0,1
-0.000571504,0.0006460929,0,1
-0.0004933886,0.0006000663,0,1
-0.0004141386,0.0005341057,0,1
-0.0003595226,0.0004533971,0,1
-0.0003403989,0.0003662059,0,1
-0.0003465574,0.0002825802,0,1
-0.0003569296,0.0002083542,0,1
-0.0003559572,0.0001399627,0,1
-0.0003412093,7.076078e-05,0,1
-0.0003162512,-3.789272e-06,0,1
-0.0002854588,-8.676672e-05,0,1
-0.0002558008,-0.0001778474,0,1
-0.000238784,-0.0002734659,0,1
-0.0002397564,-0.0003638984,0,1
-0.0002543422,-0.0004332623,0,1
-0.0002556388,-0.0004734545,0,1
-0.0001974573,-0.0004838267,0,1
-5.824322e-05,-0.0004765338,0,1
0.000130725,-0.0004719959,0,1
0.0002968419,-0.000489499,0,1
0.0003840331,-0.0005309877,0,1
0.0003775505,-0.0005886829,0,1
0.0003057555,-0.0006530228,0,1
0.0002206712,-0.0007039114,0,1
0.0001861513,-0.0007219006,0,1
0.0002406053,-0.0006938633,0,1
0.0003707437,-0.0006244993,0,1
0.0005203301,-0.0005361738,0,1
0.0006318311,-0.0004551412,0,1
0.0006815852,-0.0004006872,0,1
0.0006772094,-0.0003830221,0,1
0.0006344241,-0.0003995528,0,1
0.0005683015,-0.0004392588,0,1
0.000487917,-0.0004875542,0,1
0.0003984569,-0.0005339049,0,1
0.0003002453,-0.0005674524,0,1
0.0001918236,-0.0005737729,0,1
7.886404e-05,-0.0005395772,0,1
-2.485776e-05,-0.0004661616,0,1
-0.0001076731,-0.0003822118,0,1
-0.0001590478,-0.0003222476,0,1
-0.0001729855,-0.0003011791,0,1
-0.0001535376,-0.0003079858,0,1
-0.0001149661,-0.0003168994,0,1
-7.023606e-05,-0.0003070135,0,1
-2.664048e-05,-0.0002681178,0,1
1.630683e-05,-0.0001997262,0,1
5.714729e-05,-0.0001105903,0,1
9.328786e-05,-1.610624e-05,0,1
0.0001137081,7.254349e-05,0,1
0.0001119254,0.0001526038,0,1
9.199134e-05,0.0002284504,0,1
6.849186e-05,0.000309483,0,1
5.552663e-05,0.0004055878,0,1
5.52025e-05,0.000532647,0,1
6.119892e-05,0.000715619,0,1
5.925414e-05,0.0009765443,0,1
3.543054e-05,0.001311048,0,1
-1.967167e-05,0.001657706,0,1
-9.470791e-05,0.001913932,0,1
-0.0001640719,0.001986862,0,1
-0.0002050744,0.001849916,0,1
-0.0002058847,0.001554632,0,1
-0.0001755785,0.001201653,0,1
-0.000134576,0.0008895152,0,1
-9.568031e-05,0.000676237,0,1
-6.213279e-05,0.0005730013,0,1
-3.587821e-05,0.0005504743,0,1
-1.821308e-05,0.0005679773,0,1
-8.327101e-06,0.0005890459,0,1
-1.108221e-05,0.0005921251,0,1
-2.550602e-05,0.000564736,0,1
-4.155049e-05,0.0005037994,0,1
-4.997789e-05,0.0004188772,0,1
-4.138842e-05,0.0003347652,0,1
-8.489166e-06,0.0002843629,0,1
4.839576e-05,0.0002803113,0,1
0.0001137081,0.0003041349,0,1
0.0001678379,0.0003141829,0,1
0.0001932822,0.0002730183,0,1
0.00018291,0.0001718896,0,1
0.0001365593,3.105477e-05,0,1
6.865393e-05,-0.0001128592,0,1
-2.006553e-06,-0.0002285739,0,1
-5.69467e-05,-0.0002966413,0,1
-9.114248e-05,-0.0003065273,0,1
-0.0001058904,-0.0002603387,0,1
-0.0001112386,-0.0001749302,0,1
-0.0001195039,-7.882551e-05,0,1
-0.0001342519,2.369211e-06,0,1
-0.0001496481,5.277153e-05,0,1
-0.0001566169,6.865393e-05,0,1
-0.0001488377,5.260946e-05,0,1
-0.0001274451,1.565857e-05,0,1
-0.000102325,-3.798505e-05,0,1
-8.903562e-05,-0.0001081593,0,1
-9.535618e-05,-0.0001958367,0,1
-0.000114804,-0.0002911311,0,1
-0.0001285796,-0.00038286,0,1
-0.0001219349,-0.0004710235,0,1
-9.29252e-05,-0.0005520562,0,1
-4.85193e-05,-0.0006139652,0,1
3.827799e-06,-0.00064103,0,1
5.066468e-05,-0.0006277406,0,1
7.886404e-05,-0.0005797693,0,1
8.080883e-05,-0.0005100812,0,1
5.293359e-05,-0.0004308313,0,1
-2.81688e-06,-0.0003493125,0,1
-8.741498e-05,-0.0002715212,0,1
-0.0001979435,-0.0002086398,0,1
-0.0003201407,-0.0001760647,0,1
-0.0004279142,-0.0001771992,0,1
-0.0004987367,-0.0002005366,0,1
-0.0005167259,-0.0002300324,0,1
-0.0004760476,-0.0002648765,0,1
-0.0003843186,-0.0003194925,0,1
-0.0002566112,-0.0004013355,0,1
-0.0001105903,-0.0004992229,0,1
3.235129e-05,-0.0005723144,0,1
0.0001485521,-0.0005721523,0,1
0.0002164575,-0.0004708614,0,1
0.000225047,-0.0002809209,0,1
0.0001726999,-4.673658e-05,0,1
7.157111e-05,0.0001707551,0,1
-5.240886e-05,0.0003117519,0,1
-0.0001525652,0.0003386548,0,1
-0.0001901644,0.000252274,0,1
-0.0001467309,8.972242e-05,0,1
-1.934754e-05,-8.757704e-05,0,1
0.0001770756,-0.0002232257,0,1
0.000398619,-0.0002883759,0,1
0.0005854804,-0.0002833519,0,1
0.0006903367,-0.0002279256,0,1
0.0006956849,-0.000142031,0,1
0.000621621,-4.05781e-05,0,1
0.0005060683,6.800567e-05,0,1
0.0003908399,0.0001712413,0,1
0.0003075383,0.0002491947,0,1
0.0002632944,0.0002869559,0,1
0.0002457913,0.0002769079,0,1
0.0002336365,0.0002278021,0,1
0.0002104611,0.0001628139,0,1
0.0001752929,0.0001117633,0,1
0.0001386662,9.604298e-05,0,1
0.0001070634,0.0001231079,0,1
8.340187e-05,0.0001840444,0,1
6.589881e-05,0.0002681563,0,1
4.807163e-05,0.0003683128,0,1
2.635488e-05,0.0004851619,0,1
6.258778e-06,0.0006229175,0,1
4.244267e-07,0.0007689385,0,1
1.9224e-05,0.0008880566,0,1
6.427817e-05,0.0009373245,0,1
0.0001316974,0.0008896773,0,1
0.0002049509,0.0007493285,0,1
0.0002561635,0.0005517708,0,1
0.0002605393,0.0003435168,0,1
0.0002093267,0.0001579519,0,1
0.0001112771,7.485573e-07,0,1
-1.010982e-05,-0.0001361966,0,1
-0.0001237176,-0.0002603387,0,1
-0.0002013469,-0.00036795,0,1
-0.0002261429,-0.0004520619,0,1
-0.0001998883,-0.0005057055,0,1
-0.0001339277,-0.0005308256,0,1
-4.884343e-05,-0.0005339049,0,1
3.283749e-05,-0.0005272602,0,1
9.782569e-05,-0.0005256396,0,1
0.0001438522,-0.0005387668,0,1
0.0001739964,-0.0005634008,0,1
0.0001924718,-0.0005891691,0,1
0.0002057612,-0.0006003517,0,1
0.0002161334,-0.0005869002,0,1
0.0002171058,-0.0005462218,0,1
0.0002025199,-0.0004802613,0,1
0.0001694586,-0.0003950149,0,1
0.000120839,-0.0002980999,0,1
6.41161e-05,-0.0001953505,0,1
1.234753e-06,-8.773911e-05,0,1
-6.91016e-05,2.295151e-05,0,1
-0.0001478653,0.0001346145,0,1
-0.0002251705,0.0002435224,0,1
-0.0002893484,0.0003386548,0,1
-0.0003342404,0.0003919743,0,1
-0.000365519,0.0003801436,0,1
-0.0003890185,0.0002953834,0,1
-0.0004061974,0.0001551968,0,1
-0.000412518,-8.720959e-07,0,1
-0.0004061974,-0.0001366828,0,1
-0.0003870737,-0.0002397564,0,1
-0.0003624398,-0.0003168994,0,1
-0.0003387782,-0.0003820497,0,1
-0.0003214373,-0.0004426621,0,1
-0.0003005308,-0.0004927403,0,1
-0.0002632558,-0.0005180225,0,1
-0.0002032917,-0.0005053814,0,1
-0.0001298761,-0.0004509274,0,1
-5.467778e-05,-0.000355633,0,1
2.068259e-05,-0.0002135018,0,1
0.0001028497,-2.145439e-05,0,1
0.0001965235,0.0001976579,0,1
0.0003002453,0.0003900295,0,1
0.0004031568,0.000500396,0,1
0.0004845136,0.0005025029,0,1
0.0005208163,0.0004115842,0,1
0.0004990995,0.0002790148,0,1
0.0004200116,0.0001615174,0,1
0.0003073762,9.247754e-05,0,1
0.0001940925,7.837785e-05,0,1
0.00010366,0.0001056048,0,1
4.223728e-05,0.0001513072,0,1
5.934648e-06,0.0001914995,0,1
-2.09682e-05,0.0002119197,0,1
-5.824322e-05,0.0002154851,0,1
-0.0001159385,0.0002182402,0,1
-0.0001882196,0.0002402811,0,1
-0.0002596904,0.0002850112,0,1
-0.0003151167,0.0003384927,0,1
-0.0003501228,0.0003730126,0,1
-0.0003630881,0.0003671783,0,1
-0.0003562813,0.000314345,0,1
-0.0003348887,0.0002376881,0,1
-0.0002987481,0.0001759412,0,1
-0.0002421874,0.0001560072,0,1
-0.0001600202,0.0001725378,0,1
-6.06742e-05,0.0001936063,0,1
3.413401e-05,0.0001822617,0,1
8.907416e-05,0.0001203528,0,1
7.967438e-05,1.808955e-05,0,1
1.22552e-05,-8.838737e-05,0,1
-8.206682e-05,-0.0001606685,0,1
-0.0001635857,-0.0001747682,0,1
-0.0002034537,-0.0001305243,0,1
-0.0001872472,-4.706071e-05,0,1
-0.0001067007,5.034055e-05,0,1
3.332369e-05,0.0001368834,0,1
0.0002055991,0.0001892305,0,1
0.0003699334,0.0001924718,0,1
0.0004948858,0.0001349386,0,1
0.000562305,4.244267e-07,0,1
0.0005652222,-0.0002100984,0,1
0.0005094717,-0.0004656754,0,1
0.0004114222,-0.0007137973,0,1
0.0002901973,-0.0009045482,0,1
0.0001639484,-0.001006649,0,1
5.115087e-05,-0.00101767,0,1
-3.63644e-05,-0.0009572194,0,1
-8.725291e-05,-0.0008637077,0,1
-9.892161e-05,-0.000777651,0,1
-8.433573e-05,-0.0007193076,0,1
-7.137051e-05,-0.0006870566,0,1
-7.461182e-05,-0.0006643674,0,1
-9.616651e-05,-0.0006272545,0,1
-0.0001344139,-0.0005486528,0,1
-0.0001887058,-0.0004074939,0,1
-0.0002642282,-0.0001882196,0,1
-0.0003613053,0.0001195424,0,1
-0.0004677822,0.0004986133,0,1
-0.0005475183,0.0008887049,0,1
-0.000549301,0.001206191,0,1
-0.0004609755,0.001378305,0,1
-0.0003241924,0.001373605,0,1
-0.0002005366,0.001222884,0,1
-0.0001285796,0.0009982612,0,1
-0.0001128592,0.000772828,0,1
-0.0001337657,0.0005937457,0,1
-0.0001684476,0.0004686312,0,1
-0.0001955125,0.0003678266,0,1
-0.0002120432,0.0002563256,0,1
-0.0002222533,0.0001154908,0,1
-0.0002374874,-4.398147e-05,0,1
-0.0002699005,-0.0001924333,0,1
-0.0003253268,-0.0002995585,0,1
-0.0004024699,-0.0003533641,0,1
-0.0004815578,-0.000365357,0,1
-0.0005253154,-0.0003520676,0,1
-0.000504409,-0.0003215994,0,1
-0.0004104111,-0.0002724935,0,1
-0.0002579077,-0.0002092881,0,1
-7.688073e-05,-0.0001567789,0,1
9.750156e-05,-0.0001357104,0,1
0.0002360674,-0.0001486757,0,1
0.0003211517,-0.000174282,0,1
0.0003491891,-0.0001854645,0,1
0.0003324963,-0.00016942,0,1
0.0002932765,-0.0001311726,0,1
0.0002569738,-8.109443e-05,0,1
0.0002336365,-2.194059e-05,0,1
0.0002261814,6.103686e-05,0,1
0.0002380122,0.0001991165,0,1
0.0002718839,0.0004120704,0,1
0.0003352514,0.0006733199,0,1
0.0004302217,0.0009105837,0,1
0.000542209,0.001035374,0,1
0.000646417,0.0009854579,0,1
0.0007191843,0.0007655351,0,1
0.0007473837,0.0004493454,0,1
0.0007242084,0.0001396385,0,1
0.0006566271,-7.542214e-05,0,1
0.0005689497,-0.000149486,0,1
0.0004945617,-9.130454e-05,0,1
0.0004563143,4.483033e-05,0,1
0.0004542074,0.0001848548,0,1
0.0004603659,0.0002655633,0,1
0.0004371906,0.0002558394,0,1
0.0003751195,0.0001728619,0,1
0.0002966799,7.108491e-05,0,1
0.0002342847,1.371378e-05,0,1
0.0001999268,3.073064e-05,0,1
0.0001820997,0.0001023635,0,1
0.000162976,0.000177886,0,1
0.0001316974,0.0002104611,0,1
8.550872e-05,0.0001863134,0,1
3.364782e-05,0.0001179218,0,1
-1.270286e-05,2.39239e-05,0,1
-5.32192e-05,-7.882551e-05,0,1
-8.158062e-05,-0.0001689338,0,1
-9.341139e-05,-0.000221443,0,1
-9.146661e-05,-0.0002186879,0,1
-8.547019e-05,-0.0001624512,0,1
-8.854943e-05,-6.845333e-05,0,1
-0.0001118868,3.705119e-05,0,1
-0.0001621271,0.0001287802,0,1
-0.0002360289,0.0001842065,0,1
-0.0003211132,0.000192796,0,1
-0.0003967976,0.000160707,0,1
-0.0004488206,0.0001088461,0,1
-0.0004736166,6.265751e-05,0,1
-0.0004752372,3.721326e-05,0,1
-0.0004593548,3.073064e-05,0,1
-0.0004365036,3.510641e-05,0,1
-0.0004237005,3.93201e-05,0,1
-0.0004347209,3.397195e-05,0,1
-0.0004786406,1.711715e-05,0,1
-0.0005551354,-1.173047e-05,0,1
-0.000648485,-4.949169e-05,0,1
-0.0007295177,-8.644259e-05,0,1
-0.000767603,-0.0001177212,0,1
-0.0007471828,-0.0001478653,0,1
-0.0006723086,-0.0001862748,0,1
-0.000561456,-0.0002405667,0,1
-0.0004416897,-0.0003050687,0,1
-0.0003284061,-0.000360495,0,1
-0.0002259808,-0.0003895047,0,1
-0.0001318209,-0.0003839945,0,1
-5.062615e-05,-0.000358064,0,1
2.068259e-05,-0.0003326198,0,1
9.620504e-05,-0.0003203028,0,1
0.0001832341,-0.0003201407,0,1
0.0002730183,-0.0003211132,0,1
0.0003431926,-0.0003160891,0,1
0.0003798194,-0.0003050687,0,1
0.0003835469,-0.000293562,0,1
0.0003592371,-0.0002908069,0,1
0.0003125623,-0.0003006929,0,1
0.0002542187,-0.0003203028,0,1
0.0001955511,-0.0003449367,0,1
0.0001417454,-0.0003749188,0,1
8.664318e-05,-0.0004128421,0,1
2.052053e-05,-0.000454817,0,1
-6.472583e-05,-0.0004992229,0,1
-0.0001626133,-0.0005434667,0,1
-0.0002590421,-0.0005860899,0,1
-0.0003311612,-0.0006233649,0,1
-0.0003523917,-0.000650754,0,1
-0.000300855,-0.0006723086,0,1
-0.000166989,-0.000688191,0,1
3.543054e-05,-0.0006948357,0,1
0.0002584324,-0.0006836532,0,1
0.0004430249,-0.0006413542,0,1
0.0005540397,-0.0005399013,0,1
0.0005935837,-0.000350609,0,1
0.0005851563,-5.970181e-05,0,1
0.0005567948,0.0003081865,0,1
0.0005281092,0.0006822334,0,1
0.0005000719,0.000988213,0,1
0.0004647417,0.001181719,0,1
0.0004169324,0.001248977,0,1
0.0003683128,0.00120295,0,1
0.0003328204,0.001076215,0,1
0.0003175863,0.000906532,0,1
0.0003188828,0.000715781,0,1
0.0003276344,0.0005106062,0,1
0.0003344411,0.000297004,0,1
0.0003402755,9.393612e-05,0,1
0.000356644,-6.926366e-05,0,1
0.0003913261,-0.0001660166,0,1
0.0004323286,-0.0001851404,0,1
0.0004504799,-0.0001396,0,1
0.0004119083,-5.22468e-05,0,1
0.0002939248,5.066468e-05,0,1
9.977047e-05,0.0001449867,0,1
-0.0001350622,0.0002161334,0,1
-0.0003544986,0.0002608634,0,1
-0.0005024642,0.0002786906,0,1
-0.0005431426,0.0002736666,0,1
-0.0004800992,0.000250005,0,1
-0.0003566054,0.0002196988,0,1
-0.0002292221,0.0002047888,0,1
-0.0001412206,0.0002281262,0,1
-0.0001107524,0.0003005694,0,1
-0.0001336036,0.0004140152,0,1
-0.0001890299,0.0005331332,0,1
-0.0002412149,0.0006023352,0,1
-0.0002570974,0.0005751082,0,1
-0.0002222533,0.0004428628,0,1
-0.0001507825,0.0002372019,0,1
-7.347736e-05,1.663096e-05,0,1
-2.745081e-05,-0.0001601823,0,1
-3.895745e-05,-0.0002556388,0,1
-0.0001130213,-0.0002619593,0,1
-0.0002348944,-0.0002029675,0,1
-0.0003825359,-0.0001289037,0,1
-0.0005306636,-9.19528e-05,0,1
-0.0006603158,-0.0001199901,0,1
-0.0007577171,-0.0002117191,0,1
-0.0008052022,-0.0003342404,0,1
-0.0007854302,-0.0004376381,0,1
-0.0006937013,-0.0004860956,0,1
-0.0005413599,-0.0004779923,0,1
-0.0003483401,-0.0004457413,0,1
-0.0001454344,-0.0004222419,0,1
2.716521e-05,-0.0004136524,0,1
0.0001399627,-0.0003916115,0,1
0.0001861513,-0.0003185201,0,1
0.0001769136,-0.000171851,0,1
0.0001320215,3.98063e-05,0,1
7.043665e-05,0.0002803113,0,1
8.851824e-06,0.0005110924,0,1
-3.587821e-05,0.0007221015,0,1
-4.770897e-05,0.0009156077,0,1
-2.615429e-05,0.001071515,0,1
7.879432e-06,0.001138772,0,1
2.133085e-05,0.00104607,0,1
-5.89612e-06,0.0007598628,0,1
-7.104638e-05,0.0003235827,0,1
-0.0001496481,-0.0001575893,0,1
-0.0002039399,-0.0005703696,0,1
-0.0002008607,-0.0008406945,0,1
-0.000127121,-0.0009483058,0,1
7.717366e-06,-0.0009134618,0,1
0.0001709172,-0.0007802441,0,1
0.000316938,-0.0006008379,0,1
0.0004133669,-0.0004256453,0,1
0.0004516144,-0.0002972895,0,1
0.0004368664,-0.0002394322,0,1
0.0003803056,-0.0002452666,0,1
0.0002991108,-0.000285945,0,1
0.0002224539,-0.0003198166,0,1
0.0001892305,-0.0003130099,0,1
0.0002143507,-0.0002549905,0,1
0.0002702632,-0.000159534,0,1
0.0003088348,-4.560212e-05,0,1
0.0003026763,8.04847e-05,0,1
0.000264753,0.0002159713,0,1
0.0002344468,0.0003525924,0,1
0.0002490327,0.0004773828,0,1
0.0003051073,0.000572191,0,1
0.0003649094,0.0006122212,0,1
0.0003906778,0.000579646,0,1
0.0003770643,0.000478031,0,1
0.0003470822,0.0003384927,0,1
0.00033671,0.0002030061,0,1
0.0003744712,0.0001077117,0,1
0.0004576108,6.346784e-05,0,1
0.0005566327,5.747142e-05,0,1
0.0006360448,7.059871e-05,0,1
0.000673644,8.79397e-05,0,1
0.0006663511,0.000101067,0,1
0.0006284277,0.0001124116,0,1
0.000577053,0.0001218114,0,1
0.0005245438,0.0001257009,0,1
0.0004721967,0.000123432,0,1
0.0004211461,0.0001154908,0,1
0.0003759298,0.0001070634,0,1
0.0003290929,0.0001025256,0,1
0.0002655633,0.0001022015,0,1
0.0001798307,0.0001047945,0,1
7.821578e-05,0.0001054428,0,1
-1.983374e-05,9.652917e-05,0,1
-9.697683e-05,6.492643e-05,0,1
-0.0001396,1.558884e-06,0,1
-0.0001477033,-9.324933e-05,0,1
-0.0001391138,-0.0002081536,0,1
-0.0001376552,-0.0003292164,0,1
-0.0001642339,-0.0004452552,0,1
-0.0002258187,-0.0005455735,0,1
-0.0003110651,-0.0006163961,0,1
-0.0003985804,-0.000646054,0,1
-0.0004711856,-0.0006330888,0,1
-0.0005245051,-0.0005891691,0,1
-0.0005637249,-0.0005305015,0,1
-0.0005904656,-0.0004669719,0,1
-0.000611048,-0.0003984183,0,1
-0.0006411921,-0.000320789,0,1
-0.0006940254,-0.0002290601,0,1
-0.0007710064,-0.0001224211,0,1
-0.0008538218,-1.562004e-05,0,1
-0.0009108688,7.027458e-05,0,1
-0.0009205926,0.0001271595,0,1
-0.0008776453,0.0001608691,0,1
-0.0007896438,0.0001837203,0,1
-0.0006791154,0.0002128921,0,1
-0.0005828486,0.0002619979,0,1
-0.0005301774,0.0003290929,0,1
-0.0005293671,0.0003926226,0,1
-0.0005582146,0.0004226047,0,1
-0.0005736109,0.0003992672,0,1
-0.0005288809,0.0003183966,0,1
-0.000400201,0.0001923098,0,1
-0.0002008607,4.580272e-05,0,1
3.170304e-05,-9.373552e-05,0,1
0.0002406053,-0.0002075054,0,1
0.0003770643,-0.0002836761,0,1
0.0004149876,-0.0003149546,0,1
0.0003602095,-0.0002961551,0,1
0.0002521119,-0.0002250084,0,1
0.0001368834,-0.0001193418,0,1
4.693717e-05,-2.242678e-05,0,1
-1.270286e-05,2.035846e-05,0,1
-5.062615e-05,-1.902341e-05,0,1
-6.991193e-05,-0.0001349001,0,1
-6.845333e-05,-0.0002916173,0,1
-4.495386e-05,-0.000434883,0,1
-4.923729e-06,-0.0005146191,0,1
4.304761e-05,-0.0005123502,0,1
9.426025e-05,-0.0004392588,0,1
0.0001508211,-0.0003261372,0,1
0.0002117576,-0.000201509,0,1
0.0002590807,-8.320128e-05,0,1
0.0002731804,1.436204e-05,0,1
0.0002467637,7.837785e-05,0,1
0.000192796,0.0001030118,0,1
0.0001419075,0.0001009049,0,1
0.0001232699,9.68533e-05,0,1
0.0001461212,0.000108522,0,1
0.000195227,0.0001472556,0,1
0.0002412535,0.0002188885,0,1
0.0002605393,0.000319369,0,1
0.0002446569,0.000435894,0,1
0.0001958752,0.0005439916,0,1
0.0001106288,0.0006083316,0,1
-1.788895e-05,0.0006054144,0,1
-0.0001836818,0.0005428572,0,1
-0.0003575778,0.0004542074,0,1
-0.0004995471,0.0003710679,0,1
-0.0005768522,0.0003132105,0,1
-0.0005805797,0.0002851732,0,1
-0.0005290429,0.0002777182,0,1
-0.0004471999,0.0002705873,0,1
-0.0003561192,0.0002511395,0,1
-0.0002598524,0.0002135403,0,1
-0.0001536997,0.0001490383,0,1
-3.652646e-05,5.228533e-05,0,1
8.84259e-05,-7.509801e-05,0,1
0.0002117576,-0.0002308428,0,1
0.0003234207,-0.0004063595,0,1
0.0004166082,-0.0005825245,0,1
0.0004799758,-0.0007280591,0,1
0.0005055821,-0.0008134675,0,1
0.0005047718,-0.0008256224,0,1
0.0005034753,-0.0007637134,0,1
0.0005187094,-0.0006353577,0,1
0.0005543638,-0.0004543308,0,1
0.0006076833,-0.0002402425,0,1
0.0006658648,-6.544382e-06,0,1
0.0007000606,0.0002469258,0,1
0.000671213,0.0005229231,0,1
0.0005571189,0.0008300372,0,1
0.0003709058,0.001155951,0,1
0.0001623277,0.00143989,0,1
-1.010982e-05,0.001593042,0,1
-0.0001010285,0.001546853,0,1
-9.098041e-05,0.001288034,0,1
1.274139e-05,0.0008724983,0,1
0.0001777239,0.0004063981,0,1
0.0003487029,9.338019e-06,0,1
0.000470576,-0.000233922,0,1
0.0005136854,-0.0002942103,0,1
0.0004846757,-0.000191785,0,1
0.0004120704,1.355172e-05,0,1
0.0003295791,0.0002415777,0,1
0.0002670219,0.0004290873,0,1
0.0002255332,0.0005405883,0,1
0.0001838824,0.0005614947,0,1
0.0001279698,0.0004965065,0,1
5.828175e-05,0.0003679886,0,1
-1.67545e-05,0.0002106232,0,1
-8.206682e-05,5.763349e-05,0,1
-0.0001186936,-6.326724e-05,0,1
-0.0001076731,-0.0001394379,0,1
-4.965376e-05,-0.000166827,0,1
3.13789e-05,-0.0001618029,0,1
9.523264e-05,-0.0001640719,0,1
0.0001179218,-0.0002081536,0,1
9.733949e-05,-0.0003053928,0,1
4.304761e-05,-0.0004390967,0,1
-3.879538e-05,-0.0005723144,0,1
-0.0001457585,-0.0006648536,0,1
-0.0002721694,-0.0007011562,0,1
-0.0004087905,-0.0006982391,0,1
-0.0005413599,-0.0006891634,0,1
-0.0006515643,-0.0007021286,0,1
-0.0007201179,-0.0007468587,0,1
-0.0007400519,-0.0008193018,0,1
-0.0007219006,-0.0009157307,0,1
-0.000680574,-0.001027556,0,1
-0.0006257959,-0.001132574,0,1
-0.0005604835,-0.00120291,0,1
-0.0004812336,-0.00120761,0,1
-0.0003835083,-0.001113612,0,1
-0.0002699005,-0.0008967691,0,1
-0.0001556445,-0.0005561078,0,1
-5.2733e-05,-0.0001190177,0,1
4.239934e-05,0.0003585888,0,1
0.0001409351,0.0008008654,0,1
0.0002482223,0.001142013,0,1
0.000353889,0.001341354,0,1
0.0004370285,0.001375874,0,1
0.0004768966,0.001252704,0,1
0.0004649037,0.001006527,0,1
0.0003973225,0.0006939021,0,1
0.0002804733,0.0003769022,0,1
0.0001338042,0.0001043083,0,1
-2.177852e-05,-9.308726e-05,0,1
-0.00016942,-0.0002062088,0,1
-0.0002942103,-0.0002434839,0,1
-0.0003835083,-0.0002219292,0,1
-0.0004271038,-0.0001600202,0,1
-0.0004235384,-7.509801e-05,0,1
-0.0003873979,1.614476e-05,0,1
-0.0003468815,0.0001005808,0,1
-0.0003264613,0.0001720516,0,1
-0.0003303509,0.0002180782,0,1
-0.0003395886,0.0002326641,0,1
-0.0003230579,0.0002205092,0,1
-0.0002682799,0.0001958752,0,1
-0.0001883817,0.0001791825,0,1
-0.0001070249,0.0001762653,0,1
-4.85193e-05,0.0001670276,0,1
-2.275091e-05,0.0001214872,0,1
-2.664048e-05,2.295151e-05,0,1
-5.208474e-05,-0.0001182074,0,1
-8.806324e-05,-0.0002617972,0,1
-0.0001175591,-0.0003596847,0,1
-0.0001057284,-0.0003917736,0,1
-3.26369e-05,-0.0003716775,0,1
9.037068e-05,-0.0003254889,0,1
0.0002193747,-0.0002663351,0,1
0.0003081865,-0.0001883817,0,1
0.000334117,-7.688073e-05,0,1
0.0003075383,6.492643e-05,0,1
0.0002629703,0.000200413,0,1
0.000247412,0.0002806354,0,1
0.0002913317,0.0002842008,0,1
0.0003869503,0.0002227781,0,1
0.0004963444,0.0001316974,0,1
0.0005749461,4.953022e-05,0,1
0.00058937,9.106227e-07,0,1
0.0005379952,-7.516774e-06,0,1
0.0004316803,1.760335e-05,0,1
0.0002765838,6.395404e-05,0,1
7.821578e-05,0.0001166253,0,1
-0.0001507825,0.0001613553,0,1
-0.0003864254,0.0001809652,0,1
-0.0006021344,0.0001550348,0,1
-0.0007784614,7.513654e-05,0,1
-0.0009154066,-4.673658e-05,0,1
-0.001030311,-0.0001796301,0,1
-0.001130791,-0.0002874036,0,1
-0.001205017,-0.0003433161,0,1
-0.001229651,-0.0003412093,0,1
-0.001182004,-0.0003016653,0,1
-0.001052838,-0.0002556388,0,1
-0.0008434496,-0.0002348944,0,1
-0.0005643732,-0.0002583939,0,1
-0.0002258187,-0.0003266234,0,1
0.0001594105,-0.0004181903,0,1
0.0005618189,-0.0005021401,0,1
0.000933597,-0.0005525423,0,1
0.001215105,-0.0005530285,0,1
0.001361774,-0.0005040849,0,1
0.001366474,-0.0004107352,0,1
0.0012587,-0.0002677937,0,1
0.001097283,-6.116039e-05,0,1
0.0009415382,0.0002031682,0,1
0.0008233925,0.0004707381,0,1
0.000740415,0.0006618132,0,1
0.0006755888,0.0007190223,0,1
0.0006118971,0.0006313449,0,1
0.0005391297,0.0004321665,0,1
0.0004512903,0.0001814514,0,1
0.0003394651,-6.877746e-05,0,1
0.0002059233,-0.0002831898,0,1
6.816773e-05,-0.0004420138,0,1
-4.462973e-05,-0.0005305015,0,1
-0.0001112386,-0.0005429805,0,1
-0.00012469,-0.0004800992,0,1
-8.40116e-05,-0.0003523917,0,1
-4.437533e-06,-0.0001964849,0,1
8.46984e-05,-5.532604e-05,0,1
0.0001553589,3.024445e-05,0,1
0.0001968476,2.667901e-05,0,1
0.0002125679,-6.877746e-05,0,1
0.0002120818,-0.0002246843,0,1
0.0002039785,-0.0003920977,0,1
0.000192958,-0.000519319,0,1
0.0001748067,-0.0005646973,0,1
0.0001415833,-0.0005173742,0,1
8.84259e-05,-0.000400039,0,1
2.035846e-05,-0.000261311,0,1
-4.819517e-05,-0.0001477033,0,1
-0.0001029732,-7.55842e-05,0,1
-0.0001327933,-2.84232e-05,0,1
-0.0001363587,2.878586e-05,0,1
-0.0001126972,0.0001291043,0,1
-6.051213e-05,0.0002906835,0,1
5.286387e-06,0.0005157923,0,1
6.379197e-05,0.0008068618,0,1
0.0001039842,0.00117313,0,1
0.0001274836,0.001600983,0,1
0.000130725,0.002019275,0,1
0.0001002567,0.002313587,0,1
2.39239e-05,0.002376792,0,1
-9.859748e-05,0.002175668,0,1
-0.000246401,0.001782335,0,1
-0.0003888564,0.001327092,0,1
-0.0005010056,0.0009241972,0,1
-0.0005724764,0.0006326414,0,1
-0.000603593,0.0004512903,0,1
-0.0005984068,0.0003461098,0,1
-0.0005677765,0.0002827423,0,1
-0.0005227224,0.0002488706,0,1
-0.0004825302,0.0002407673,0,1
-0.0004682684,0.0002456293,0,1
-0.0004856094,0.000234933,0,1
-0.0005198052,0.0001718896,0,1
-0.000549301,3.462021e-05,0,1
-0.000556594,-0.0001715269,0,1
-0.0005332566,-0.0004185144,0,1
-0.0004836646,-0.0006512401,0,1
-0.000415111,-0.0008100641,0,1
-0.0003246786,-0.0008721352,0,1
-0.0002018331,-0.0008638698,0,1
-3.620233e-05,-0.0008400462,0,1
0.0001688103,-0.0008543079,0,1
0.0003840331,-0.0009152445,0,1
0.0005658705,-0.0009826636,0,1
0.0006849886,-0.0009948185,0,1
0.0007384702,-0.0009060067,0,1
0.0007409012,-0.0007133111,0,1
0.0007114052,-0.0004635685,0,1
0.0006622995,-0.0002287359,0,1
0.0006049282,-6.942573e-05,0,1
0.0005493398,-1.643037e-05,0,1
0.0004924549,-6.407757e-05,0,1
0.0004157979,-0.0001835197,0,1
0.0003036487,-0.0003337542,0,1
0.0001652449,-0.0004698891,0,1
2.846173e-05,-0.0005612939,0,1
-7.412562e-05,-0.000591276,0,1
-0.0001331174,-0.0005634008,0,1
-0.0001671511,-0.0004948471,0,1
-0.0002026434,-0.0004034423,0,1
-0.000253856,-0.0003039342,0,1
-0.0003115513,-0.0002094502,0,1
-0.0003582261,-0.0001327933,0,1
-0.0003822118,-7.914964e-05,0,1
-0.0003784843,-4.949169e-05,0,1
-0.0003502849,-2.761287e-05,0,1
-0.0003214373,1.679302e-05,0,1
-0.0003262992,0.0001116012,0,1
-0.0003862634,0.0002577842,0,1
-0.000489661,0.0004248736,0,1
-0.0005964621,0.000559712,0,1
-0.0006603158,0.000611735,0,1
-0.0006549676,0.0005606844,0,1
-0.0005817142,0.0004250357,0,1
-0.0004705373,0.0002453052,0,1
-0.0003595226,6.995045e-05,0,1
-0.0002750866,-6.359137e-05,0,1
-0.0002254946,-0.0001412206,0,1
-0.0002096122,-0.0001778474,0,1
-0.0002110708,-0.000199078,0,1
-0.0002031296,-0.0002241981,0,1
-0.0001661787,-0.0002577456,0,1
-0.0001005423,-0.0002877277,0,1
-2.210265e-05,-0.0002997205,0,1
4.871989e-05,-0.0002903207,0,1
0.0001012291,-0.0002642282,0,1
0.0001326697,-0.0002301945,0,1
0.0001443384,-0.0001961608,0,1
0.0001394765,-0.0001687718,0,1
0.0001205148,-0.0001488377,0,1
9.960841e-05,-0.0001361966,0,1
0.0001007429,-0.0001280934,0,1
0.0001295905,-0.0001193418,0,1
0.0001773998,-0.0001076731,0,1
0.0002342847,-9.341139e-05,0,1
0.0002937627,-8.07703e-05,0,1
0.0003454615,-6.48879e-05,0,1
0.0003791712,-3.117831e-05,0,1
0.0003924605,3.543054e-05,0,1
0.0003893813,0.0001365593,0,1
0.0003790091,0.0002650771,0,1
0.0003707437,0.0004076947,0,1
0.0003662059,0.0005420469,0,1
0.0003653956,0.0006368551,0,1
0.0003657197,0.0006593822,0,1
0.0003595612,0.0005995801,0,1
0.0003375204,0.0004777069,0,1
0.0002939248,0.0003324963,0,1
0.0002337985,0.0002020337,0,1
0.0001707551,0.0001096565,0,1
0.0001075496,5.52025e-05,0,1
4.483033e-05,2.667901e-05,0,1
-6.706447e-06,1.371378e-05,0,1
-3.63644e-05,8.041497e-06,0,1
-4.754691e-05,3.827799e-06,0,1
-5.532604e-05,-7.516774e-06,0,1
-6.877746e-05,-3.020592e-05,0,1
-8.498399e-05,-5.937768e-05,0,1
-9.470791e-05,-8.725291e-05,0,1
-8.530812e-05,-0.0001010285,0,1
-5.289507e-05,-9.357346e-05,0,1
-9.947754e-06,-5.435365e-05,0,1
1.484824e-05,2.246531e-05,0,1
-9.623623e-06,0.0001305629,0,1
-9.29252e-05,0.0002430362,0,1
-0.0002203085,0.0003264999,0,1
-0.0003588744,0.0003546993,0,1
-0.0004744269,0.0003174242,0,1
-0.0005424943,0.0002237505,0,1
-0.000554163,9.701536e-05,0,1
-0.000519319,-2.939559e-05,0,1
-0.0004525481,-0.0001229073,0,1
-0.0003583881,-0.0001622891,0,1
-0.0002308428,-0.0001535376,0,1
-7.428769e-05,-0.0001293899,0,1
9.68533e-05,-0.0001331174,0,1
0.0002641047,-0.0001958367,0,1
0.0004107739,-0.0003147926,0,1
0.0005243817,-0.0004655133,0,1
0.0005997422,-0.0006144513,0,1
0.0006459308,-0.0007287074,0,1
0.0006835299,-0.0007876991,0,1
0.0007212912,-0.0007841337,0,1
0.0007459252,-0.0007223868,0,1
0.0007373357,-0.0006115342,0,1
0.000690823,-0.0004681064,0,1
0.0006235657,-0.0003167374,0,1
0.0005593878,-0.0001856265,0,1
0.0005104441,-9.373552e-05,0,1
0.0004689553,-5.240886e-05,0,1
0.0004216323,-6.132246e-05,0,1
0.000363937,-0.0001013526,0,1
0.0003065659,-0.0001308485,0,1
0.0002670219,-0.0001032974,0,1
0.000259891,7.069105e-06,0,1
0.0002940868,0.0001923098,0,1
0.0003709058,0.0004004017,0,1
0.0004726828,0.0005533914,0,1
0.0005610085,0.0005896941,0,1
0.0005947181,0.0004969927,0,1
0.000544802,0.0003196932,0,1
0.0004041292,0.0001269974,0,1
0.0001911753,-2.615429e-05,0,1
-5.240886e-05,-0.0001091317,0,1
-0.00027849,-0.0001060525,0,1
-0.0004457413,-5.734056e-06,0,1
-0.0005313118,0.0002039785,0,1
-0.0005314739,0.0005190336,0,1
-0.0004645409,0.0008781706,0,1
-0.0003627639,0.001177344,0,1
-0.0002652006,0.001312668,0,1
-0.000199078,0.001238604,0,1
-0.0001734716,0.0009937233,0,1
-0.0001771992,0.0006739681,0,1
-0.0001937298,0.0003733368,0,1
-0.0002154466,0.0001568175,0,1
-0.0002467252,4.175109e-05,0,1
-0.0002888622,1.711715e-05,0,1
-0.0003386162,5.714729e-05,0,1
-0.0003873979,0.0001315353,0,1
-0.0004258073,0.0002073819,0,1
-0.0004459034,0.0002621599,0,1
-0.0004450931,0.0002948972,0,1
-0.0004224039,0.0003138588,0,1
-0.0003895047,0.0003383307,0,1
-0.0003715154,0.0003804677,0,1
-0.0003998769,0.000435732,0,1
-0.0004938748,0.0004765725,0,1
-0.0006374646,0.0004616624,0,1
-0.0007831613,0.0003671783,0,1
-0.000879104,0.0002021958,0,1
-0.000894176,4.80019e-06,0,1
-0.0008361567,-0.0001809267,0,1
-0.0007436173,-0.0003264613,0,1
-0.0006565883,-0.00041268,0,1
-0.0005911139,-0.0004415277,0,1
-0.0005405495,-0.0004301831,0,1
-0.0004885266,-0.0004044147,0,1
-0.0004267797,-0.0003846427,0,1
-0.000358064,-0.0003736223,0,1
-0.0002942103,-0.0003609812,0,1
-0.000246239,-0.0003329439,0,1
-0.0002198223,-0.0002919414,0,1
-0.0002180396,-0.0002561249,0,1
-0.0002368392,-0.0002543422,0,1
-0.0002682799,-0.0003066893,0,1
-0.0002972895,-0.0003982562,0,1
-0.0003125237,-0.000492092,0,1
-0.0003045825,-0.0005599973,0,1
-0.0002642282,-0.0006032689,0,1
-0.0001874093,-0.0006457299,0,1
-8.903562e-05,-0.0007066664,0,1
4.962256e-06,-0.0007920748,0,1
7.254349e-05,-0.0008954725,0,1
0.000105929,-0.0009974116,0,1
0.0001073875,-0.001078282,0,1
8.712937e-05,-0.001125119,0,1
5.811968e-05,-0.001130305,0,1
2.667901e-05,-0.001093354,0,1
-8.651231e-06,-0.001022046,0,1
-4.074016e-05,-0.0009217271,0,1
-5.402952e-05,-0.0007852681,0,1
-3.101625e-05,-0.0005946793,0,1
4.175109e-05,-0.0003327818,0,1
0.0001611932,-1.25408e-05,0,1
0.000307052,0.0003222862,0,1
0.0004485351,0.0006230795,0,1
0.000557281,0.000854509,0,1
0.0006237278,0.001005554,0,1
0.0006618132,0.001091773,0,1
0.0006828817,0.001141527,0,1
0.0006904988,0.001177506,0,1
0.0006864472,0.001206353,0,1
0.0006833679,0.001205867,0,1
0.0006930918,0.001140069,0,1
0.0007185361,0.000983189,0,1
0.000748032,0.0007465734,0,1
0.0007629421,0.0004741415,0,1
0.0007464114,0.0002266676,0,1
0.0007003848,5.893001e-05,0,1
0.0006503066,-1.027188e-05,0,1
0.0006284277,-6.868513e-06,0,1
0.0006352345,1.387585e-05,0,1
0.0006360448,3.017472e-06,0,1
0.0005956905,-6.0188e-05,0,1
0.0005120648,-0.0001601823,0,1
0.0004182289,-0.0002619593,0,1
0.0003545372,-0.0003285682,0,1
0.0003368721,-0.0003434782,0,1
0.0003548613,-0.0003113892,0,1
0.000388895,-0.000246401,0,1
0.0004256839,-0.0001622891,0,1
0.0004461041,-7.428769e-05,0,1
0.0004337872,2.531276e-06,0,1
0.0003741471,5.649903e-05,0,1
0.0002756114,8.729144e-05,0,1
0.0001649207,0.0001070634,0,1
7.043665e-05,0.0001260251,0,1
9.106227e-07,0.0001516314,0,1
-5.435365e-05,0.0001843686,0,1
-0.0001102662,0.0002171058,0,1
-0.0001673132,0.0002397949,0,1
-0.000221605,0.0002493568,0,1
-0.0002642282,0.0002493568,0,1
-0.0002963172,0.0002467637,0,1
-0.0003141443,0.000247412,0,1
-0.0003224097,0.0002448189,0,1
-0.0003344025,0.0002245608,0,1
-0.0003627639,0.0001728619,0,1
-0.0004061974,8.74535e-05,0,1
-0.0004546549,-1.545797e-05,0,1
-0.0004953333,-0.000112373,0,1
-0.000519319,-0.000184168,0,1
-0.0005180225,-0.0002279256,0,1
-0.0004783165,-0.0002496423,0,1
-0.0003997148,-0.0002559629,0,1
-0.000290969,-0.0002502906,0,1
-0.000174444,-0.0002345703,0,1
-8.417367e-05,-0.0002113949,0,1
-4.949169e-05,-0.000189192,0,1
-7.979791e-05,-0.0001823853,0,1
-0.0001527273,-0.0002100984,0,1
-0.0002332737,-0.0002993964,0,1
-0.0002836761,-0.0004674581,0,1
-0.0002831898,-0.0006937013,0,1
-0.0002408908,-0.0009282097,0,1
-0.0001901644,-0.00111345,0,1
-0.0001661787,-0.001212796,0,1
-0.000181737,-0.001209717,0,1
-0.0002225774,-0.001112802,0,1
-0.000261311,-0.0009521954,0,1
-0.0002731418,-0.0007591756,0,1
-0.0002454286,-0.0005575664,0,1
-0.0001875713,-0.0003630881,0,1
-0.0001310105,-0.0001869231,0,1
-0.0001045939,-2.485776e-05,0,1
-0.0001199901,0.0001297526,0,1
-0.0001726613,0.0002809595,0,1
-0.0002407288,0.0004474007,0,1
-0.0002979378,0.0006593822,0,1
-0.0003335922,0.0009172284,0,1
-0.0003512573,0.001168754,0,1
-0.0003600088,0.001323527,0,1
-0.0003579019,0.0013057,0,1
-0.0003353749,0.001112031,0,1
-0.0002801106,0.0008156133,0,1
-0.0001976194,0.0005272989,0,1
-0.0001037836,0.0003384927,0,1
-1.853722e-05,0.0002829043,0,1
4.515445e-05,0.0003462718,0,1
8.356394e-05,0.0004819206,0,1
0.0001018773,0.0006310208,0,1
0.000110953,0.0007472217,0,1
0.0001292664,0.0008167478,0,1
0.0001822617,0.0008527263,0,1
0.0002825802,0.0008720121,0,1
0.0004125566,0.0008729845,0,1
0.0005269747,0.0008316578,0,1
0.0005898562,0.0007315014,0,1
0.0005947181,0.0005843459,0,1
0.0005606844,0.0004164462,0,1
0.0005144958,0.0002542187,0,1
0.0004721967,0.0001192183,0,1
0.0004313562,2.505836e-05,0,1
0.0003845193,-2.129233e-05,0,1
0.000326824,-2.177852e-05,0,1
0.0002611876,1.338965e-05,0,1
0.00019782,6.670914e-05,0,1
0.0001504969,0.0001182459,0,1
0.0001281319,0.0001526038,0,1
0.0001341283,0.0001621656,0,1
0.000155521,0.0001388282,0,1
0.0001752929,7.076078e-05,0,1
0.0001712413,-4.868137e-05,0,1
0.0001247285,-0.0002110708,0,1
2.39239e-05,-0.0003940425,0,1
-0.000117235,-0.000561456,0,1
-0.0002622834,-0.0006760361,0,1
-0.0003648708,-0.0007120146,0,1
-0.0003946908,-0.0006653398,0,1
-0.0003523917,-0.0005612939,0,1
-0.0002630937,-0.0004465517,0,1
-0.0001608306,-0.0003643846,0,1
-8.255302e-05,-0.0003360231,0,1
-4.884343e-05,-0.0003519055,0,1
-6.569822e-05,-0.0003904771,0,1
-0.0001259865,-0.00042759,0,1
-0.0002156086,-0.0004441207,0,1
-0.0003131719,-0.0004321279,0,1
-0.000392746,-0.0003909633,0,1
-0.0004319658,-0.0003284061,0,1
-0.0004232143,-0.0002574215,0,1
-0.0003765395,-0.0001935677,0,1
-0.0003251648,-0.0001507825,0,1
-0.0003039342,-0.0001449482,0,1
-0.0003186821,-0.0001865989,0,1
-0.0003574158,-0.0002728177,0,1
-0.0004003631,-0.0003872358,0,1
-0.0004301831,-0.0005086227,0,1
-0.0004356933,-0.0006150996,0,1
-0.00041268,-0.0006987253,0,1
-0.000362926,-0.0007588515,0,1
-0.0002942103,-0.0007876991,0,1
-0.0002201465,-0.0007682513,0,1
-0.00015451,-0.0006992114,0,1
-9.908367e-05,-0.0006031067,0,1
-4.85193e-05,-0.0005071641,0,1
2.693341e-06,-0.0004415277,0,1
5.390598e-05,-0.0004237005,0,1
9.393612e-05,-0.0004502792,0,1
0.000113384,-0.000501978,0,1
0.0001148425,-0.0005535148,0,1
0.0001153287,-0.0005810658,0,1
0.0001354248,-0.000559025,0,1
0.0001876099,-0.0004676201,0,1
0.0002751252,-0.0002929138,0,1
0.0003944053,-3.150244e-05,0,1
0.0005282713,0.0002898731,0,1
0.0006426895,0.0006159487,0,1
0.0007042743,0.0008925945,0,1
0.0006911471,0.001097931,0,1
0.0006024973,0.001238766,0,1
0.0004710622,0.001342488,0,1
0.000339141,0.001443131,0,1
0.0002401191,0.001560791,0,1
0.0001832341,0.001684771,0,1
0.0001602208,0.001779094,0,1
0.0001513072,0.001807779,0,1
0.0001320215,0.001746032,0,1
9.912221e-05,0.001583318,0,1
6.281957e-05,0.001319475,0,1
3.462021e-05,0.0009799477,0,1
1.322759e-05,0.0006211348,0,1
2.855407e-06,0.0003138588,0,1
9.013889e-06,0.0001117633,0,1
3.299956e-05,3.008238e-05,0,1
6.654708e-05,4.320967e-05,0,1
9.280167e-05,0.0001067393,0,1
0.0001000946,0.0001816135,0,1
8.178122e-05,0.0002420638,0,1
3.93201e-05,0.0002743149,0,1
-1.027188e-05,0.00027707,0,1
-3.63644e-05,0.0002645909,0,1
-1.124428e-05,0.000254867,0,1
6.930219e-05,0.0002632944,0,1
0.0001757791,0.0002876042,0,1
0.0002666978,0.000309483,0,1
0.0003091589,0.0003046211,0,1
0.0003010556,0.0002506533,0,1
0.0002658874,0.0001493625,0,1
0.0002328261,2.165498e-05,0,1
0.0002195368,-0.0001036215,0,1
0.0002237505,-0.0002052365,0,1
0.0002290986,-0.0002771934,0,1
0.0002187264,-0.0003277578,0,1
0.0001895547,-0.0003661673,0,1
0.0001548727,-0.0003956632,0,1
0.0001334801,-0.0004227281,0,1
0.0001354248,-0.0004578962,0,1
0.0001574657,-0.0005084606,0,1
0.0001843686,-0.0005731247,0,1
0.0001898788,-0.0006418404,0,1
0.0001493625,-0.0006962943,0,1
5.876794e-05,-0.0007186593,0,1
-6.051213e-05,-0.0007139594,0,1
-0.0001759026,-0.0007024527,0,1
-0.0002632558,-0.0007029389,0,1
-0.00032322,-0.0007254661,0,1
-0.000375405,-0.0007672789,0,1
-0.0004353692,-0.0008133054,0,1
-0.0005099192,-0.0008452323,0,1
-0.000589007,-0.0008554424,0,1
-0.0006496195,-0.0008487977,0,1
-0.0006710121,-0.0008343739,0,1
-0.0006518884,-0.0008220569,0,1
-0.0006108859,-0.0008134675,0,1
-0.0005653456,-0.0008152502,0,1
-0.000512026,-0.0008317808,0,1
-0.0004264556,-0.0008580354,0,1
-0.0002700626,-0.0008829935,0,1
-1.643037e-05,-0.0008883416,0,1
0.0003046211,-0.0008679214,0,1
0.0006135177,-0.000827243,0,1
0.0008287407,-0.0007758683,0,1
0.000901346,-0.0007231971,0,1
0.0008340888,-0.0006763602,0,1
0.0006726716,-0.000631144,0,1
0.0004756001,-0.0005775004,0,1
0.0002830664,-0.0005042469,0,1
0.0001047945,-0.000410087,0,1
-6.132246e-05,-0.0002899966,0,1
-0.0002079916,-0.0001352242,0,1
-0.0003190063,8.113296e-05,0,1
-0.0003861013,0.0004044533,0,1
-0.0004191627,0.0008460816,0,1
-0.0004379622,0.001337302,0,1
-0.0004517378,0.001747491,0,1
-0.0004470379,0.001931759,0,1
-0.0004058733,0.001813613,0,1
-0.0003241924,0.001422225,0,1
-0.0002071812,0.0008786568,0,1
-6.780507e-05,0.0003255275,0,1
7.400208e-05,-0.0001191798,0,1
0.0002039785,-0.0003920977,0,1
0.0003245551,-0.0004802613,0,1
0.0004525868,-0.0004040906,0,1
0.0005963388,-0.0001958367,0,1
0.0007447907,0.0001116012,0,1
0.0008682846,0.000458097,0,1
0.0009366762,0.0007614834,0,1
0.0009387831,0.0009527208,0,1
0.0008942151,0.001004744,0,1
0.0008389507,0.0009402417,0,1
0.0008062135,0.00080751,0,1
0.0008039447,0.0006597064,0,1
0.0008101031,0.0005428572,0,1
0.0007853071,0.000480462,0,1
0.000683692,0.0004611762,0,1
0.0004814344,0.0004522626,0,1
0.0001939304,0.0004208219,0,1
-0.0001391138,0.0003506476,0,1
-0.0004726442,0.0002433604,0,1
-0.0007716547,0.000115977,0,1
-0.00100276,-3.465141e-06,0,1
-0.001131926,-8.320128e-05,0,1
-0.001139867,-0.0001088076,0,1
-0.0010389,-8.692878e-05,0,1
-0.0008687317,-3.425755e-05,0,1
-0.0006799257,2.667901e-05,0,1
-0.0005198052,7.351589e-05,0,1
-0.0004159214,9.101894e-05,0,1
-0.0003666535,7.983644e-05,0,1
-0.0003553089,5.228533e-05,0,1
-0.0003643846,2.441009e-05,0,1
-0.0003865875,-3.627206e-06,0,1
-0.000424997,-5.240886e-05,0,1
-0.0004792889,-0.0001378173,0,1
-0.0005389289,-0.0002514251,0,1
-0.0005807417,-0.0003656811,0,1
-0.0005826865,-0.0004517378,0,1
-0.0005420081,-0.0004971161,0,1
-0.0004781544,-0.0005128364,0,1
-0.0004248349,-0.0005176983,0,1
-0.0004066836,-0.000516888,0,1
-0.0004241867,-0.0005052193,0,1
-0.0004530343,-0.0004747511,0,1
-0.0004591928,-0.0004256453,0,1
-0.0004258073,-0.0003634122,0,1
-0.0003579019,-0.000283514,0,1
-0.0002791382,-0.0001831956,0,1
-0.0002122053,-6.342931e-05,0,1
-0.0001763888,7.691926e-05,0,1
-0.0001815749,0.0002289366,0,1
-0.0002284118,0.0003666921,0,1
-0.0003168994,0.0004683071,0,1
-0.0004402311,0.0005102821,0,1
-0.0005744212,0.0004773828,0,1
-0.0006841394,0.0003679886,0,1
-0.0007348658,0.0001968476,0,1
-0.0007066664,-1.724069e-05,0,1
-0.0006042412,-0.0002527216,0,1
-0.0004507654,-0.0004786406,0,1
-0.0002771934,-0.0006544815,0,1
-0.0001042698,-0.0007473448,0,1
5.893001e-05,-0.0007481552,0,1
0.0002075439,-0.000680736,0,1
0.0003329825,-0.0005762039,0,1
0.0004172565,-0.0004556273,0,1
0.000448211,-0.000325651,0,1
0.0004279528,-0.0001895161,0,1
0.0003723644,-5.69467e-05,0,1
0.0002992729,5.050261e-05,0,1
0.0002229401,0.0001180839,0,1
0.0001564933,0.0001501728,0,1
0.0001099806,0.0001668655,0,1
8.664318e-05,0.0002015475,0,1
7.643307e-05,0.0002741528,0,1
6.427817e-05,0.0003640991,0,1
4.645098e-05,0.0004151496,0,1
2.910999e-05,0.0003801436,0,1
2.424803e-05,0.0002568118,0,1
4.920609e-05,9.053275e-05,0,1
0.0001166253,-6.132246e-05,0,1
0.0002162954,-0.0001535376,0,1
0.0003357376,-0.0001812508,0,1
0.0004707381,-0.0001679614,0,1
0.0006096281,-0.0001496481,0,1
0.0007305289,-0.0001511067,0,1
0.0008141547,-0.0001665028,0,1
0.0008546711,-0.0001640719,0,1
0.0008669881,-0.0001054042,0,1
0.0008763879,3.494434e-05,0,1
0.000906532,0.0002564877,0,1
0.0009543414,0.0005307022,0,1
0.0009912923,0.000809779,0,1
0.0009809202,0.00104056,0,1
0.0008951875,0.001181233,0,1
0.0007271256,0.001208946,0,1
0.0005059062,0.001128076,0,1
0.0002749631,0.0009664963,0,1
7.853991e-05,0.0007747728,0,1
-5.937768e-05,0.0006013628,0,1
-0.0001481895,0.000473007,0,1
-0.0002227395,0.0003995914,0,1
-0.0003040963,0.0003709058,0,1
-0.0003773498,0.0003521062,0,1
-0.0004094387,0.0002916559,0,1
-0.0003718396,0.0001542244,0,1
-0.0002676316,-6.083626e-05,0,1
-0.0001292278,-0.0003209511,0,1
-4.113403e-06,-0.0005817142,0,1
7.481241e-05,-0.0008039057,0,1
0.0001023635,-0.0009680777,0,1
9.63671e-05,-0.001071475,0,1
7.951231e-05,-0.001125929,0,1
6.557468e-05,-0.001150077,0,1
5.066468e-05,-0.00115267,0,1
2.76514e-05,-0.001136788,0,1
-4.599598e-06,-0.001091734,0,1
-4.252288e-05,-0.0009954668,0,1
-8.060823e-05,-0.0008228673,0,1
-0.00010978,-0.0005561078,0,1
-0.0001182074,-0.0001757406,0,1
-9.681477e-05,0.0003232586,0,1
-4.398147e-05,0.0008823843,0,1
2.81376e-05,0.001378467,0,1
9.766362e-05,0.001664837,0,1
0.0001480659,0.001658516,0,1
0.0001752929,0.001391919,0,1
0.0001906891,0.0009891854,0,1
0.0002047888,0.000594394,0,1
0.0002179161,0.0003081865,0,1
0.000222616,0.0001645966,0,1
0.0002125679,0.0001425557,0,1
0.0001906891,0.0001850168,0,1
0.0001623277,0.0002313675,0,1
0.0001261871,0.0002386605,0,1
7.076078e-05,0.0001895547,0,1
-4.761664e-06,8.615699e-05,0,1
-8.82253e-05,-5.030202e-05,0,1
-0.0001588858,-0.0001874093,0,1
-0.0001971332,-0.0002919414,0,1
-0.0002011848,-0.000345585,0,1
-0.0001848162,-0.0003481781,0,1
-0.0001621271,-0.0003177098,0,1
-0.000142031,-0.0002828657,0,1
-0.0001277692,-0.000258718,0,1
-0.000112211,-0.0002323013,0,1
-8.465986e-05,-0.0001762268,0,1
-4.43056e-05,-7.55842e-05,0,1
-1.682422e-06,5.828175e-05,0,1
3.721326e-05,0.0001819376,0,1
7.319176e-05,0.0002444948,0,1
0.0001090082,0.0002185644,0,1
0.0001449867,0.0001171115,0,1
0.0001715654,-2.323711e-05,0,1
0.0001770756,-0.0001572651,0,1
0.0001684862,-0.0002507768,0,1
0.0001594105,-0.0002945344,0,1
0.0001576278,-0.0002951827,0,1
0.0001633001,-0.0002673075,0,1
0.0001663793,-0.0002217671,0,1
0.0001464453,-0.0001596961,0,1
8.956036e-05,-7.55842e-05,0,1
-3.465141e-06,3.283749e-05,0,1
-0.0001052422,0.0001586002,0,1
-0.0001820611,0.0002793389,0,1
-0.00021415,0.0003616681,0,1
-0.0002029675,0.0003843572,0,1
-0.0001622891,0.0003493511,0,1
-0.0001125351,0.000282256,0,1
-7.736692e-05,0.0002104611,0,1
-7.963584e-05,0.0001363972,0,1
-0.0001250141,4.272347e-05,0,1
-0.0001930815,-7.623246e-05,0,1
-0.0002442942,-0.0002003745,0,1
-0.0002436459,-0.0002987481,0,1
-0.0001869231,-0.0003595226,0,1
-0.0001060525,-0.0003930701,0,1
-4.236082e-05,-0.0004241867,0,1
-2.404744e-05,-0.0004758855,0,1
-4.949169e-05,-0.0005514079,0,1
-9.065628e-05,-0.0006361681,0,1
-0.0001233935,-0.000707963,0,1
-0.0001387897,-0.0007419967,0,1
-0.0001433275,-0.0007206041,0,1
-0.000151917,-0.00064103,0,1
-0.0001763888,-0.0005129984,0,1
-0.0002175534,-0.0003666535,0,1
-0.0002579077,-0.0002366771,0,1
-0.0002648765,-0.0001475412,0,1
-0.0002105846,-0.0001020008,0,1
-8.887356e-05,-8.757704e-05,0,1
8.161915e-05,-8.709085e-05,0,1
0.000262322,-7.882551e-05,0,1
0.0004051016,-3.312309e-05,0,1
0.0004710622,7.270556e-05,0,1
0.0004462662,0.0002334744,0,1
0.0003532407,0.0004057499,0,1
0.0002320158,0.0005339436,0,1
0.0001232699,0.000574622,0,1
4.483033e-05,0.0005083373,0,1
-3.303076e-06,0.0003534027,0,1
-3.150244e-05,0.0001561692,0,1
-5.435365e-05,-3.360929e-05,0,1
-8.174268e-05,-0.0001818991,0,1
-0.0001130213,-0.0002749245,0,1
-0.0001423551,-0.0003104168,0,1
-0.0001671511,-0.0002972895,0,1
-0.000181737,-0.0002575835,0,1
-0.0001794681,-0.0002180396,0,1
-0.0001674752,-0.0001929195,0,1
-0.0001634236,-0.0001880575,0,1
-0.0001849783,-0.0002023193,0,1
-0.0002355427,-0.0002277635,0,1
-0.0003104168,-0.0002533699,0,1
-0.0004014975,-0.0002726556,0,1
-0.0004982505,-0.0002801106,0,1
-0.0005869002,-0.0002731418,0,1
-0.0006478368,-0.0002522354,0,1
-0.0006604778,-0.0002199844,0,1
-0.0006172064,-0.0001833576,0,1
-0.0005311498,-0.0001483515,0,1
-0.0004207833,-0.0001159385,0,1
-0.0002985861,-8.887356e-05,0,1
-0.0001684476,-7.60704e-05,0,1
-4.203669e-05,-8.352541e-05,0,1
6.265751e-05,-0.0001101041,0,1
0.0001151667,-0.0001428413,0,1
9.328786e-05,-0.000161965,0,1
-5.57199e-06,-0.0001554824,0,1
-0.0001572651,-0.0001279313,0,1
-0.0003110651,-9.19528e-05,0,1
-0.0004044147,-5.629844e-05,0,1
-0.0004031182,-1.950961e-05,0,1
-0.000328082,1.906194e-05,0,1
-0.000238946,5.61749e-05,0,1
-0.0001903264,8.891209e-05,0,1
-0.0001968091,0.0001138702,0,1
-0.0002303566,0.0001336421,0,1
-0.0002348944,0.0001516314,0,1
-0.0001645581,0.0001652449,0,1
-1.67545e-05,0.0001527658,0,1
0.0001751309,0.000113384,0,1
0.0003585888,7.076078e-05,0,1
0.0004825689,5.066468e-05,0,1
0.0005230852,6.573675e-05,0,1
0.0004900239,0.000105929,0,1
0.000418391,0.0001543865,0,1
0.00035162,0.0001968476,0,1
0.0003258516,0.000234933,0,1
0.0003548613,0.0002778803,0,1
0.0004313562,0.0003342791,0,1
0.000532485,0.000393757,0,1
0.0006381517,0.0004229288,0,1
0.0007313393,0.0003965121,0,1
0.0007958413,0.0003195311,0,1
0.0008232304,0.000225047,0,1
0.0008078342,0.0001492004,0,1
0.0007503009,0.0001077117,0,1
0.0006707268,9.507057e-05,0,1
0.0005960147,9.944634e-05,0,1
0.0005495019,0.0001125736,0,1
0.0005370228,0.0001375317,0,1
0.0005417228,0.0002081922,0,1
0.000534916,0.0003613439,0,1
0.0004919686,0.0006046041,0,1
0.0004038051,0.000901508,0,1
0.0002806354,0.001192416,0,1
0.000145635,0.001433407,0,1
2.700314e-05,0.001635017,0,1
-5.240886e-05,0.001844244,0,1
-8.530812e-05,0.002077781,0,1
-8.935975e-05,0.002276636,0,1
-9.66527e-05,0.002318449,0,1
-0.000134576,0.002092853,0,1
-0.0001989159,0.001590611,0,1
-0.0002614731,0.000916256,0,1
-0.000303286,0.0002245608,0,1
-0.000330675,-0.0003478539,0,1
-0.0003596847,-0.0007407002,0,1
-0.0003942046,-0.0009688881,0,1
-0.0004237005,-0.001073096,0,1
-0.0004342347,-0.001085089,0,1
-0.0004204592,-0.001015887,0,1
-0.0003893426,-0.00086938,0,1
-0.0003548227,-0.0006659881,0,1
-0.0003340784,-0.0004455793,0,1
-0.000342992,-0.0002567732,0,1
-0.0003873979,-0.0001400862,0,1
-0.000449955,-0.0001146419,0,1
-0.0004927403,-0.0001721751,0,1
-0.0004802613,-0.0002836761,0,1
-0.0004037664,-0.0004058733,0,1
-0.0002828657,-0.0004977643,0,1
-0.0001473791,-0.0005314739,0,1
-2.777494e-05,-0.0005047331,0,1
5.439218e-05,-0.0004313175,0,1
9.701536e-05,-0.0003384541,0,1
0.000106091,-0.0002561249,0,1
9.004655e-05,-0.0002023193,0,1
5.341979e-05,-0.0001818991,0,1
4.244267e-07,-0.0001900023,0,1
-5.824322e-05,-0.0002212809,0,1
-0.0001114006,-0.0002652006,0,1
-0.0001530514,-0.000310741,0,1
-0.0001776853,-0.0003514194,0,1
-0.0001746061,-0.0003930701,0,1
-0.0001394379,-0.0004501171,0,1
-7.33153e-05,-0.0005352014,0,1
2.635488e-05,-0.0006420024,0,1
0.0001568175,-0.0007556102,0,1
0.0003021901,-0.0008538218,0,1
0.0004263322,-0.0009196203,0,1
0.0004952099,-0.0009449024,0,1
0.000497803,-0.0009418232,0,1
0.0004517764,-0.0009290201,0,1
0.0003850055,-0.0009226995,0,1
0.000319207,-0.0009254546,0,1
0.000262322,-0.0009230236,0,1
0.0002164575,-0.0008962828,0,1
0.0001809652,-0.0008437737,0,1
0.0001436902,-0.0007881853,0,1
8.42122e-05,-0.0007536653,0,1
-1.173047e-05,-0.0007522068,0,1
-0.0001430034,-0.0007680892,0,1
-0.0002974516,-0.00076501,0,1
-0.0004457413,-0.0007026148,0,1
-0.0005499493,-0.00055157,0,1
-0.000581552,-0.0003094444,0,1
-0.0005332566,-2.168618e-06,0,1
-0.0004327761,0.0003208276,0,1
-0.0003272716,0.0006089798,0,1
-0.0002533699,0.0008274441,0,1
-0.0002084778,0.0009648756,0,1
-0.0001579134,0.001041857,0,1
-7.898758e-05,0.001106521,0,1
2.570662e-05,0.001199384,0,1
0.0001393144,0.001328065,0,1
0.0002407673,0.001469548,0,1
0.000316776,0.001580239,0,1
0.0003613439,0.00161168,0,1
0.0003691231,0.001527568,0,1
0.0003397893,0.001323041,0,1
0.0002795009,0.001033105,0,1
0.0002060853,0.0007224257,0,1
0.0001402868,0.000458097,0,1
9.231547e-05,0.0002762596,0,1
6.476436e-05,0.000180479,0,1
5.94162e-05,0.0001568175,0,1
7.481241e-05,0.0001827479,0,1
9.652917e-05,0.0002323399,0,1
9.344993e-05,0.0002765838,0,1
3.93201e-05,0.0002901973,0,1
-7.412562e-05,0.0002645909,0,1
-0.0002295462,0.0002124059,0,1
-0.000395177,0.0001511452,0,1
-0.0005337428,9.26396e-05,0,1
-0.0006176926,3.850978e-05,0,1
-0.0006369784,-2.080613e-05,0,1
-0.0006026206,-9.973194e-05,0,1
-0.0005381186,-0.0002019951,0,1
-0.0004591928,-0.0003138202,0,1
-0.0003783222,-0.0004165696,0,1
-0.0003159271,-0.0004995471,0,1
-0.0003052308,-0.0005645352,0,1
-0.0003692465,-0.000613641,0,1
-0.0005073262,-0.0006439472,0,1
-0.0006794395,-0.0006463782,0,1
-0.0008133054,-0.0006092652,0,1
-0.0008306464,-0.0005256396,0,1
-0.0006922426,-0.0004113835,0,1
-0.0004219178,-0.0003024756,0,1
-9.940781e-05,-0.0002454286,0,1
0.000177886,-0.0002700626,0,1
0.0003475684,-0.0003710293,0,1
0.0004098015,-0.0005053814,0,1
0.0004115842,-0.0006199615,0,1
0.000408505,-0.0006797637,0,1
0.0004381629,-0.0006802498,0,1
0.0005138475,-0.0006392473,0,1
0.0006214589,-0.0005797693,0,1
0.0007271256,-0.0005147812,0,1
0.000807348,-0.0004617858,0,1
0.0008627744,-0.0004412035,0,1
0.0009034528,-0.0004627582,0,1
0.0009280868,-0.0005178604,0,1
0.0009314902,-0.000581552,0,1
0.0009118802,-0.0006282268,0,1
0.0008723363,-0.0006381128,0,1
0.0008063756,-0.000598893,0,1
0.0007102708,-0.0005105674,0,1
0.0005924492,-0.0003867496,0,1
0.0004752759,-0.0002418632,0,1
0.0003932708,-7.947377e-05,0,1
0.0003691231,0.0001005808,0,1
0.000393595,0.0002851732,0,1
0.0004273046,0.0004514523,0,1
0.0004253598,0.0005718669,0,1
0.0003571303,0.0006308587,0,1
0.0002208333,0.0006478756,0,1
3.721326e-05,0.0006814231,0,1
-0.0001548341,0.000782552,0,1
-0.0003128478,0.0009358659,0,1
-0.0003985804,0.001052715,0,1
-0.0003997148,0.001024678,0,1
-0.0003475298,0.00080751,0,1
-0.0003049066,0.0004478869,0,1
-0.0003298647,5.293359e-05,0,1
-0.0004311555,-0.0002640662,0,1
-0.0005656697,-0.000439907,0,1
-0.0006724707,-0.0004689167,0,1
-0.0007102319,-0.0003784843,0,1
-0.0006857601,-0.0002037779,0,1
-0.0006390853,3.380988e-05,0,1
-0.0006115342,0.0003342791,0,1
-0.0006197995,0.000701033,0,1
-0.000648323,0.001121431,0,1
-0.0006643674,0.001557063,0,1
-0.0006397335,0.001941483,0,1
-0.0005595111,0.002196251,0,1
-0.0004232143,0.002265615,0,1
-0.0002444563,0.002146011,0,1
-4.398147e-05,0.001878602,0,1
0.0001568175,0.001531781,0,1
0.0003349273,0.001179612,0,1
0.0004700898,0.0008754155,0,1
0.0005456123,0.0006297242,0,1
0.000557281,0.0004195254,0,1
0.0005122268,0.0002149989,0,1
0.000428439,5.610517e-06,0,1
0.0003337929,-0.0002000504,0,1
0.0002517878,-0.0003771877,0,1
0.0001842065,-0.0005029504,0,1
0.000120839,-0.0005658317,0,1
5.536457e-05,-0.0005766901,0,1
-4.437533e-06,-0.0005612939,0,1
-4.090223e-05,-0.0005523803,0,1
-3.312309e-05,-0.0005668041,0,1
2.829966e-05,-0.0006014861,0,1
0.0001239182,-0.0006429748,0,1
0.0002055991,-0.000680736,0,1
0.0002232643,-0.0007073147,0,1
0.0001488763,-0.0007147697,0,1
-7.192643e-06,-0.0006985632,0,1
-0.0002031296,-0.00067085,0,1
-0.0003789705,-0.0006619364,0,1
-0.0004860956,-0.0006953219,0,1
-0.0005053814,-0.0007684134,0,1
-0.0004561135,-0.0008554424,0,1
-0.0003755671,-0.0009285338,0,1
-0.0002914552,-0.0009698605,0,1
-0.0002073433,-0.0009732639,0,1
-0.0001191798,-0.0009295062,0,1
-3.150244e-05,-0.0008243258,0,1
5.066468e-05,-0.0006369784,0,1
0.0001231079,-0.0003637363,0,1
0.0001846927,-3.652646e-05,0,1
0.0002344468,0.0002842008,0,1
0.0002710735,0.0005336195,0,1
0.0002963557,0.0006624615,0,1
0.0003101313,0.0006553305,0,1
0.0003120761,0.000532647,0,1
0.0002944109,0.0003324963,0,1
0.000239957,9.037068e-05,0,1
0.0001388282,-0.0001575893,0,1
-1.682422e-06,-0.0003760533,0,1
-0.0001512687,-0.0005330946,0,1
-0.0002773555,-0.0006018102,0,1
-0.0003650328,-0.0005784728,0,1
-0.0004264556,-0.0004856094,0,1
-0.0004826922,-0.0003624398,0,1
-0.0005350393,-0.0002441321,0,1
-0.0005625904,-0.0001561307,0,1
-0.0005433047,-0.0001162626,0,1
-0.0004674581,-0.0001255003,0,1
-0.000350609,-0.0001702304,0,1
-0.0002196603,-0.000226467,0,1
-0.0001031353,-0.00027849,0,1
-2.323711e-05,-0.0003209511,0,1
9.986281e-06,-0.0003519055,0,1
2.369211e-06,-0.000360495,0,1
-2.680255e-05,-0.0003329439,0,1
-5.402952e-05,-0.0002671454,0,1
-5.710876e-05,-0.0001849783,0,1
-2.826114e-05,-0.0001298761,0,1
3.267542e-05,-0.0001366828,0,1
0.0001148425,-0.0002227395,0,1
0.000207706,-0.0003820497,0,1
0.0003028383,-0.0005799314,0,1
0.0003957018,-0.00076501,0,1
0.0004871067,-0.0008922312,0,1
0.0005791598,-0.0009424714,0,1
0.0006742922,-0.0009286959,0,1
0.0007588904,-0.0008847762,0,1
0.0008037825,-0.0008406945,0,1
0.0007853071,-0.0008061745,0,1
0.0007136742,-0.0007659824,0,1
0.000621783,-0.0006852738,0,1
0.0005460985,-0.0005361738,0,1
0.0005023408,-0.0003125237,0,1
0.0004817585,-2.971972e-05,0,1
0.0004589073,0.0002863077,0,1
0.0004127187,0.000624052,0,1
0.0003363859,0.0009946957,0,1
0.0002384984,0.001411204,0,1
0.0001351007,0.001838248,0,1
3.13789e-05,0.002179072,0,1
-6.926366e-05,0.002310345,0,1
-0.0001546721,0.002162217,0,1
-0.0002136638,0.001772773,0,1
-0.0002355427,0.001275717,0,1
-0.0002152845,0.0008243649,0,1
-0.0001525652,0.0005195198,0,1
-6.197072e-05,0.0003765781,0,1
2.538249e-05,0.0003433547,0,1
7.059871e-05,0.0003464339,0,1
3.60788e-05,0.0003362238,0,1
-8.741498e-05,0.0002863077,0,1
-0.000273628,0.0002018716,0,1
-0.0004695649,0.000105929,0,1
-0.0006254718,2.230325e-05,0,1
-0.0007053699,-3.117831e-05,0,1
-0.0006826808,-4.738484e-05,0,1
-0.0005471942,-3.668853e-05,0,1
-0.0003228959,-2.518189e-05,0,1
-6.0188e-05,-3.458168e-05,0,1
0.0001743205,-6.893953e-05,0,1
0.0003183966,-0.0001151281,0,1
0.0003381686,-0.0001566169,0,1
0.0002519498,-0.0001771992,0,1
0.0001222976,-0.0001697442,0,1
1.59827e-05,-0.0001358725,0,1
-2.453363e-05,-8.433573e-05,0,1
7.485573e-07,-1.99958e-05,0,1
5.860588e-05,5.56887e-05,0,1
0.0001004187,0.0001351007,0,1
9.085688e-05,0.000187934,0,1
1.533444e-05,0.00018291,0,1
-0.0001169109,0.0001124116,0,1
-0.0002783279,2.693341e-06,0,1
-0.0004416897,-9.843541e-05,0,1
-0.000586414,-0.0001451102,0,1
-0.0007024527,-0.000122097,0,1
-0.0007828371,-4.722278e-05,0,1
-0.0008230293,4.758544e-05,0,1
-0.0008120089,0.0001339663,0,1
-0.0007408622,0.0002062474,0,1
-0.0006150996,0.0002738286,0,1
-0.000447362,0.0003360618,0,1
-0.0002624455,0.0003799815,0,1
-9.098041e-05,0.0003950536,0,1
4.304761e-05,0.0003982949,0,1
0.0001239182,0.0004344354,0,1
0.0001483901,0.0005535535,0,1
0.0001367214,0.000772828,0,1
0.0001219734,0.001057901,0,1
0.0001344524,0.00131202,0,1
0.00018291,0.001428221,0,1
0.0002602152,0.00135205,0,1
0.0003537269,0.001121755,0,1
0.0004415663,0.0008596951,0,1
0.0004924549,0.0006840162,0,1
0.0004809482,0.0006086557,0,1
0.0004094774,0.0005467468,0,1
0.0002971661,0.0003992672,0,1
0.0001722137,0.0001274836,0,1
6.217132e-05,-0.0002251705,0,1
-1.043395e-05,-0.0005721523,0,1
-2.161646e-05,-0.0008466908,0,1
4.628891e-05,-0.001031121,0,1
0.0001867996,-0.001144081,0,1
0.0003610198,-0.001220738,0,1
0.0005072028,-0.001290102,0,1
0.0005726772,-0.001361086,0,1
0.0005329712,-0.001431423,0,1
0.0003916502,-0.00149479,0,1
0.0001786963,-0.001549082,0,1
-5.905355e-05,-0.001583116,0,1
-0.0002723315,-0.001575012,0,1
-0.0004290486,-0.001495276,0,1
-0.0005104054,-0.001307605,0,1
-0.0004930644,-0.0009841222,0,1
-0.0003494746,-0.0005499493,0,1
-7.412562e-05,-9.033215e-05,0,1
0.0002833905,0.0002754493,0,1
0.0006250244,0.0004529109,0,1
0.0008486747,0.0004083429,0,1
0.0008912979,0.0001822617,0,1
0.000750625,-0.000129714,0,1
0.0004856481,-0.000422566,0,1
0.0001833962,-0.0006283889,0,1
-7.833932e-05,-0.0007287074,0,1
-0.0002567732,-0.0007360002,0,1
-0.0003463953,-0.0006637191,0,1
-0.0003724878,-0.0005225603,0,1
-0.00036795,-0.0003305129,0,1
-0.0003614674,-0.0001245279,0,1
-0.0003689224,5.747142e-05,0,1
-0.000385291,0.0001882582,0,1
-0.0003930701,0.0002569738,0,1
-0.000385291,0.0002681563,0,1
-0.0003697327,0.0002365536,0,1
-0.0003656811,0.0001845306,0,1
-0.0003809152,0.0001260251,0,1
-0.0004068457,6.83298e-05,0,1
-0.0004214316,9.338019e-06,0,1
-0.000405063,-6.245691e-05,0,1
-0.0003588744,-0.0001509446,0,1
-0.0003097686,-0.0002535319,0,1
-0.0002852967,-0.0003559572,0,1
-0.0002968033,-0.0004408794,0,1
-0.0003438023,-0.0004985746,0,1
-0.0004066836,-0.0005212637,0,1
-0.0004553032,-0.000509595,0,1
-0.0004569239,-0.0004736166,0,1
-0.0003985804,-0.0004272659,0,1
-0.0002963172,-0.0003755671,0,1
-0.0001943781,-0.0003097686,0,1
-0.0001402483,-0.000213988,0,1
-0.0001596961,-7.704279e-05,0,1
-0.0002376495,0.000108522,0,1
-0.0003368335,0.0003511338,0,1
-0.0004040906,0.0006634339,0,1
-0.0003942046,0.001045422,0,1
-0.0002925897,0.00146031,0,1
-0.0001280934,0.001822851,0,1
3.575467e-05,0.002024623,0,1
0.0001459591,0.001985241,0,1
0.0001864754,0.001708109,0,1
0.0001809652,0.001277824,0,1
0.0001743205,0.0008167478,0,1
0.000202844,0.0004255218,0,1
0.0002811216,0.000155521,0,1
0.0004047775,7.069105e-06,0,1
0.0005542018,-3.863332e-05,0,1
0.0007130259,-5.734056e-06,0,1
0.0008703915,7.513654e-05,0,1
0.00100523,0.0001675138,0,1
0.001094204,0.0002352571,0,1
0.00111511,0.0002542187,0,1
0.001050608,0.0002247229,0,1
0.0009021563,0.000173024,0,1
0.0006939021,0.000133318,0,1
0.0004702519,0.0001433661,0,1
0.0002752873,0.0002401191,0,1
0.0001367214,0.0004412422,0,1
5.163707e-05,0.0007167534,0,1
-2.978945e-06,0.0009760582,0,1
-5.32192e-05,0.001119972,0,1
-0.0001177212,0.001089018,0,1
-0.0001981056,0.0008887049,0,1
-0.0002778417,0.0005757565,0,1
-0.0003321336,0.0002328261,0,1
-0.0003408851,-6.002594e-05,0,1
-0.0002976137,-0.000253694,0,1
-0.0002019951,-0.0003369955,0,1
-5.710876e-05,-0.0003334301,0,1
0.0001213252,-0.0002801106,0,1
0.0003055935,-0.000224036,0,1
0.0004657141,-0.0002092881,0,1
0.00057446,-0.0002639041,0,1
0.000629076,-0.0003776739,0,1
0.000643986,-0.0005110537,0,1
0.0006349103,-0.0006092652,0,1
0.0006055765,-0.0006326026,0,1
0.0005511225,-0.0005755557,0,1
0.0004632831,-0.000467134,0,1
0.0003555096,-0.0003577399,0,1
0.000262322,-0.0002874036,0,1
0.0002153231,-0.0002647144,0,1
0.0002180782,-0.000271035,0,1
0.0002440086,-0.00027849,0,1
0.0002543808,-0.0002708729,0,1
0.0002213195,-0.0002486699,0,1
0.000145797,-0.0002204706,0,1
5.098881e-05,-0.0001844921,0,1
-3.069211e-05,-0.0001269589,0,1
-7.477388e-05,-4.511593e-05,0,1
-6.91016e-05,3.834771e-05,0,1
-3.279896e-05,8.74535e-05,0,1
-6.868513e-06,7.481241e-05,0,1
-3.960571e-05,-5.57199e-06,0,1
-0.0001567789,-0.0001358725,0,1
-0.0003363473,-0.0002799486,0,1
-0.0005151053,-0.0003961493,0,1
-0.0006191512,-0.0004612996,0,1
-0.0006092652,-0.0004650271,0,1
-0.0004966299,-0.0003920977,0,1
-0.0003285682,-0.0002308428,0,1
-0.0001705545,9.986281e-06,0,1
-7.736692e-05,0.0002936006,0,1
-7.428769e-05,0.0005522569,0,1
-0.000147055,0.0007076777,0,1
-0.0002566112,0.0007075156,0,1
-0.0003651949,0.0005482053,0,1
-0.000457248,0.0002723701,0,1
-0.0005363359,-6.245691e-05,0,1
-0.0006065101,-0.0003979321,0,1
-0.0006650157,-0.0006812222,0,1
-0.0007043975,-0.000876835,0,1
-0.0007172007,-0.0009716432,0,1
-0.0006958081,-0.0009721294,0,1
-0.000638599,-0.0008995241,0,1
-0.0005577285,-0.0007854302,0,1
-0.0004718339,-0.0006596675,0,1
-0.000402794,-0.0005470322,0,1
-0.0003650328,-0.0004625961,0,1
-0.0003583881,-0.0004107352,0,1
-0.0003634122,-0.0003862634,0,1
-0.0003588744,-0.0003720016,0,1
