EMG1,EMG2,class,user
-0.0005191569,-0.0008640318,0,1
-0.0005300153,-0.0007941817,0,1
-0.000556756,-0.0006632329,0,1
-0.0005857658,-0.0004731304,0,1
-0.000593869,-0.0002358668,0,1
-0.0005632387,2.39239e-05,0,1
-0.0004935506,0.0002689667,0,1
-0.0003956632,0.0004584211,0,1
-0.0002865932,0.0005691118,0,1
-0.0001869231,0.0005984457,0,1
-0.0001152902,0.0005613327,0,1
-8.790117e-05,0.0004809482,0,1
-0.0001141558,0.0003827366,0,1
-0.0001854645,0.0002932765,0,1
-0.0002729798,0.0002313675,0,1
-0.0003425058,0.0002057612,0,1
-0.000367788,0.0002133783,0,1
-0.0003290543,0.0002454672,0,1
-0.000209126,0.0002952213,0,1
-2.031993e-05,0.00035162,0,1
0.0001911753,0.0004026706,0,1
0.0003692851,0.0004397836,0,1
0.0004762483,0.000460528,0,1
0.0005073649,0.0004704139,0,1
0.0004726828,0.0004726828,0,1
0.0003880847,0.0004678209,0,1
0.0002837146,0.0004555039,0,1
0.000195227,0.0004370285,0,1
0.0001522796,0.0004136911,0,1
0.0001678379,0.0003898674,0,1
0.0002221298,0.000371392,0,1
0.0002801492,0.0003613439,0,1
0.0003128864,0.0003537269,0,1
0.0002992729,0.0003383307,0,1
0.0002313675,0.0003101313,0,1
0.0001143563,0.0002726942,0,1
-2.129233e-05,0.0002312055,0,1
-0.0001357104,0.0001957132,0,1
-0.0002021572,0.0001689724,0,1
-0.0002147983,0.0001498487,0,1
-0.0001877334,0.0001323456,0,1
-0.0001459206,0.0001043083,0,1
-0.0001092938,5.698522e-05,0,1
-8.660465e-05,-6.382317e-06,0,1
-7.007399e-05,-7.23429e-05,0,1
-5.467778e-05,-0.0001253383,0,1
-5.078821e-05,-0.0001574272,0,1
-6.699475e-05,-0.0001760647,0,1
-9.519411e-05,-0.0001951884,0,1
-0.0001002181,-0.000224036,0,1
-4.511593e-05,-0.0002598524,0,1
8.826383e-05,-0.0002942103,0,1
0.000279663,-0.0003201407,0,1
0.0004824068,-0.0003397507,0,1
0.0006519272,-0.0003630881,0,1
0.0007699109,-0.0003967976,0,1
0.0008442989,-0.0004418518,0,1
0.0008911358,-0.0004995471,0,1
0.0009207938,-0.0005531906,0,1
0.0009353797,-0.0005760419,0,1
0.0009303557,-0.0005504355,0,1
0.0008994011,-0.0004875542,0,1
0.000837006,-0.0004079801,0,1
0.0007472217,-0.0003403989,0,1
0.0006392861,-0.0003087962,0,1
0.0005269747,-0.0003212752,0,1
0.0004148255,-0.0003650328,0,1
0.0002957075,-0.0004190006,0,1
0.0001602208,-0.0004619479,0,1
1.403791e-05,-0.0004852853,0,1
-0.000127121,-0.0004860956,0,1
-0.0002433218,-0.0004679443,0,1
-0.0003199787,-0.0004339106,0,1
-0.0003514194,-0.0003731361,0,1
-0.0003438023,-0.00027849,0,1
-0.0003097686,-0.000161965,0,1
-0.000276059,-5.467778e-05,0,1
-0.0002676316,1.12828e-05,0,1
-0.0002930758,2.619281e-05,0,1
-0.0003457471,3.341602e-06,0,1
-0.0004136524,-3.668853e-05,0,1
-0.000482206,-8.287715e-05,0,1
-0.0005343911,-0.0001358725,0,1
-0.0005543251,-0.0001940539,0,1
-0.0005352014,-0.0002519113,0,1
-0.000482206,-0.0003006929,0,1
-0.0004045768,-0.0003335922,0,1
-0.0003073376,-0.0003454229,0,1
-0.0001882196,-0.0003275957,0,1
-5.111234e-05,-0.0002812451,0,1
9.426025e-05,-0.0002227395,0,1
0.0002245608,-0.0001806025,0,1
0.0003047831,-0.0001784957,0,1
0.000304297,-0.0002162569,0,1
0.0002237505,-0.0002723315,0,1
9.231547e-05,-0.0003219235,0,1
-4.187462e-05,-0.0003579019,0,1
-0.0001379794,-0.0003899909,0,1
-0.0001831956,-0.000424997,0,1
-0.0001906506,-0.000457248,0,1
-0.0001771992,-0.0004718339,0,1
-0.0001499722,-0.0004531963,0,1
-0.000104918,-0.0003964735,0,1
-3.150244e-05,-0.00030831,0,1
6.995045e-05,-0.0001958367,0,1
0.0001812893,-6.326724e-05,0,1
0.0002735045,8.858796e-05,0,1
0.0003149933,0.0002555152,0,1
0.000292142,0.000426008,0,1
0.0002099749,0.00058937,0,1
9.426025e-05,0.0007400909,0,1
-2.501983e-05,0.0008677984,0,1
-0.0001248521,0.0009580689,0,1
-0.0001950263,0.001007499,0,1
-0.0002371633,0.001027433,0,1
-0.0002567732,0.001034564,0,1
-0.000253694,0.001042181,0,1
-0.0002237119,0.001053039,0,1
-0.0001713648,0.001051905,0,1
-0.0001091317,0.001015116,0,1
-5.159854e-05,0.0009292212,0,1
-7.030578e-06,0.0007982723,0,1
1.419998e-05,0.0006387999,0,1
3.827799e-06,0.0004773828,0,1
-3.928157e-05,0.0003545372,0,1
-0.000107349,0.0003159656,0,1
-0.0001791439,0.0003744712,0,1
-0.0002274394,0.0004926169,0,1
-0.0002345703,0.0006005525,0,1
-0.0002044261,0.0006328035,0,1
-0.0001478653,0.00055955,0,1
-7.266703e-05,0.0003809539,0,1
1.290346e-05,0.0001166253,0,1
9.280167e-05,-0.0001937298,0,1
0.0001464453,-0.0004956574,0,1
0.0001592484,-0.000740214,0,1
0.0001347766,-0.0009006586,0,1
8.680524e-05,-0.0009794224,0,1
2.943412e-05,-0.0009980599,0,1
-2.080613e-05,-0.0009776396,0,1
-5.078821e-05,-0.0009387439,0,1
-6.06742e-05,-0.0008988759,0,1
-6.764301e-05,-0.0008603043,0,1
-9.162867e-05,-0.0008183295,0,1
-0.000137169,-0.0007599859,0,1
-0.0002021572,-0.0006770085,0,1
-0.000286107,-0.0005702075,0,1
-0.0003933943,-0.0004653512,0,1
-0.00051705,-0.0003906392,0,1
-0.0006373025,-0.0003564434,0,1
-0.0007319486,-0.0003501228,0,1
-0.0007838095,-0.0003421817,0,1
-0.0007789475,-0.0003079858,0,1
-0.0007212523,-0.0002451045,0,1
-0.0006207718,-0.0001616409,0,1
-0.0004966299,-7.023606e-05,0,1
-0.000362926,1.97102e-05,0,1
-0.0002395943,0.0001025256,0,1
-0.0001449482,0.0001746447,0,1
-8.547019e-05,0.0002320158,0,1
-4.90055e-05,0.0002788527,0,1
-1.805102e-05,0.000316938,0,1
2.01964e-05,0.000339303,0,1
7.092284e-05,0.0003404375,0,1
0.0001273216,0.0003201794,0,1
0.000175455,0.000287118,0,1
0.0001970097,0.0002561635,0,1
0.0001840444,0.0002372019,0,1
0.0001464453,0.0002312055,0,1
0.0001171115,0.0002292607,0,1
0.0001334801,0.0002282883,0,1
0.0002214815,0.0002247229,0,1
0.0003848434,0.0002145127,0,1
0.00060428,0.0001974959,0,1
0.0008467299,0.0001819376,0,1
0.001077673,0.0001735102,0,1
0.001275879,0.0001735102,0,1
0.001423845,0.0001827479,0,1
0.001500827,0.0002099749,0,1
0.001484134,0.000267184,0,1
0.001365664,0.000361506,0,1
0.001151575,0.0004896998,0,1
0.0008669881,0.0006425274,0,1
0.0005457744,0.0008041067,0,1
0.0002258573,0.0009488311,0,1
-5.386745e-05,0.001039264,0,1
-0.0002600145,0.001041857,0,1
-0.0003702189,0.0009541793,0,1
-0.0003862634,0.0008070238,0,1
-0.0003271096,0.000646417,0,1
-0.0002287359,0.000507689,0,1
-0.0001235555,0.0004156358,0,1
-3.21507e-05,0.0003828986,0,1
3.899597e-05,0.0004091532,0,1
8.291568e-05,0.0004720346,0,1
9.296373e-05,0.0005303781,0,1
6.654708e-05,0.0005435055,0,1
1.419998e-05,0.0004913204,0,1
-4.608832e-05,0.0003778746,0,1
-0.0001002181,0.000230071,0,1
-0.0001480274,8.567078e-05,0,1
-0.00019924,-1.772689e-05,0,1
-0.0002566112,-6.132246e-05,0,1
-0.0003094444,-5.208474e-05,0,1
-0.0003366714,-1.545797e-05,0,1
-0.000315765,1.938607e-05,0,1
-0.0002465631,3.024445e-05,0,1
-0.0001564548,4.638125e-06,0,1
-8.871149e-05,-5.548811e-05,0,1
-7.623246e-05,-0.0001327933,0,1
-0.0001214487,-0.0002079916,0,1
-0.0001979435,-0.0002677937,0,1
-0.0002622834,-0.0003003688,0,1
-0.0002804347,-0.0002985861,0,1
-0.0002421874,-0.000256287,0,1
-0.0001648822,-0.0001655305,0,1
-8.433573e-05,-2.826114e-05,0,1
-3.409549e-05,0.0001419075,0,1
-2.550602e-05,0.0003183966,0,1
-4.770897e-05,0.0004577728,0,1
-8.44978e-05,0.0005227611,0,1
-0.0001248521,0.0004966686,0,1
-0.0001655305,0.000393757,0,1
-0.0001981056,0.0002396328,0,1
-0.000213988,5.260946e-05,0,1
-0.0002021572,-0.0001449482,0,1
-0.0001622891,-0.0003238683,0,1
-0.0001078352,-0.0004611376,0,1
-4.689865e-05,-0.0005460597,0,1
1.54965e-05,-0.0005794452,0,1
7.708133e-05,-0.0005703696,0,1
0.0001294284,-0.0005369841,0,1
0.0001628139,-0.0005068399,0,1
0.0001736723,-0.0005058676,0,1
0.0001673517,-0.0005486528,0,1
0.0001483901,-0.0006288751,0,1
0.0001158149,-0.0007287074,0,1
7.335383e-05,-0.0008327533,0,1
3.089271e-05,-0.0009355026,0,1
2.531276e-06,-0.001028852,0,1
-5.57199e-06,-0.001094651,0,1
6.420843e-06,-0.001110695,0,1
4.709924e-05,-0.001052676,0,1
0.0001206769,-0.0009100584,0,1
0.0002140265,-0.0006979149,0,1
0.0003101313,-0.0004619479,0,1
0.0004038051,-0.0002590421,0,1
0.0005110924,-0.0001259865,0,1
0.0006360448,-6.310517e-05,0,1
0.0007550009,-4.349527e-05,0,1
0.0008329543,-4.009191e-05,0,1
0.0008327923,-3.911951e-05,0,1
0.0007363633,-4.43056e-05,0,1
0.0005559844,-5.921561e-05,0,1
0.000316776,-8.012204e-05,0,1
4.985435e-05,-9.276313e-05,0,1
-0.0001979435,-8.174268e-05,0,1
-0.0003805911,-4.333321e-05,0,1
-0.0004773441,1.047248e-05,0,1
-0.0004935506,6.314371e-05,0,1
-0.0004518998,9.798775e-05,0,1
-0.0003849669,0.000103498,0,1
-0.0003206269,8.226741e-05,0,1
-0.0002788141,4.45062e-05,0,1
-0.0002705488,4.313994e-06,0,1
-0.0002961551,-2.745081e-05,0,1
-0.0003507711,-4.284701e-05,0,1
-0.000427428,-3.441962e-05,0,1
-0.0005108916,-3.14101e-06,0,1
-0.000571504,3.786152e-05,0,1
-0.0005783107,6.897806e-05,0,1
-0.0005238568,8.032264e-05,0,1
-0.0004238625,7.643307e-05,0,1
-0.0003052308,6.622294e-05,0,1
-0.0001963229,5.19612e-05,0,1
-0.0001266348,3.024445e-05,0,1
-0.0001259865,-6.176923e-08,0,1
-0.0002073433,-3.198864e-05,0,1
-0.0003452609,-5.727083e-05,0,1
-0.0004875542,-7.088431e-05,0,1
-0.000578797,-7.347736e-05,0,1
-0.0005867381,-6.829127e-05,0,1
-0.0005105674,-4.835724e-05,0,1
-0.0003812394,6.90704e-06,0,1
-0.0002428356,0.0001018773,0,1
-0.000142031,0.0002132162,0,1
-0.0001112386,0.0003089969,0,1
-0.0001506204,0.0003644232,0,1
-0.0002308428,0.0003734989,0,1
-0.0003027998,0.000346596,0,1
-0.0003180339,0.0003010556,0,1
-0.0002468872,0.0002571359,0,1
-9.162867e-05,0.0002346088,0,1
0.0001127357,0.0002363916,0,1
0.0003114278,0.0002430362,0,1
0.000458259,0.0002224539,0,1
0.0005456123,0.0001513072,0,1
0.0006016869,2.651694e-05,0,1
0.0006674855,-0.0001289037,0,1
0.000772828,-0.0002770314,0,1
0.0009100975,-0.0003906392,0,1
0.00104445,-0.0004663236,0,1
0.001128562,-0.0005240189,0,1
0.001132775,-0.0005807417,0,1
0.001056281,-0.0006491333,0,1
0.0009251696,-0.0007407002,0,1
0.0007780141,-0.0008581975,0,1
0.0006407447,-0.0009742362,0,1
0.0005136854,-0.001040035,0,1
0.000383709,-0.001016859,0,1
0.0002483844,-0.0009079515,0,1
0.0001167873,-0.0007497758,0,1
-1.358292e-06,-0.0005919242,0,1
-9.568031e-05,-0.0004617858,0,1
-0.0001618029,-0.0003601709,0,1
-0.000206695,-0.0002820554,0,1
-0.0002439701,-0.0002243602,0,1
-0.0002791382,-0.0001846542,0,1
-0.0003112272,-0.0001558065,0,1
-0.000338292,-0.0001381414,0,1
-0.0003666535,-0.0001361966,0,1
-0.0004060354,-0.0001509446,0,1
-0.0004569239,-0.0001658546,0,1
-0.0005078124,-0.0001559686,0,1
-0.000546708,-9.859748e-05,0,1
-0.0005668041,1.873781e-05,0,1
-0.0005702075,0.0001936063,0,1
-0.0005779866,0.000413529,0,1
-0.0006120203,0.0006503066,0,1
-0.0006740913,0.0008737948,0,1
-0.0007387554,0.00106487,0,1
-0.0007654962,0.001224343,0,1
-0.0007269246,0.001348323,0,1
-0.000623527,0.001423521,0,1
-0.0004812336,0.001438431,0,1
-0.0003365093,0.001399211,0,1
-0.000213988,0.001320934,0,1
-0.0001177212,0.001218346,0,1
-4.171256e-05,0.001112679,0,1
2.327564e-05,0.001038778,0,1
8.486046e-05,0.001032943,0,1
0.0001443384,0.001107979,0,1
0.0001918236,0.001246221,0,1
0.0002156472,0.001403425,0,1
0.0002135403,0.00152854,0,1
0.0001932822,0.001576511,0,1
0.0001642725,0.00153324,0,1
0.0001321835,0.001418497,0,1
0.0001007429,0.001267452,0,1
7.951231e-05,0.001115921,0,1
7.594687e-05,0.0009872407,0,1
9.199134e-05,0.0008835187,0,1
0.0001222976,0.0007898449,0,1
0.0001540623,0.0006969814,0,1
0.0001702689,0.0006086557,0,1
0.0001584381,0.0005362125,0,1
0.0001146805,0.0004752759,0,1
3.753739e-05,0.0004041292,0,1
-6.132246e-05,0.0003012177,0,1
-0.0001580754,0.0001717275,0,1
-0.0002319772,3.964424e-05,0,1
-0.0002728177,-7.412562e-05,0,1
-0.0002838381,-0.0001606685,0,1
-0.0002799486,-0.000224036,0,1
-0.0002716832,-0.0002849726,0,1
-0.0002583939,-0.000370543,0,1
-0.0002394322,-0.0004958195,0,1
-0.0002182017,-0.0006514022,0,1
-0.0002071812,-0.0008084435,0,1
-0.0002136638,-0.0009400405,0,1
-0.0002345703,-0.001031283,0,1
-0.0002509389,-0.001081361,0,1
-0.0002370013,-0.001108588,0,1
-0.0001715269,-0.001141812,0,1
-5.402952e-05,-0.001205341,0,1
9.085688e-05,-0.001304201,0,1
0.0002263435,-0.001416188,0,1
0.0003166139,-0.001507755,0,1
0.0003511338,-0.001561885,0,1
0.0003305515,-0.001580036,0,1
0.000254867,-0.001565289,0,1
0.0001260251,-0.001518938,0,1
-4.349527e-05,-0.001438553,0,1
-0.0002175534,-0.001321866,0,1
-0.0003465574,-0.001173739,0,1
-0.0003916115,-0.001022046,0,1
-0.0003421817,-0.000911355,0,1
-0.0002154466,-0.0008761868,0,1
-5.095028e-05,-0.0009124894,0,1
0.0001023635,-0.0009820154,0,1
0.0002055991,-0.001033876,0,1
0.000242388,-0.001034849,0,1
0.0002273159,-0.0009794224,0,1
0.0001866375,-0.0008700282,0,1
0.000145797,-0.0007084492,0,1
0.0001203528,-0.0004988988,0,1
0.0001185701,-0.0002421874,0,1
0.0001428799,3.818565e-05,0,1
0.0001939304,0.0002785285,0,1
0.0002660495,0.0003984569,0,1
0.000339303,0.000341734,0,1
0.0003785229,0.0001096565,0,1
0.0003569682,-0.000226467,0,1
0.0002778803,-0.0005585388,0,1
0.0001809652,-0.0007927231,0,1
0.0001163011,-0.0008705144,0,1
0.0001201907,-0.0007731132,0,1
0.000192958,-0.0005176983,0,1
0.0003132105,-0.0001396,0,1
0.0004430249,0.000316938,0,1
0.0005444778,0.000797624,0,1
0.0005833735,0.00124849,0,1
0.0005470709,0.00161719,0,1
0.0004485351,0.001872119,0,1
0.0003101313,0.002003879,0,1
0.0001592484,0.002021544,0,1
2.214118e-05,0.001949587,0,1
-8.044617e-05,0.001813938,0,1
-0.0001360346,0.001638907,0,1
-0.0001472171,0.001445562,0,1
-0.0001238797,0.001248166,0,1
-7.850138e-05,0.001055794,0,1
-2.0482e-05,0.0008780085,0,1
4.304761e-05,0.0007266394,0,1
0.0001093323,0.0006140039,0,1
0.0001671896,0.0005527431,0,1
0.0002065715,0.0005404262,0,1
0.0002310434,0.0005563086,0,1
0.0002582704,0.0005749461,0,1
0.000309483,0.0005765668,0,1
0.0003828986,0.0005527431,0,1
0.0004509661,0.0005033132,0,1
0.0004720346,0.0004300596,0,1
0.0004203358,0.0003355756,0,1
0.0002989488,0.0002208333,0,1
0.0001334801,9.393612e-05,0,1
-3.652646e-05,-3.895745e-05,0,1
-0.0001642339,-0.0001760647,0,1
-0.0002120432,-0.0003227338,0,1
-0.0001721751,-0.0004779923,0,1
-6.553616e-05,-0.0006251476,0,1
6.638502e-05,-0.0007366485,0,1
0.0001803169,-0.0007838095,0,1
0.0002462775,-0.0007535033,0,1
0.0002621599,-0.0006620985,0,1
0.0002470879,-0.0005458977,0,1
0.0002315296,-0.0004415277,0,1
0.0002342847,-0.0003805911,0,1
0.0002509774,-0.0003799429,0,1
0.0002696149,-0.0004279142,0,1
0.0002833905,-0.0004838267,0,1
0.0002906835,-0.0005087847,0,1
0.0002801492,-0.0004867439,0,1
0.0002420638,-0.0004279142,0,1
0.0001769136,-0.0003588744,0,1
8.858796e-05,-0.0003071755,0,1
-2.46957e-05,-0.0002872415,0,1
-0.0001606685,-0.0002906449,0,1
-0.0003068514,-0.0002937241,0,1
-0.0004467137,-0.0002763831,0,1
-0.0005578905,-0.0002374874,0,1
-0.0006293613,-0.0001885437,0,1
-0.0006551297,-0.0001504584,0,1
-0.0006395715,-0.0001404103,0,1
-0.0006009999,-0.0001558065,0,1
-0.0005630766,-0.0001890299,0,1
-0.0005436288,-0.0002327876,0,1
-0.0005423322,-0.0002741142,0,1
-0.0005402254,-0.0003147926,0,1
-0.0005164018,-0.0003606571,0,1
-0.0004562756,-0.000410087,0,1
-0.0003515814,-0.0004609755,0,1
-0.0002057227,-0.0005191569,0,1
-3.458168e-05,-0.0005873864,0,1
0.0001404489,-0.000653185,0,1
0.0002979764,-0.0007008321,0,1
0.000425846,-0.0007100698,0,1
0.0005097958,-0.0006488092,0,1
0.0005407503,-0.0004862577,0,1
0.0005227611,-0.000219012,0,1
0.0004662003,0.0001153287,0,1
0.0003828986,0.0004527488,0,1
0.0002773941,0.0007311772,0,1
0.0001647587,0.0009131767,0,1
7.20573e-05,0.0009896717,0,1
1.97102e-05,0.0009770306,0,1
1.306552e-05,0.0009078286,0,1
4.142696e-05,0.0008160995,0,1
8.631905e-05,0.0007201568,0,1
0.0001304008,0.0006250244,0,1
0.0001626518,0.0005404262,0,1
0.0001726999,0.0004801379,0,1
0.0001542244,0.0004475628,0,1
0.0001026876,0.0004243874,0,1
1.371378e-05,0.000383871,0,1
-0.000112373,0.0003125623,0,1
-0.0002721694,0.0002167816,0,1
-0.0004553032,0.000118408,0,1
-0.0006439472,3.478228e-05,0,1
-0.000807471,-3.231277e-05,0,1
-0.0009050344,-8.919769e-05,0,1
-0.0008996862,-0.0001361966,0,1
-0.0007829992,-0.0001724993,0,1
-0.000586252,-0.00019924,0,1
-0.000360495,-0.0002102605,0,1
-0.0001587237,-0.0002052365,0,1
-1.610624e-05,-0.0001838438,0,1
5.179914e-05,-0.0001366828,0,1
5.228533e-05,-5.127441e-05,0,1
3.827799e-06,7.708133e-05,0,1
-7.671866e-05,0.0002446569,0,1
-0.0001702304,0.000438325,0,1
-0.0002535319,0.0006491721,0,1
-0.0003086341,0.0008830326,0,1
-0.0003253268,0.001153358,0,1
-0.0002953447,0.001446859,0,1
-0.0002169052,0.001708595,0,1
-0.0001034594,0.001855913,0,1
1.954813e-05,0.001817665,0,1
0.0001331559,0.001563546,0,1
0.0002326641,0.001117379,0,1
0.0003175863,0.0005585775,0,1
0.0003879227,-8.002969e-06,0,1
0.0004449697,-0.0004807475,0,1
0.0004871067,-0.000804716,0,1
0.0005013684,-0.0009891463,0,1
0.0004671726,-0.001083144,0,1
0.0003780367,-0.001140191,0,1
0.0002360674,-0.001191242,0,1
4.483033e-05,-0.00124051,0,1
-0.0001846542,-0.001266116,0,1
-0.000415111,-0.001234351,0,1
-0.0005851175,-0.001108913,0,1
-0.0006373025,-0.0008675972,0,1
-0.0005497872,-0.000509433,0,1
-0.0003583881,-5.143648e-05,0,1
-0.0001339277,0.0004521006,0,1
5.504044e-05,0.0009097734,0,1
0.0001709172,0.001221749,0,1
0.0001999268,0.001299703,0,1
0.0001517934,0.001117217,0,1
4.82337e-05,0.000743008,0,1
-9.405965e-05,0.0003060797,0,1
-0.0002677937,-7.153257e-05,0,1
-0.0004574101,-0.000320789,0,1
-0.0006337371,-0.0004387725,0,1
-0.0007653341,-0.0004619479,0,1
-0.0008317808,-0.0004371519,0,1
-0.0008330774,-0.0004084663,0,1
-0.0007880232,-0.000405063,0,1
-0.000725304,-0.0004365036,0,1
-0.0006596675,-0.0004998712,0,1
-0.0005917621,-0.0005898174,0,1
-0.0005057055,-0.0006977529,0,1
-0.0003734602,-0.0008113607,0,1
-0.000176875,-0.0009170272,0,1
7.140904e-05,-0.00100276,0,1
0.0003310377,-0.001055107,0,1
0.0005543638,-0.001057052,0,1
0.0007060571,-0.0009922255,0,1
0.0007802831,-0.0008646801,0,1
0.0007981102,-0.0007029389,0,1
0.0007838485,-0.0005447632,0,1
0.0007452769,-0.0004180282,0,1
0.0006828817,-0.0003301888,0,1
0.0005947181,-0.0002679557,0,1
0.0004820827,-0.0002113949,0,1
0.0003488649,-0.0001549962,0,1
0.0002119197,-0.0001157764,0,1
9.944634e-05,-0.0001131834,0,1
4.288554e-05,-0.0001430034,0,1
5.649903e-05,-0.0001757406,0,1
0.0001276457,-0.0001737958,0,1
0.0002125679,-0.000112373,0,1
0.0002762596,1.160693e-05,0,1
0.0003122381,0.0001741585,0,1
0.0003362238,0.0003402755,0,1
0.0003647473,0.0004812723,0,1
0.0003947294,0.0005825632,0,1
0.0004072085,0.0006433378,0,1
0.0003832228,0.0006569512,0,1
0.0003218,0.0006195141,0,1
0.0002407673,0.0005379952,0,1
0.000170593,0.0004324906,0,1
0.0001313732,0.0003329825,0,1
0.0001261871,0.0002608634,0,1
0.0001522796,0.0002247229,0,1
0.0001963614,0.0002193747,0,1
0.0002265056,0.0002265056,0,1
0.0002111094,0.0002286124,0,1
0.0001479039,0.000220185,0,1
7.221937e-05,0.0002065715,0,1
2.295151e-05,0.0002033302,0,1
2.165498e-05,0.0002205092,0,1
5.860588e-05,0.0002538946,0,1
0.0001020394,0.0002910076,0,1
0.0001221355,0.0003177483,0,1
0.0001094944,0.0003237448,0,1
7.594687e-05,0.0003030004,0,1
3.883391e-05,0.0002509774,0,1
7.555301e-06,0.0001723757,0,1
-1.902341e-05,8.080883e-05,0,1
-5.338126e-05,-8.813297e-06,0,1
-0.0001117248,-8.644259e-05,0,1
-0.0001985918,-0.0001491618,0,1
-0.0003044204,-0.0002018331,0,1
-0.0004060354,-0.0002519113,0,1
-0.0004778303,-0.0002968033,0,1
-0.0005001953,-0.0003246786,0,1
-0.0004713477,-0.0003238683,0,1
-0.0004060354,-0.0002938862,0,1
-0.0003275957,-0.0002423494,0,1
-0.0002575835,-0.0001799543,0,1
-0.0002031296,-0.0001149661,0,1
-0.0001622891,-5.257093e-05,0,1
-0.0001295519,8.527692e-06,0,1
-0.000104756,6.687121e-05,0,1
-9.081835e-05,0.0001156529,0,1
-8.547019e-05,0.0001448246,0,1
-8.02841e-05,0.0001501728,0,1
-6.278104e-05,0.000125863,0,1
-2.42095e-05,7.286763e-05,0,1
3.105477e-05,-5.57199e-06,0,1
7.789165e-05,-0.0001008664,0,1
9.555677e-05,-0.0001994021,0,1
8.486046e-05,-0.0002758969,0,1
6.006447e-05,-0.0003076617,0,1
3.575467e-05,-0.0002869174,0,1
1.857574e-05,-0.000226467,0,1
1.355172e-05,-0.0001473791,0,1
2.570662e-05,-6.861539e-05,0,1
6.233338e-05,-2.330684e-06,0,1
0.0001156529,4.645098e-05,0,1
0.0001624898,7.57848e-05,0,1
0.0001872858,8.502253e-05,0,1
0.0001798307,7.886404e-05,0,1
0.0001370455,6.200925e-05,0,1
6.573675e-05,3.672706e-05,0,1
-1.869928e-05,3.341602e-06,0,1
-0.0001029732,-3.539201e-05,0,1
-0.0001763888,-7.380149e-05,0,1
-0.0002348944,-0.0001092938,0,1
-0.0002799486,-0.0001386276,0,1
-0.0003168994,-0.000149486,0,1
-0.0003400748,-0.000119828,0,1
-0.0003327818,-3.166451e-05,0,1
-0.0002755728,0.0001104668,0,1
-0.0001686097,0.0002736666,0,1
-3.134038e-05,0.0004162841,0,1
0.0001004187,0.0005133613,0,1
0.0001991165,0.0005627912,0,1
0.0002600531,0.0005833735,0,1
0.0002991108,0.0006008766,0,1
0.000336548,0.0006353966,0,1
0.0003743092,0.0006833679,0,1
0.0004016982,0.0007159431,0,1
0.0004052637,0.0007015193,0,1
0.0003806297,0.000626645,0,1
0.0003323342,0.0005033132,0,1
0.0002738286,0.0003621543,0,1
0.0002193747,0.0002286124,0,1
0.0001809652,0.0001143563,0,1
0.0001660552,1.760335e-05,0,1
0.0001762653,-7.201877e-05,0,1
0.0002122438,-0.0001558065,0,1
0.0002735045,-0.0002243602,0,1
0.0003474063,-0.0002752487,0,1
0.0004070464,-0.0003123616,0,1
0.0004289252,-0.0003434782,0,1
0.0004070464,-0.0003758912,0,1
0.0003444891,-0.0004089525,0,1
0.000250005,-0.0004269418,0,1
0.0001373696,-0.0003958252,0,1
2.262738e-05,-0.0002715212,0,1
-7.396356e-05,-4.349527e-05,0,1
-0.0001358725,0.0002590807,0,1
-0.0001541859,0.0005791598,0,1
-0.0001214487,0.000854509,0,1
-3.830919e-05,0.00101463,0,1
7.659513e-05,0.001001989,0,1
0.0001947408,0.0007943827,0,1
0.0002842008,0.0004290873,0,1
0.0003222862,-2.492749e-06,0,1
0.0003005694,-0.0003891806,0,1
0.0002290986,-0.0006548056,0,1
0.0001279698,-0.0007781372,0,1
1.063454e-05,-0.0007864026,0,1
-0.0001144799,-0.0007235213,0,1
-0.000248832,-0.0006283889,0,1
-0.0003904771,-0.000539253,0,1
-0.0005324463,-0.0004901472,0,1
-0.0006590193,-0.0005003574,0,1
-0.0007585274,-0.0005672903,0,1
-0.0008265948,-0.0006700397,0,1
-0.0008596561,-0.0007779752,0,1
-0.0008549562,-0.0008616009,0,1
-0.000809902,-0.0008956346,0,1
-0.0007165525,-0.0008567389,0,1
-0.0005703696,-0.0007146077,0,1
-0.0003865875,-0.0004402311,0,1
-0.0001969711,-3.458168e-05,0,1
-3.717473e-05,0.0004334631,0,1
7.238143e-05,0.0008483506,0,1
0.0001300767,0.001102631,0,1
0.0001422316,0.0011378,0,1
0.0001315353,0.0009720065,0,1
0.000130725,0.0006862851,0,1
0.0001553589,0.0003780367,0,1
0.0001965235,0.0001166253,0,1
0.0002255332,-7.947377e-05,0,1
0.0002008992,-0.000221605,0,1
9.944634e-05,-0.0003318095,0,1
-6.06742e-05,-0.0004147869,0,1
-0.0002220912,-0.0004544929,0,1
-0.0003254889,-0.0004206212,0,1
-0.0003389403,-0.0002870794,0,1
-0.0002699005,-4.706071e-05,0,1
-0.00015451,0.0002676702,0,1
-2.437157e-05,0.0005848321,0,1
9.831188e-05,0.000814803,0,1
0.0002111094,0.0008947013,0,1
0.0003136967,0.0008199891,0,1
0.0004052637,0.0006412309,0,1
0.0004799758,0.0004313562,0,1
0.0005229231,0.0002542187,0,1
0.0005183853,0.0001443384,0,1
0.000458097,0.0001012291,0,1
0.0003425444,0.0001017153,0,1
0.0001827479,0.0001164632,0,1
5.448452e-06,0.0001239182,0,1
-0.0001540238,0.0001120874,0,1
-0.0002588801,7.546067e-05,0,1
-0.0002956689,1.565857e-05,0,1
-0.0002758969,-5.710876e-05,0,1
-0.0002261429,-0.0001175591,0,1
-0.0001729855,-0.0001434896,0,1
-0.0001407345,-0.0001314967,0,1
-0.0001412206,-9.875954e-05,0,1
-0.0001708786,-6.974985e-05,0,1
-0.0002191741,-5.759496e-05,0,1
-0.0002775176,-6.245691e-05,0,1
-0.0003321336,-7.801519e-05,0,1
-0.0003671397,-9.584238e-05,0,1
-0.000365519,-0.0001081593,0,1
-0.0003230579,-0.0001144799,0,1
-0.0002489941,-0.0001170729,0,1
-0.0001629374,-0.0001219349,0,1
-8.579432e-05,-0.0001332795,0,1
-3.782299e-05,-0.0001525652,0,1
-3.409549e-05,-0.0001778474,0,1
-7.088431e-05,-0.0002036158,0,1
-0.0001285796,-0.0002201465,0,1
-0.0001921092,-0.0002149604,0,1
-0.0002514251,-0.0001788198,0,1
-0.000301017,-0.0001065387,0,1
-0.0003345645,-3.951337e-06,0,1
-0.000338292,0.0001116012,0,1
-0.0002985861,0.0002268297,0,1
-0.0002136638,0.0003350894,0,1
-9.973194e-05,0.0004302217,0,1
2.181705e-05,0.0005026649,0,1
0.0001276457,0.0005316747,0,1
0.0001936063,0.0005026649,0,1
0.0002073819,0.0004154738,0,1
0.0001769136,0.0002764217,0,1
0.0001240803,9.620504e-05,0,1
7.772959e-05,-0.0001002181,0,1
5.714729e-05,-0.0002828657,0,1
7.351589e-05,-0.0004240246,0,1
0.0001338042,-0.0005076503,0,1
0.0002346088,-0.0005319601,0,1
0.0003532407,-0.0005011677,0,1
0.0004501558,-0.000424997,0,1
0.0004867825,-0.0003164132,0,1
0.0004485351,-0.0001995642,0,1
0.000354051,-0.0001007043,0,1
0.0002478982,-3.360929e-05,0,1
0.0001761032,1.002961e-07,0,1
0.0001675138,8.851824e-06,0,1
0.00022764,2.855407e-06,0,1
0.0003456236,-6.382317e-06,0,1
0.000495372,-1.059602e-05,0,1
0.0006504686,-9.299493e-06,0,1
0.0007867657,-1.286493e-05,0,1
0.00088676,-3.360929e-05,0,1
0.0009425106,-8.773911e-05,0,1
0.0009502898,-0.0001840059,0,1
0.0009071803,-0.0003165753,0,1
0.0008088066,-0.0004681064,0,1
0.0006616511,-0.0006188271,0,1
0.0004937514,-0.0007445897,0,1
0.0003456236,-0.0008324291,0,1
0.0002478982,-0.0008786177,0,1
0.0001992786,-0.0008821832,0,1
0.0001694586,-0.0008437737,0,1
0.0001281319,-0.0007727891,0,1
5.909208e-05,-0.0006833291,0,1
-3.247483e-05,-0.000591276,0,1
-0.0001253383,-0.0005110537,0,1
-0.0001948643,-0.0004488206,0,1
-0.0002254946,-0.0004084663,0,1
-0.0002126914,-0.0003958252,0,1
-0.0001684476,-0.0004092767,0,1
-0.0001136696,-0.0004309934,0,1
-7.088431e-05,-0.0004280762,0,1
-5.678463e-05,-0.0003765395,0,1
-7.752899e-05,-0.0002695764,0,1
-0.000132145,-0.0001259865,0,1
-0.0002138259,2.295151e-05,0,1
-0.0003029619,0.0001511452,0,1
-0.0003752429,0.0002496809,0,1
-0.0004136524,0.0003315239,0,1
-0.0004108973,0.0004157979,0,1
-0.0003702189,0.0005130371,0,1
-0.0003057169,0.0006078454,0,1
-0.000238946,0.0006715371,0,1
-0.0001929195,0.0006827196,0,1
-0.0001822232,0.0006456067,0,1
-0.0002055606,0.0005877494,0,1
-0.0002489941,0.000542371,0,1
-0.0002898345,0.0005392918,0,1
-0.00030831,0.0005958526,0,1
-0.0002899966,0.0007050846,0,1
-0.0002310048,0.0008311716,0,1
-0.0001441378,0.0009292212,0,1
-5.111234e-05,0.0009643894,0,1
2.295151e-05,0.0009305178,0,1
6.03886e-05,0.0008464058,0,1
5.212327e-05,0.0007417115,0,1
1.072688e-06,0.0006412309,0,1
-8.255302e-05,0.0005566327,0,1
-0.0001849783,0.0004893756,0,1
-0.0002849726,0.0004378388,0,1
-0.0003621157,0.0004021844,0,1
-0.0004081422,0.0003827366,0,1
-0.0004262935,0.0003660439,0,1
-0.0004303451,0.0003125623,0,1
-0.0004267797,0.0001876099,0,1
-0.0004204592,-1.043395e-05,0,1
-0.0004170558,-0.000241377,0,1
-0.0004217557,-0.0004502792,0,1
-0.0004355313,-0.0005956517,0,1
-0.0004580583,-0.0006700397,0,1
-0.0004907955,-0.0006920806,0,1
-0.0005272602,-0.000690622,0,1
-0.0005509217,-0.0006859221,0,1
-0.0005423322,-0.0006804119,0,1
-0.0004990608,-0.0006664743,0,1
-0.000432452,-0.0006444334,0,1
-0.0003648708,-0.0006280648,0,1
-0.0003199787,-0.0006303337,0,1
-0.0002974516,-0.0006411921,0,1
-0.000276221,-0.000631144,0,1
-0.0002340841,-0.0005598353,0,1
-0.0001720131,-0.0004024699,0,1
-0.0001117248,-0.0001546721,0,1
-8.206682e-05,0.0001684862,0,1
-9.778715e-05,0.0005379952,0,1
-0.0001535376,0.0009143112,0,1
-0.0002266291,0.001271017,0,1
-0.0002958309,0.00159758,0,1
-0.0003444506,0.001890919,0,1
-0.0003583881,0.002131587,0,1
-0.0003201407,0.002264643,0,1
-0.0002217671,0.002222668,0,1
-7.817725e-05,0.00196709,0,1
7.416415e-05,0.001513954,0,1
0.0001861513,0.0009451036,0,1
0.0002266676,0.0003773884,0,1
0.0002068957,-9.341139e-05,0,1
0.0001718896,-0.00042759,0,1
0.0001707551,-0.0006317923,0,1
0.0002297469,-0.0007197938,0,1
0.0003412479,-0.0006937013,0,1
0.0004757621,-0.0005668041,0,1
0.0006055765,-0.0003836704,0,1
0.0007162672,-0.0002136638,0,1
0.0008008654,-0.0001183694,0,1
0.0008553194,-0.0001292278,0,1
0.0008775223,-0.0002523975,0,1
0.0008681226,-0.000467296,0,1
0.0008298751,-0.0007251419,0,1
0.0007720177,-0.0009567332,0,1
0.0007044364,-0.001100647,0,1
0.0006282657,-0.001123012,0,1
0.0005315126,-0.001022856,0,1
0.0004054258,-0.0008293499,0,1
0.0002530843,-0.0005922483,0,1
9.490851e-05,-0.0003715154,0,1
-3.992984e-05,-0.0002149604,0,1
-0.0001250141,-0.0001404103,0,1
-0.0001404103,-0.0001324691,0,1
-8.368748e-05,-0.0001532135,0,1
1.938607e-05,-0.0001632615,0,1
0.000128294,-0.0001462447,0,1
0.0002012234,-0.0001159385,0,1
0.0002112714,-8.919769e-05,0,1
0.0001589243,-6.991193e-05,0,1
7.562274e-05,-4.511593e-05,0,1
2.369211e-06,2.531276e-06,0,1
-3.571614e-05,7.124698e-05,0,1
-3.863332e-05,0.0001446626,0,1
-1.902341e-05,0.000202682,0,1
8.041497e-06,0.0002255332,0,1
3.283749e-05,0.0001976579,0,1
5.341979e-05,0.0001117633,0,1
7.367795e-05,-2.258885e-05,0,1
9.134307e-05,-0.0001710407,0,1
0.000101067,-0.0002932379,0,1
9.037068e-05,-0.0003614674,0,1
5.423012e-05,-0.0003716775,0,1
-3.951337e-06,-0.0003272716,0,1
-6.602235e-05,-0.0002225774,0,1
-0.0001060525,-4.074016e-05,0,1
-0.0001149661,0.0002362295,0,1
-0.0001016767,0.0005966629,0,1
-8.433573e-05,0.0009689272,0,1
-6.537409e-05,0.00124217,0,1
-3.68506e-05,0.001320285,0,1
7.879432e-06,0.001176371,0,1
6.265751e-05,0.0008630985,0,1
0.0001088461,0.0004749518,0,1
0.0001235941,0.0001065772,0,1
9.069481e-05,-0.0001848162,0,1
1.1769e-05,-0.0003805911,0,1
-0.0001036215,-0.0004963057,0,1
-0.0002382978,-0.0005659938,0,1
-0.0003711913,-0.0006163961,0,1
-0.0004788027,-0.0006494574,0,1
-0.0005335807,-0.0006565883,0,1
-0.0005214258,-0.0006282268,0,1
-0.0004520619,-0.0005697213,0,1
-0.0003488263,-0.0004954954,0,1
-0.0002418632,-0.0004262935,0,1
-0.0001489998,-0.000380267,0,1
-7.720486e-05,-0.0003702189,0,1
-2.745081e-05,-0.0003912874,0,1
-1.844488e-06,-0.0004280762,0,1
-1.520357e-06,-0.0004588687,0,1
-1.367526e-05,-0.0004650271,0,1
-1.529591e-05,-0.0004434724,0,1
-1.034161e-06,-0.0004105732,0,1
1.419998e-05,-0.000387884,0,1
5.124321e-06,-0.0003911253,0,1
-4.544006e-05,-0.0004207833,0,1
-0.0001360346,-0.0004614617,0,1
-0.0002478596,-0.000489499,0,1
-0.0003493125,-0.0004763717,0,1
-0.0004081422,-0.0004108973,0,1
-0.0004013355,-0.0003019894,0,1
-0.0003261372,-0.0001715269,0,1
-0.0001985918,-3.944364e-05,0,1
-4.398147e-05,7.789165e-05,0,1
0.0001056048,0.0001660552,0,1
0.0002269918,0.0002227781,0,1
0.0003156415,0.0002491947,0,1
0.0003760919,0.000252274,0,1
0.0004180668,0.0002357433,0,1
0.0004417284,0.0002044647,0,1
0.0004323286,0.0001696206,0,1
0.0003683128,0.000145797,0,1
0.00024255,0.0001441764,0,1
7.57848e-05,0.0001639484,0,1
-7.736692e-05,0.0001889064,0,1
-0.0001579134,0.0002000889,0,1
-0.0001413827,0.0001824238,0,1
-4.155049e-05,0.0001334801,0,1
9.53947e-05,6.200925e-05,0,1
0.0002149989,-1.399939e-05,0,1
0.0002914938,-6.699475e-05,0,1
0.0003264999,-8.206682e-05,0,1
0.0003313618,-6.634648e-05,0,1
0.0003148312,-4.122636e-05,0,1
0.000282256,-2.0482e-05,0,1
0.0002438466,-2.81688e-06,0,1
0.0002138645,2.181705e-05,0,1
0.0001979821,5.828175e-05,0,1
0.0001890685,0.0001062531,0,1
0.0001694586,0.0001564933,0,1
0.0001362352,0.0001992786,0,1
0.0001012291,0.0002263435,0,1
7.221937e-05,0.0002339606,0,1
4.661304e-05,0.0002224539,0,1
2.01964e-05,0.0001989545,0,1
-6.058186e-06,0.000168162,0,1
-1.62683e-05,0.0001349386,0,1
1.857574e-05,0.0001070634,0,1
0.0001141943,9.53947e-05,0,1
0.0002605393,0.0001091703,0,1
0.0004266563,0.000140773,0,1
0.00058937,0.0001751309,0,1
0.0007345806,0.0001970097,0,1
0.0008572642,0.0001932822,0,1
0.000943645,0.000155521,0,1
0.0009786512,8.988449e-05,0,1
0.0009545035,1.711715e-05,0,1
0.0008684467,-4.884343e-05,0,1
0.0007245325,-0.0001013526,0,1
0.0005371849,-0.0001340898,0,1
0.000321638,-0.0001339277,0,1
0.000101067,-8.741498e-05,0,1
-9.649064e-05,1.257933e-05,0,1
-0.0002494803,0.0001540623,0,1
-0.0003541745,0.0003060797,0,1
-0.0004230522,0.0004405939,0,1
-0.000467296,0.0005551741,0,1
-0.0005006815,0.0006673234,0,1
-0.0005279084,0.0007916276,0,1
-0.0005415219,0.0009204697,0,1
-0.0005319601,0.001021112,0,1
-0.0005013297,0.001049474,0,1
-0.0004682684,0.0009796236,0,1
-0.0004600031,0.0008254994,0,1
-0.0004906334,0.0006321552,0,1
-0.0005505976,0.0004478869,0,1
-0.0006113721,0.0003007315,0,1
-0.000648485,0.0001965235,0,1
-0.0006656639,0.0001250527,0,1
-0.000688191,7.254349e-05,0,1
-0.0007457242,2.829966e-05,0,1
-0.0008505805,-1.432352e-05,0,1
-0.0009888222,-6.683268e-05,0,1
-0.001133871,-0.0001376552,0,1
-0.001263199,-0.0002285739,0,1
-0.001358169,-0.0003300267,0,1
-0.001399496,-0.0004279142,0,1
-0.001372593,-0.0005024642,0,1
-0.001269843,-0.000544277,0,1
-0.001091409,-0.0005604835,0,1
-0.0008596561,-0.0005646973,0,1
-0.0006115342,-0.0005685869,0,1
-0.000377836,-0.0005679386,0,1
-0.0001760647,-0.0005484907,0,1
-1.788895e-05,-0.0004993849,0,1
9.020862e-05,-0.000430021,0,1
0.0001586002,-0.0003692465,0,1
0.0002075439,-0.0003438023,0,1
0.0002456293,-0.0003600088,0,1
0.0002701012,-0.000400039,0,1
0.0002783665,-0.0004365036,0,1
0.0002723701,-0.0004543308,0,1
0.0002603772,-0.0004514136,0,1
0.0002547049,-0.0004314796,0,1
0.0002670219,-0.00039777,0,1
0.0003015418,-0.0003374817,0,1
0.0003618301,-0.0002298704,0,1
0.0004381629,-6.748094e-05,0,1
0.0005089855,0.0001321835,0,1
0.0005611706,0.0003388169,0,1
0.0005999042,0.0005117406,0,1
0.0006318311,0.0006125454,0,1
0.0006530617,0.0006193521,0,1
0.0006584098,0.0005381573,0,1
0.000643986,0.0004028327,0,1
0.0006149763,0.0002608634,0,1
0.0005854804,0.0001514693,0,1
0.0005814288,9.296373e-05,0,1
0.0006250244,8.226741e-05,0,1
0.0007188602,0.0001015532,0,1
0.0008300372,0.0001266733,0,1
0.000913663,0.0001389903,0,1
0.0009431589,0.0001269974,0,1
0.0009250075,7.384002e-05,0,1
0.0008773603,-2.453363e-05,0,1
0.0008131823,-0.0001428413,0,1
0.0007383081,-0.000246239,0,1
0.0006559788,-0.0003068514,0,1
0.0005734875,-0.0003143064,0,1
0.0005044477,-0.0002754107,0,1
0.0004495075,-0.0002144742,0,1
0.0003958639,-0.0001574272,0,1
0.0003305515,-0.0001248521,0,1
0.0002483844,-0.0001149661,0,1
0.0001569795,-0.0001167488,0,1
7.140904e-05,-0.000127283,0,1
4.151929e-06,-0.0001538618,0,1
-4.722278e-05,-0.0002034537,0,1
-9.713889e-05,-0.0002655248,0,1
-0.0001559686,-0.0003055549,0,1
-0.0002169052,-0.0002799486,0,1
-0.0002588801,-0.0001603444,0,1
-0.0002603387,4.677511e-05,0,1
-0.0002219292,0.0003008936,0,1
-0.0001674752,0.0005543638,0,1
-0.0001290658,0.0007763935,0,1
-0.000122259,0.0009590413,0,1
-0.0001462447,0.001091449,0,1
-0.0001955125,0.001146875,0,1
-0.0002603387,0.001089342,0,1
-0.0003284061,0.0009079906,0,1
-0.0003958252,0.0006306967,0,1
-0.000464703,0.0003041349,0,1
-0.0005428185,-2.631635e-05,0,1
-0.0006353577,-0.000318358,0,1
-0.0007372968,-0.0005379565,0,1
-0.000834698,-0.0006676087,0,1
-0.0009030896,-0.0007191455,0,1
-0.0009183238,-0.0007188214,0,1
-0.0008664628,-0.0007019666,0,1
-0.000750262,-0.0006953219,0,1
-0.0005937069,-0.000708125,0,1
-0.0004277521,-0.0007407002,0,1
-0.0002695764,-0.0007864026,0,1
-0.0001242038,-0.0008249741,0,1
6.582909e-06,-0.0008150881,0,1
0.0001192183,-0.0007087733,0,1
0.0002031682,-0.0004603272,0,1
0.0002394708,-5.240886e-05,0,1
0.000217592,0.0004535592,0,1
0.0001480659,0.0009264661,0,1
5.1475e-05,0.001242332,0,1
-5.192267e-05,0.001348485,0,1
-0.0001457585,0.001285117,0,1
-0.0002256567,0.001129372,0,1
-0.0002882139,0.0009316522,0,1
-0.0003241924,0.0007062191,0,1
-0.0003154408,0.000458259,0,1
-0.0002517492,0.0002041406,0,1
-0.0001379794,-2.42095e-05,0,1
-7.100305e-07,-0.000191623,0,1
0.0001273216,-0.0002780038,0,1
0.0002182402,-0.0002776796,0,1
0.000252274,-0.0002031296,0,1
0.000232502,-8.595638e-05,0,1
0.0001820997,3.964424e-05,0,1
0.0001266733,0.0001399627,0,1
8.74535e-05,0.0001974959,0,1
6.525056e-05,0.0002096508,0,1
3.93201e-05,0.0001816135,0,1
-1.756482e-05,0.0001271595,0,1
-0.0001076731,6.444023e-05,0,1
-0.000199078,1.679302e-05,0,1
-0.0002530457,3.665733e-06,0,1
-0.0002507768,3.575467e-05,0,1
-0.0001976194,0.0001198666,0,1
-0.0001162626,0.000252274,0,1
-3.328516e-05,0.0004104497,0,1
3.769945e-05,0.0005519328,0,1
8.356394e-05,0.0006263209,0,1
9.037068e-05,0.0005934216,0,1
5.212327e-05,0.0004423766,0,1
-1.221667e-05,0.0002085163,0,1
-6.974985e-05,-4.106429e-05,0,1
-8.952183e-05,-0.0002451045,0,1
-5.727083e-05,-0.0003823738,0,1
1.727922e-05,-0.0004781544,0,1
0.0001075496,-0.000578959,0,1
0.0001735102,-0.000722873,0,1
0.0001770756,-0.0009244822,0,1
9.993253e-05,-0.00116288,0,1
-4.090223e-05,-0.001386693,0,1
-0.0001948643,-0.001533686,0,1
-0.0003097686,-0.001570961,0,1
-0.0003485022,-0.001517803,0,1
-0.0002927517,-0.001432881,0,1
-0.0001477033,-0.001363193,0,1
4.077869e-05,-0.001326404,0,1
0.0002057612,-0.001309711,0,1
0.0002989488,-0.001280053,0,1
0.000311914,-0.001207448,0,1
0.0002681563,-0.001084927,0,1
0.0002005751,-0.0009275614,0,1
0.0001367214,-0.0007560964,0,1
8.74535e-05,-0.0005894933,0,1
5.082674e-05,-0.0004420138,0,1
2.424803e-05,-0.0003238683,0,1
1.12828e-05,-0.0002394322,0,1
1.063454e-05,-0.0001788198,0,1
1.484824e-05,-0.000119666,0,1
1.987227e-05,-4.527799e-05,0,1
2.732727e-05,4.434413e-05,0,1
4.288554e-05,0.0001425557,0,1
7.238143e-05,0.0002516257,0,1
0.0001156529,0.0003828986,0,1
0.0001663793,0.0005428572,0,1
0.0002218057,0.000715619,0,1
0.0002749631,0.0008616399,0,1
0.0003183966,0.0009345694,0,1
0.0003401134,0.0009083148,0,1
0.0003271482,0.0007921138,0,1
0.0002730183,0.0006355586,0,1
0.0001850168,0.0005049339,0,1
8.323981e-05,0.0004491834,0,1
-1.075808e-05,0.0004812723,0,1
-8.514606e-05,0.0005767288,0,1
-0.0001344139,0.0006913091,0,1
-0.0001642339,0.0007838485,0,1
-0.0001854645,0.0008310095,0,1
-0.0002003745,0.0008284165,0,1
-0.0002031296,0.0007880622,0,1
-0.0001869231,0.000725829,0,1
-0.0001515928,0.000656465,0,1
-0.0001031353,0.0005906665,0,1
-5.192267e-05,0.0005379952,0,1
-3.627206e-06,0.0005034753,0,1
3.996837e-05,0.000487917,0,1
7.837785e-05,0.0004859722,0,1
0.0001112771,0.0004866205,0,1
0.0001370455,0.0004770586,0,1
0.0001488763,0.0004475628,0,1
0.0001490383,0.000391164,0,1
0.0001472556,0.0003086727,0,1
0.0001563313,0.0002072198,0,1
0.0001833962,9.960841e-05,0,1
0.0002247229,-6.382317e-06,0,1
0.0002803113,-0.0001081593,0,1
0.0003482167,-0.000208964,0,1
0.0004243874,-0.0003138202,0,1
0.0004986133,-0.000422566,0,1
0.0005590637,-0.0005339049,0,1
0.0005986077,-0.0006502678,0,1
0.0006174073,-0.0007745718,0,1
0.0006238899,-0.0009014689,0,1
0.0006234037,-0.001008594,0,1
0.0006178935,-0.001069531,0,1
0.0006036317,-0.001059807,0,1
0.000572029,-0.0009690502,0,1
0.0005190336,-0.0008087676,0,1
0.000448211,-0.0006050515,0,1
0.0003675024,-0.0003775118,0,1
0.0002814457,-0.0001342519,0,1
0.0001937684,0.0001200286,0,1
9.814982e-05,0.0003743092,0,1
-2.550602e-05,0.000609466,0,1
-0.0002028055,0.0008019998,0,1
-0.0004387725,0.0009361901,0,1
-0.0007024527,0.001014792,0,1
-0.0009332337,0.001053688,0,1
-0.0010624,0.001076863,0,1
-0.001056565,0.001103928,0,1
-0.0009358267,0.001143796,0,1
-0.0007569068,0.001198736,0,1
-0.0005805797,0.001274583,0,1
-0.0004518998,0.001375712,0,1
-0.0003882082,0.001489482,0,1
-0.0003856151,0.001584777,0,1
-0.000422566,0.001625617,0,1
-0.0004794509,0.00158818,0,1
-0.0005421702,0.001479434,0,1
-0.0005997034,0.001327254,0,1
-0.0006395715,0.001160651,0,1
-0.000653185,0.0009980991,0,1
-0.0006390853,0.0008418679,0,1
-0.0005967862,0.0006866092,0,1
-0.0005303394,0.0005271368,0,1
-0.0004493068,0.000368799,0,1
-0.0003642225,0.0002287745,0,1
-0.0002822175,0.0001193804,0,1
-0.0002096122,3.93201e-05,0,1
-0.0001536997,-2.194059e-05,0,1
-0.0001243659,-7.914964e-05,0,1
-0.0001227452,-0.0001392759,0,1
-0.0001358725,-0.0002026434,0,1
-0.000151917,-0.0002653627,0,1
-0.0001567789,-0.0003318095,0,1
-0.0001404103,-0.0004180282,0,1
-9.811128e-05,-0.0005353634,0,1
-2.453363e-05,-0.0006766844,0,1
7.610894e-05,-0.0008225431,0,1
0.0001991165,-0.0009528436,0,1
0.0003299033,-0.001053162,0,1
0.0004462662,-0.001124633,0,1
0.0005334574,-0.00118087,0,1
0.0005858046,-0.00123743,0,1
0.0006024973,-0.001301608,0,1
0.0005905044,-0.001370162,0,1
0.0005488536,-0.001432071,0,1
0.0004770586,-0.001473722,0,1
0.000381278,-0.001486039,0,1
0.0002704253,-0.001470642,0,1
0.0001514693,-0.001431909,0,1
3.283749e-05,-0.001380534,0,1
-7.444975e-05,-0.001322028,0,1
-0.000147055,-0.001247154,0,1
-0.0001561307,-0.001140191,0,1
-9.179074e-05,-0.001001301,0,1
3.040651e-05,-0.0008449082,0,1
0.0001820997,-0.0006919185,0,1
0.000329255,-0.000561456,0,1
0.0004410801,-0.0004640547,0,1
0.000505258,-0.0003945287,0,1
0.0005281092,-0.000335537,0,1
0.0005292437,-0.000273628,0,1
0.0005276231,-0.0002021572,0,1
0.0005302161,-0.0001232314,0,1
0.0005263265,-3.458168e-05,0,1
0.0004976409,5.925414e-05,0,1
0.00043087,0.0001385041,0,1
0.0003307136,0.0001843686,0,1
0.0002196988,0.0001949028,0,1
0.0001302388,0.000185341,0,1
9.199134e-05,0.0001735102,0,1
0.0001146805,0.0001662173,0,1
0.0001833962,0.0001610312,0,1
0.0002645909,0.0001524417,0,1
0.0003263378,0.0001472556,0,1
0.0003537269,0.0001665414,0,1
0.000353889,0.0002263435,0,1
0.000341734,0.0003248792,0,1
0.0003277964,0.0004305459,0,1
0.0003101313,0.00050542,0,1
0.0002809595,0.0005506363,0,1
0.0002339606,0.0006033076,0,1
0.0001715654,0.0006992503,0,1
0.0001004187,0.000851916,0,1
2.39239e-05,0.00105855,0,1
-6.06742e-05,0.001297758,0,1
-0.0001481895,0.001520112,0,1
-0.0002147983,0.001663703,0,1
-0.0002345703,0.001670509,0,1
-0.0001994021,0.001516547,0,1
-0.0001269589,0.001231635,0,1
-4.722278e-05,0.0008833567,0,1
2.214118e-05,0.000539778,0,1
7.659513e-05,0.0002467637,0,1
0.0001127357,1.97102e-05,0,1
0.0001213252,-0.0001433275,0,1
8.242948e-05,-0.0002549905,0,1
-3.344723e-05,-0.0003308371,0,1
-0.0002504527,-0.0003726499,0,1
-0.0005454115,-0.0003864254,0,1
-0.000844584,-0.0003867496,0,1
-0.00105851,-0.000387722,0,1
-0.001139705,-0.0004003631,0,1
-0.00109384,-0.0004272659,0,1
-0.0009624055,-0.0004640547,0,1
-0.0007836475,-0.0005023021,0,1
-0.0005851175,-0.000541846,0,1
-0.0003946908,-0.0005911139,0,1
-0.000243808,-0.0006518884,0,1
-0.000152079,-0.0007142835,0,1
-0.0001159385,-0.0007410243,0,1
-0.0001071869,-0.0006836532,0,1
-0.0001005423,-0.0005162397,0,1
-8.82253e-05,-0.0002603387,0,1
-8.141856e-05,1.322759e-05,0,1
-9.649064e-05,0.0002125679,0,1
-0.0001332795,0.0002786906,0,1
-0.0001755785,0.0002114335,0,1
-0.0002060468,5.504044e-05,0,1
-0.0002160948,-0.0001243659,0,1
-0.0002053985,-0.0002699005,0,1
-0.0001820611,-0.0003575778,0,1
-0.0001496481,-0.0003911253,0,1
-0.0001075111,-0.0003862634,0,1
-5.937768e-05,-0.0003622777,0,1
-1.691656e-05,-0.0003415334,0,1
8.041497e-06,-0.0003314853,0,1
8.689758e-06,-0.0003220855,0,1
-1.578211e-05,-0.0002948586,0,1
-5.791909e-05,-0.0002431597,0,1
-0.0001018388,-0.0001771992,0,1
-0.0001292278,-0.0001216107,0,1
-0.0001284175,-9.762509e-05,0,1
-0.0001003802,-0.0001102662,0,1
-5.840528e-05,-0.0001499722,0,1
-2.210265e-05,-0.0002008607,0,1
-7.840905e-06,-0.0002460769,0,1
-1.983374e-05,-0.0002737901,0,1
-5.581224e-05,-0.000281083,0,1
-0.0001045939,-0.0002733039,0,1
-0.0001399241,-0.0002624455,0,1
-0.0001339277,-0.0002606628,0,1
-7.250496e-05,-0.000273628,0,1
3.737532e-05,-0.0002951827,0,1
0.000168,-0.0003102548,0,1
0.0002840388,-0.0003029619,0,1
0.0003652335,-0.000268766,0,1
0.0004068843,-0.0002175534,0,1
0.0004130428,-0.0001621271,0,1
0.0003947294,-0.0001034594,0,1
0.0003647473,-1.805102e-05,0,1
0.0003329825,0.0001304008,0,1
0.0003025142,0.0003558337,0,1
0.0002709115,0.0006332897,0,1
0.0002376881,0.0009105837,0,1
0.0002062474,0.001127265,0,1
0.0001848548,0.001236984,0,1
0.0001817755,0.001225315,0,1
0.0001939304,0.001113652,0,1
0.0002125679,0.0009548276,0,1
0.0002218057,0.000802324,0,1
0.0002104611,0.0007002227,0,1
0.0001761032,0.0006645683,0,1
0.0001310491,0.0006825576,0,1
8.907416e-05,0.0007186982,0,1
6.217132e-05,0.0007310151,0,1
5.309566e-05,0.0006932539,0,1
6.265751e-05,0.0006084936,0,1
9.16672e-05,0.0005020167,0,1
0.000143204,0.0004018603,0,1
0.000215161,0.0003258516,0,1
0.0003012177,0.0002752873,0,1
0.00038614,0.0002438466,0,1
0.0004443214,0.0002333123,0,1
0.0004545315,0.0002444948,0,1
0.0004149876,0.0002644289,0,1
0.0003474063,0.0002663737,0,1
0.0002801492,0.0002284504,0,1
0.0002237505,0.0001500107,0,1
0.0001628139,4.142696e-05,0,1
7.416415e-05,-7.574627e-05,0,1
-4.835724e-05,-0.0001739578,0,1
-0.0001865989,-0.0002290601,0,1
-0.0003037722,-0.0002300324,0,1
-0.0003710293,-0.0001810887,0,1
-0.0003841565,-9.568031e-05,0,1
-0.0003742705,2.623614e-07,0,1
-0.0003857772,8.437427e-05,0,1
-0.000449955,0.0001451488,0,1
-0.0005669662,0.0001799928,0,1
-0.000705532,0.0001885823,0,1
-0.0008194639,0.0001642725,0,1
-0.0008710006,9.831188e-05,0,1
-0.0008471771,-2.81688e-06,0,1
-0.0007674409,-0.0001175591,0,1
-0.0006685811,-0.0002175534,0,1
-0.0005742591,-0.0002851347,0,1
-0.0004826922,-0.0003203028,0,1
-0.0003744326,-0.0003407231,0,1
-0.0002206326,-0.0003614674,0,1
-1.173047e-05,-0.0003870737,0,1
0.0002406053,-0.0004107352,0,1
0.0005020167,-0.0004256453,0,1
0.000725667,-0.0004321279,0,1
0.000866826,-0.0004339106,0,1
0.000901508,-0.0004352071,0,1
0.0008368439,-0.0004403932,0,1
0.0007045984,-0.0004546549,0,1
0.000547395,-0.0004890127,0,1
0.0003995914,-0.0005525423,0,1
0.0002786906,-0.0006429748,0,1
0.0001863134,-0.0007569068,0,1
0.0001231079,-0.0008815349,0,1
8.956036e-05,-0.0009946565,0,1
8.696731e-05,-0.001068234,0,1
0.0001091703,-0.001080227,0,1
0.0001417454,-0.001028852,0,1
0.0001650828,-0.0009346923,0,1
0.0001644345,-0.0008235155,0,1
0.0001388282,-0.0007074767,0,1
9.571884e-05,-0.0005804176,0,1
4.45062e-05,-0.0004327761,0,1
-7.030578e-06,-0.0002674695,0,1
-5.743289e-05,-9.470791e-05,0,1
-0.0001037836,7.546067e-05,0,1
-0.0001378173,0.0002372019,0,1
-0.0001511067,0.0003905157,0,1
-0.0001402483,0.0005368608,0,1
-0.0001032974,0.0006772094,0,1
-5.078821e-05,0.0008070238,0,1
3.179537e-06,0.0009081527,0,1
4.288554e-05,0.0009546655,0,1
5.066468e-05,0.0009284109,0,1
2.295151e-05,0.0008342508,0,1
-2.89094e-05,0.0007013571,0,1
-8.595638e-05,0.0005718669,0,1
-0.00012469,0.0004786793,0,1
-0.0001311726,0.0004271425,0,1
-0.0001109144,0.0004023465,0,1
-8.611845e-05,0.0003830607,0,1
-7.363943e-05,0.0003568061,0,1
-7.736692e-05,0.0003226103,0,1
-8.773911e-05,0.0002900352,0,1
-9.519411e-05,0.0002764217,0,1
-9.940781e-05,0.0002963557,0,1
-0.0001084835,0.0003430306,0,1
-0.0001292278,0.0004015361,0,1
-0.0001630995,0.000455666,0,1
-0.0001994021,0.0004950479,0,1
-0.000226467,0.0005128751,0,1
-0.0002335979,0.0005060683,0,1
-0.0002177155,0.0004728449,0,1
-0.0001893541,0.0004031568,0,1
-0.0001652063,0.0002940868,0,1
-0.0001553203,0.0001603829,0,1
-0.0001536997,2.797553e-05,0,1
-0.0001462447,-7.752899e-05,0,1
-0.0001235555,-0.0001464067,0,1
-9.454585e-05,-0.000184168,0,1
-7.882551e-05,-0.0002063709,0,1
-8.82253e-05,-0.0002308428,0,1
-0.0001149661,-0.00027849,0,1
-0.0001305243,-0.0003596847,0,1
-0.0001045939,-0.0004658375,0,1
-2.971972e-05,-0.0005847933,0,1
7.594687e-05,-0.000713149,0,1
0.0001820997,-0.0008523631,0,1
0.0002569738,-0.0009974116,0,1
0.0002790148,-0.001129657,0,1
0.0002453052,-0.001222844,0,1
0.0001709172,-0.001256392,0,1
8.194328e-05,-0.001217982,0,1
8.851824e-06,-0.00110162,0,1
-2.826114e-05,-0.0009150825,0,1
-2.258885e-05,-0.0006796016,0,1
1.711715e-05,-0.000417542,0,1
7.027458e-05,-0.0001575893,0,1
0.0001151667,7.886404e-05,0,1
0.0001370455,0.0002934386,0,1
0.0001362352,0.0005190336,0,1
0.0001269974,0.0007814175,0,1
0.0001305629,0.001055632,0,1
0.0001586002,0.001273448,0,1
0.0001981441,0.001370202,0,1
0.0002214815,0.001332116,0,1
0.0002030061,0.001199547,0,1
0.0001310491,0.001022733,0,1
1.808955e-05,0.0008392748,0,1
-0.0001175591,0.0006689441,0,1
-0.0002606628,0.0005166026,0,1
-0.0003920977,0.0003799815,0,1
-0.0004903093,0.0002585945,0,1
-0.0005428185,0.0001522796,0,1
-0.0005473563,6.233338e-05,0,1
-0.0005001953,-3.789272e-06,0,1
-0.0004061974,-4.576419e-05,0,1
-0.0002840002,-7.380149e-05,0,1
-0.0001574272,-9.454585e-05,0,1
-4.657452e-05,-0.0001156143,0,1
3.964424e-05,-0.0001434896,0,1
9.847395e-05,-0.0001827094,0,1
0.000135911,-0.0002323013,0,1
0.0001613553,-0.0002840002,0,1
0.0001812893,-0.0003198166,0,1
0.0001923098,-0.0003293785,0,1
0.0001882582,-0.0003125237,0,1
0.000163138,-0.000278652,0,1
0.0001265113,-0.0002350565,0,1
9.717743e-05,-0.0001851404,0,1
9.053275e-05,-0.0001355484,0,1
0.0001145184,-0.0001008664,0,1
0.0001746447,-9.017008e-05,0,1
0.0002654013,-9.794922e-05,0,1
0.0003666921,-0.0001071869,0,1
0.0004512903,-0.0001055663,0,1
0.0005039615,-8.676672e-05,0,1
0.0005237334,-5.208474e-05,0,1
0.0005170888,-1.335113e-05,0,1
0.0004811103,1.338965e-05,0,1
0.0004091532,2.01964e-05,0,1
0.0003051073,1.144487e-05,0,1
0.0001846927,-2.654814e-06,0,1
7.416415e-05,-1.691656e-05,0,1
-6.220252e-06,-2.89094e-05,0,1
-4.544006e-05,-3.490581e-05,0,1
-4.706071e-05,-3.393342e-05,0,1
-2.129233e-05,-2.907146e-05,0,1
1.517237e-05,-2.242678e-05,0,1
4.256141e-05,-1.464765e-05,0,1
4.936815e-05,-3.789272e-06,0,1
3.656499e-05,1.047248e-05,0,1
1.338965e-05,1.9224e-05,0,1
-1.3027e-05,1.1769e-05,0,1
-4.284701e-05,-1.140634e-05,0,1
-7.60704e-05,-3.701266e-05,0,1
-0.0001083214,-4.608832e-05,0,1
-0.0001363587,-2.858527e-05,0,1
-0.0001616409,1.582063e-05,0,1
-0.0001875713,8.129502e-05,0,1
-0.000209126,0.0001673517,0,1
-0.0002130156,0.0002744769,0,1
-0.0001932436,0.0003984569,0,1
-0.0001451102,0.000517575,0,1
-7.056019e-05,0.0005981215,0,1
1.403791e-05,0.0006164349,0,1
8.016057e-05,0.0005660325,0,1
0.0001062531,0.0004538833,0,1
8.858796e-05,0.0002991108,0,1
4.272347e-05,0.0001310491,0,1
-4.275467e-06,-2.485776e-05,0,1
-3.101625e-05,-0.000149486,0,1
-2.161646e-05,-0.0002360289,0,1
2.068259e-05,-0.000300855,0,1
8.826383e-05,-0.0003781601,0,1
0.0001657311,-0.0004938748,0,1
0.000225209,-0.000653347,0,1
0.0002336365,-0.0008329154,0,1
0.0001707551,-0.0009931979,0,1
4.094075e-05,-0.001103078,0,1
-0.0001389517,-0.001143594,0,1
-0.0003587123,-0.001119285,0,1
-0.0006084549,-0.001039873,0,1
-0.0008628974,-0.0008983897,0,1
-0.001084441,-0.0006679329,0,1
-0.001231434,-0.0003386162,0,1
-0.001276164,5.52025e-05,0,1
-0.001218307,0.0004514523,0,1
-0.001072124,0.0007866036,0,1
-0.0008628974,0.001021112,0,1
-0.0006264441,0.001145417,0,1
-0.0003943667,0.001171509,0,1
-0.0001888679,0.001110897,0,1
-1.286493e-05,0.0009807581,0,1
0.0001329939,0.0008050791,0,1
0.0002448189,0.0006144901,0,1
0.0003209897,0.0004345975,0,1
0.0003679886,0.0002833905,0,1
0.0003974845,0.0001618415,0,1
0.0004217943,6.217132e-05,0,1
0.0004525868,-3.182657e-05,0,1
0.0004956961,-0.000127121,0,1
0.0005495019,-0.0002224154,0,1
0.000599418,-0.0003066893,0,1
0.0006345862,-0.0003651949,0,1
0.0006574374,-0.0003864254,0,1
0.0006686199,-0.0003718396,0,1
0.0006681338,-0.0003386162,0,1
0.0006543582,-0.0003139823,0,1
0.0006185417,-0.0003227338,0,1
0.0005550121,-0.0003739464,0,1
0.0004678209,-0.0004565997,0,1
0.0003751195,-0.0005450874,0,1
0.0002992729,-0.0006131548,0,1
0.0002485465,-0.0006374646,0,1
0.0002098128,-0.0005985689,0,1
0.0001574657,-0.0004852853,0,1
7.740546e-05,-0.0003073376,0,1
-1.140634e-05,-9.843541e-05,0,1
-7.056019e-05,9.928428e-05,0,1
-7.347736e-05,0.0002459534,0,1
-3.053005e-05,0.0003273102,0,1
1.711715e-05,0.0003499994,0,1
3.332369e-05,0.0003329825,0,1
1.792748e-05,0.0003054314,0,1
3.989864e-06,0.0002889007,0,1
2.538249e-05,0.0002866318,0,1
8.696731e-05,0.0002863077,0,1
0.0001639484,0.0002735045,0,1
0.0002208333,0.0002422259,0,1
0.0002328261,0.0001937684,0,1
0.0001940925,0.0001412592,0,1
0.0001201907,0.000105929,0,1
3.850978e-05,0.0001018773,0,1
-2.939559e-05,0.000128294,0,1
-6.91016e-05,0.0001743205,0,1
-7.833932e-05,0.0002213195,0,1
-6.634648e-05,0.0002616738,0,1
-4.673658e-05,0.00029198,0,1
-4.738484e-05,0.0003078624,0,1
-9.616651e-05,0.0003064038,0,1
-0.0002037779,0.0002879283,0,1
-0.000355471,0.0002576221,0,1
-0.0005113778,0.0002229401,0,1
-0.0006233649,0.0001944166,0,1
-0.0006617744,0.0001885823,0,1
-0.0006317923,0.0002138645,0,1
-0.00056648,0.0002629703,0,1
-0.0005099192,0.0003198552,0,1
-0.0004966299,0.0003694472,0,1
-0.000534229,0.0004067223,0,1
-0.0005995413,0.0004230909,0,1
-0.00065594,0.0004046154,0,1
-0.0006680949,0.0003404375,0,1
-0.0006178547,0.0002266676,0,1
-0.000507002,7.465034e-05,0,1
-0.0003444506,-9.308726e-05,0,1
-0.0001457585,-0.0002509389,0,1
5.730935e-05,-0.0003818876,0,1
0.0002219677,-0.0004877163,0,1
0.0003114278,-0.0005877105,0,1
0.0003205035,-0.0006977529,0,1
0.0002725321,-0.0008160605,0,1
0.0002080301,-0.0009280476,0,1
0.0001683241,-0.00100827,0,1
0.0001752929,-0.00102869,0,1
0.0002292607,-0.0009667812,0,1
0.0003148312,-0.0008176812,0,1
0.0004075326,-0.0005877105,0,1
0.0004815964,-0.0002862691,0,1
0.0005086614,5.423012e-05,0,1
0.0004726828,0.0003686369,0,1
0.0003869503,0.0005777013,0,1
0.0002851732,0.00061919,0,1
0.0002075439,0.0004864584,0,1
0.0001796687,0.0002360674,0,1
0.000200413,-4.770897e-05,0,1
0.0002430362,-0.0002968033,0,1
0.0002759355,-0.0004706994,0,1
0.0002777182,-0.0005574043,0,1
0.0002475741,-0.0005603215,0,1
0.0001991165,-0.0004898231,0,1
0.0001511452,-0.0003582261,0,1
0.0001132219,-0.0001806025,0,1
7.951231e-05,2.100672e-05,0,1
3.769945e-05,0.0002182402,0,1
-1.62683e-05,0.0003833848,0,1
-7.898758e-05,0.0004898618,0,1
-0.0001423551,0.0005264886,0,1
-0.0001861127,0.0005039615,0,1
-0.000181737,0.0004509661,0,1
-0.0001125351,0.0004002396,0,1
1.484824e-05,0.000373823,0,1
0.0001650828,0.0003765781,0,1
0.0002910076,0.0003895433,0,1
0.0003561579,0.0003841952,0,1
0.0003499994,0.0003396272,0,1
0.0002910076,0.0002517878,0,1
0.000210137,0.00013818,0,1
0.0001346145,2.34377e-05,0,1
7.691926e-05,-6.780507e-05,0,1
3.721326e-05,-0.0001180453,0,1
9.013889e-06,-0.0001212866,0,1
-1.075808e-05,-8.158062e-05,0,1
-2.874733e-05,-1.351319e-05,0,1
-5.338126e-05,6.670914e-05,0,1
-8.352541e-05,0.0001477418,0,1
-0.0001177212,0.0002211574,0,1
-0.0001511067,0.0002786906,0,1
-0.0001810887,0.000316776,0,1
-0.0002083157,0.0003329825,0,1
-0.0002293842,0.000331848,0,1
-0.0002355427,0.0003208276,0,1
-0.0002104225,0.0003017039,0,1
-0.0001417068,0.0002705873,0,1
-3.652646e-05,0.0002235884,0,1
7.562274e-05,0.0001642725,0,1
0.0001613553,0.0001023635,0,1
0.0002010613,5.487838e-05,0,1
0.000185503,3.348575e-05,0,1
0.0001195424,4.061663e-05,0,1
1.630683e-05,6.995045e-05,0,1
-9.681477e-05,9.652917e-05,0,1
-0.0001963229,8.680524e-05,0,1
-0.0002647144,2.408596e-05,0,1
-0.000298424,-7.850138e-05,0,1
-0.0002980999,-0.0001838438,0,1
-0.0002650386,-0.0002566112,0,1
-0.0002071812,-0.0002815692,0,1
-0.0001365208,-0.0002734659,0,1
-6.731888e-05,-0.0002617972,0,1
-1.221667e-05,-0.0002650386,0,1
1.533444e-05,-0.0002804347,0,1
4.962256e-06,-0.0002864312,0,1
-3.879538e-05,-0.0002577456,0,1
-8.871149e-05,-0.0001857886,0,1
-0.0001206384,-8.644259e-05,0,1
-0.000127283,6.90704e-06,0,1
-0.0001136696,6.654708e-05,0,1
-9.389759e-05,8.583286e-05,0,1
-8.093236e-05,7.659513e-05,0,1
-8.854943e-05,7.870197e-05,0,1
-0.000119666,0.0001474177,0,1
-0.0001671511,0.0003226103,0,1
-0.0002154466,0.0005861287,0,1
-0.0002570974,0.0008512677,0,1
-0.0002895104,0.001007175,0,1
-0.0003131719,0.0009765443,0,1
-0.0003275957,0.0007556491,0,1
-0.0003348887,0.0004096394,0,1
-0.0003344025,4.077869e-05,0,1
-0.0003131719,-0.0002530457,0,1
-0.0002519113,-0.0004173799,0,1
-0.0001472171,-0.0004575721,0,1
-1.691656e-05,-0.0004173799,0,1
0.0001052807,-0.0003517435,0,1
0.0001893926,-0.0003036101,0,1
0.0002162954,-0.0002964792,0,1
0.0001906891,-0.0003251648,0,1
0.0001389903,-0.0003728119,0,1
8.891209e-05,-0.0004188385,0,1
5.909208e-05,-0.0004493068,0,1
4.72613e-05,-0.0004580583,0,1
3.202716e-05,-0.0004544929,0,1
-4.113403e-06,-0.0004570859,0,1
-6.197072e-05,-0.0004744269,0,1
-0.0001240417,-0.0005076503,0,1
-0.000169258,-0.0005470322,0,1
-0.0001836818,-0.0005679386,0,1
-0.0001720131,-0.0005496252,0,1
-0.0001436516,-0.000489499,0,1
-0.0001164247,-0.0004049009,0,1
-0.0001032974,-0.0003146305,0,1
-0.0001175591,-0.0002379736,0,1
-0.0001626133,-0.0001859507,0,1
-0.0002243602,-0.0001524032,0,1
-0.0002726556,-0.0001173971,0,1
-0.000268766,-5.872941e-05,0,1
-0.0001818991,3.024445e-05,0,1
-8.975362e-06,0.000140773,0,1
0.0002171058,0.0002535705,0,1
0.0004490213,0.0003553475,0,1
0.0006451205,0.0004493454,0,1
0.0007843347,0.0005558224,0,1
0.0008677984,0.0006950366,0,1
0.0009049114,0.0008624502,0,1
0.0008997253,0.001025488,0,1
0.000837006,0.001136017,0,1
0.0007024916,0.001149792,0,1
0.00050542,0.001047205,0,1
0.0002833905,0.0008434886,0,1
9.717743e-05,0.000579484,0,1
-9.785688e-06,0.0003064038,0,1
-2.923353e-05,6.914012e-05,0,1
1.306552e-05,-0.0001050801,0,1
7.20573e-05,-0.000208964,0,1
0.0001015532,-0.0002567732,0,1
7.643307e-05,-0.0002746004,0,1
-1.196227e-06,-0.000281083,0,1
-0.0001076731,-0.0002817312,0,1
-0.0002152845,-0.0002707109,0,1
-0.0003026377,-0.000238946,0,1
-0.000358064,-0.000181737,0,1
-0.0003856151,-0.0001081593,0,1
-0.0003979321,-4.05781e-05,0,1
-0.0004029561,1.558884e-06,0,1
-0.0004045768,7.23117e-06,0,1
-0.0003997148,-1.918548e-05,0,1
-0.0003773498,-5.937768e-05,0,1
-0.0003241924,-9.503204e-05,0,1
-0.0002407288,-0.000114804,0,1
-0.0001353863,-0.0001206384,0,1
-1.594417e-05,-0.0001245279,0,1
0.0001164632,-0.0001350622,0,1
0.0002555152,-0.000159534,0,1
0.0003830607,-0.0002019951,0,1
0.0004660382,-0.0002655248,0,1
0.0004838654,-0.0003433161,0,1
0.0004371906,-0.0004212695,0,1
0.0003545372,-0.0004802613,0,1
0.0002743149,-0.0005068399,0,1
0.0002365536,-0.0004943609,0,1
0.0002592428,-0.0004441207,0,1
0.0003255275,-0.0003728119,0,1
0.0003991052,-0.0003115513,0,1
0.0004452938,-0.0002844864,0,1
0.0004410801,-0.0003019894,0,1
0.0003709058,-0.0003601709,0,1
0.0002389846,-0.0004457413,0,1
6.768154e-05,-0.0005324463,0,1
-0.0001063766,-0.0005885208,0,1
-0.0002527216,-0.0005950035,0,1
-0.0003502849,-0.0005551354,0,1
-0.0003969597,-0.0004927403,0,1
-0.0004074939,-0.0004316416,0,1
-0.0004013355,-0.000387884,0,1
-0.0003929081,-0.000365357,0,1
-0.0003875599,-0.0003601709,0,1
-0.0003786463,-0.0003608192,0,1
-0.0003611433,-0.0003515814,0,1
-0.0003353749,-0.0003134961,0,1
-0.0003049066,-0.0002360289,0,1
-0.0002752487,-0.0001258245,0,1
-0.0002551526,1.234753e-06,0,1
-0.0002485079,0.0001341283,0,1
-0.0002528836,0.000267184,0,1
-0.0002645523,0.0004016982,0,1
-0.0002776796,0.0005483674,0,1
-0.0002741142,0.0007102708,0,1
-0.0002355427,0.000864557,0,1
-0.0001491618,0.0009728169,0,1
-1.740276e-05,0.001003447,0,1
0.0001406109,0.0009558,0,1
0.000304297,0.000861964,0,1
0.0004553419,0.0007694247,0,1
0.0005783495,0.0007062191,0,1
0.000661165,0.000668782,0,1
0.0007042743,0.0006336138,0,1
0.0007063812,0.000579646,0,1
0.0006691061,0.0004947237,0,1
0.0006024973,0.0003841952,0,1
0.0005204921,0.0002710735,0,1
0.000443187,0.0001752929,0,1
0.0003892192,9.831188e-05,0,1
0.0003696093,2.39239e-05,0,1
0.000388895,-6.407757e-05,0,1
0.0004368664,-0.0001710407,0,1
0.0004817585,-0.0002890242,0,1
0.0004709002,-0.0004058733,0,1
0.0003608578,-0.0005099192,0,1
0.0001514693,-0.0005995413,0,1
-0.0001178833,-0.0006836532,0,1
-0.0003909633,-0.000777651,0,1
-0.0006219063,-0.0008875313,0,1
-0.00077992,-0.001000653,0,1
-0.0008465288,-0.00107893,0,1
-0.0008231914,-0.001082496,0,1
-0.0007280591,-0.0009893083,0,1
-0.0005886829,-0.0007985575,0,1
-0.0004285624,-0.0005253154,0,1
-0.0002655248,-0.0001830335,0,1
-0.0001217728,0.0002214815,0,1
-2.242678e-05,0.0006686199,0,1
1.12828e-05,0.001093394,0,1
-1.691656e-05,0.001400184,0,1
-8.141856e-05,0.001505851,0,1
-0.0001506204,0.001387705,0,1
-0.0002032917,0.001092745,0,1
-0.0002248464,0.0007130259,0,1
-0.0001995642,0.0003474063,0,1
-0.0001266348,6.897806e-05,0,1
-2.583016e-05,-9.114248e-05,0,1
7.416415e-05,-0.0001373311,0,1
0.0001479039,-9.065628e-05,0,1
0.0001785342,1.760335e-05,0,1
0.0001624898,0.0001488763,0,1
0.0001090082,0.0002642668,0,1
3.121684e-05,0.0003336308,0,1
-6.326724e-05,0.0003414099,0,1
-0.0001588858,0.000294573,0,1
-0.0002310048,0.0002182402,0,1
-0.0002689281,0.0001423936,0,1
-0.0002789762,9.26396e-05,0,1
-0.0002846485,7.951231e-05,0,1
-0.0003147926,9.896015e-05,0,1
-0.0003786463,0.0001393144,0,1
-0.0004624341,0.0001820997,0,1
-0.0005415219,0.0002104611,0,1
-0.0005971103,0.0002148369,0,1
-0.0006257959,0.0001918236,0,1
-0.0006340612,0.0001445005,0,1
-0.0006295234,8.080883e-05,0,1
-0.0006196374,1.12828e-05,0,1
-0.000608617,-4.997789e-05,0,1
-0.0005920863,-8.709085e-05,0,1
-0.000556756,-8.968389e-05,0,1
-0.0004941989,-6.035007e-05,0,1
-0.0004070078,-5.89612e-06,0,1
-0.0003024756,6.281957e-05,0,1
-0.0001887058,0.0001313732,0,1
-6.504996e-05,0.0001811273,0,1
7.043665e-05,0.0001989545,0,1
0.0002135403,0.0001817755,0,1
0.0003582647,0.0001389903,0,1
0.0004997478,8.453633e-05,0,1
0.0006195141,3.316162e-05,0,1
0.0006950366,-8.489166e-06,0,1
0.0007075156,-3.717473e-05,0,1
0.0006595443,-5.808115e-05,0,1
0.0005728393,-8.109443e-05,0,1
0.0004791655,-0.0001141558,0,1
0.0004083429,-0.0001546721,0,1
0.0003773884,-0.0001947022,0,1
0.0003875985,-0.0002276015,0,1
0.0004276287,-0.0002454286,0,1
0.000475438,-0.0002447804,0,1
0.0005185474,-0.0002274394,0,1
0.0005538776,-0.0001948643,0,1
0.0005791598,-0.0001536997,0,1
0.0005916389,-0.0001167488,0,1
0.0005880735,-8.725291e-05,0,1
0.0005686256,-4.997789e-05,0,1
0.0005332953,1.825161e-05,0,1
0.0004801379,0.0001287802,0,1
0.0004086671,0.0002765838,0,1
0.0003239069,0.0004352458,0,1
0.0002386605,0.0005644119,0,1
0.000173024,0.0006282657,0,1
0.0001409351,0.0006075213,0,1
0.0001475797,0.0005007202,0,1
0.0001769136,0.0003229345,0,1
0.0001981441,0.0001070634,0,1
0.0001824238,-0.0001091317,0,1
0.0001117633,-0.0002929138,0,1
-1.270286e-05,-0.0004290486,0,1
-0.0001724993,-0.0005186707,0,1
-0.0003285682,-0.0005705316,0,1
-0.0004428242,-0.0005974344,0,1
-0.0004864197,-0.0006069963,0,1
-0.000452224,-0.0005946793,0,1
-0.0003520676,-0.0005604835,0,1
-0.00021415,-0.0005091089,0,1
-7.55842e-05,-0.0004454172,0,1
2.797553e-05,-0.0003684362,0,1
8.242948e-05,-0.0002765452,0,1
9.426025e-05,-0.000171851,0,1
8.064677e-05,-6.845333e-05,0,1
5.909208e-05,1.760335e-05,0,1
3.93201e-05,6.768154e-05,0,1
2.359977e-05,7.367795e-05,0,1
1.64689e-05,3.737532e-05,0,1
3.170304e-05,-2.631635e-05,0,1
8.307774e-05,-9.308726e-05,0,1
0.0001692965,-0.0001289037,0,1
0.000267184,-0.0001110765,0,1
0.0003448133,-4.608832e-05,0,1
0.0003869503,3.721326e-05,0,1
0.0003880847,0.0001072255,0,1
0.0003493511,0.000148228,0,1
0.0002773941,0.0001697827,0,1
0.0001837203,0.0002015475,0,1
8.129502e-05,0.0002712356,0,1
-1.967167e-05,0.0003816021,0,1
-0.0001110765,0.0005060683,0,1
-0.0001825473,0.0005982835,0,1
-0.0002259808,0.0006164349,0,1
-0.0002425115,0.0005384815,0,1
-0.0002412149,0.0003773884,0,1
-0.0002323013,0.0001726999,0,1
-0.0002237119,-2.631635e-05,0,1
-0.000219012,-0.0001796301,0,1
-0.0002159328,-0.0002755728,0,1
-0.0002117191,-0.0003254889,0,1
-0.0001995642,-0.0003553089,0,1
-0.0001806025,-0.0003933943,0,1
-0.000166989,-0.0004509274,0,1
-0.0001702304,-0.0005228845,0,1
-0.0001927574,-0.0005841451,0,1
-0.0002276015,-0.0006097514,0,1
-0.0002622834,-0.000601162,0,1
-0.0002872415,-0.0005828486,0,1
-0.0003016653,-0.000578797,0,1
-0.0003092824,-0.0005971103,0,1
-0.0003123616,-0.0006283889,0,1
-0.0003060411,-0.0006462161,0,1
-0.0002856209,-0.0006230408,0,1
-0.0002522354,-0.0005501114,0,1
-0.0002191741,-0.0004402311,0,1
-0.0001981056,-0.0003243544,0,1
-0.0001925954,-0.0002352185,0,1
-0.0002042641,-0.0001911368,0,1
-0.000231491,-0.0001872472,0,1
-0.0002754107,-0.0002018331,0,1
-0.0003261372,-0.000216419,0,1
-0.0003684362,-0.0002167431,0,1
-0.0003864254,-0.00019924,0,1
-0.0003673017,-0.0001598582,0,1
-0.0003152788,-7.866345e-05,0,1
-0.0002446183,6.525056e-05,0,1
-0.0001695821,0.0002645909,0,1
-9.632857e-05,0.0004744656,0,1
-2.501983e-05,0.0006238899,0,1
3.737532e-05,0.0006622995,0,1
8.729144e-05,0.0005977973,0,1
0.0001242423,0.000480462,0,1
0.0001603829,0.0003733368,0,1
0.0002109473,0.0003250413,0,1
0.0002777182,0.0003491891,0,1
0.000341734,0.0004269804,0,1
0.0003756057,0.0005234093,0,1
0.0003657197,0.0006047662,0,1
0.0003219621,0.0006537099,0,1
0.0002701012,0.0006679717,0,1
0.0002303951,0.0006559788,0,1
0.0002149989,0.000631507,0,1
0.0002166196,0.0005982835,0,1
0.0002161334,0.0005535535,0,1
0.0001887444,0.0004973168,0,1
0.0001211631,0.0004380009,0,1
2.068259e-05,0.0003853296,0,1
-9.357346e-05,0.0003467581,0,1
-0.0002052365,0.0003234207,0,1
-0.000303448,0.0003088348,0,1
-0.0003731361,0.0002940868,0,1
-0.0004019837,0.0002736666,0,1
-0.0003930701,0.0002457913,0,1
-0.0003627639,0.0002153231,0,1
-0.0003285682,0.0001880961,0,1
-0.0002980999,0.0001686482,0,1
-0.0002744383,0.000155683,0,1
-0.0002574215,0.000145797,0,1
-0.0002439701,0.0001278078,0,1
-0.0002263049,9.361199e-05,0,1
-0.000196647,3.705119e-05,0,1
-0.0001496481,-4.819517e-05,0,1
-8.854943e-05,-0.0001645581,0,1
-2.955766e-05,-0.0003057169,0,1
4.313994e-06,-0.0004650271,0,1
1.558884e-06,-0.0006309819,0,1
-2.615429e-05,-0.0007820268,0,1
-4.138842e-05,-0.0008925553,0,1
-1.20546e-05,-0.0009400405,0,1
6.816773e-05,-0.0009183238,0,1
0.0001741585,-0.0008389117,0,1
0.0002783665,-0.0007249799,0,1
0.0003582647,-0.0006060239,0,1
0.0004023465,-0.0005042469,0,1
0.0004242253,-0.0004272659,0,1
0.0004461041,-0.0003666535,0,1
0.0004901859,-0.0003105789,0,1
0.0005605224,-0.0002554767,0,1
0.0006475514,-0.0002084778,0,1
0.0007295565,-0.000176713,0,1
0.0007807693,-0.0001571031,0,1
0.0007783383,-0.0001352242,0,1
0.0007135121,-8.757704e-05,0,1
0.0005979594,6.096713e-06,0,1
0.0004577728,0.0001428799,0,1
0.0003201794,0.0003025142,0,1
0.0002111094,0.0004533971,0,1
0.000140773,0.0005686256,0,1
0.0001025256,0.0006341,0,1
7.853991e-05,0.0006545202,0,1
5.293359e-05,0.000648848,0,1
2.246531e-05,0.0006334517,0,1
-2.330684e-06,0.0006175694,0,1
-6.058186e-06,0.000594394,0,1
2.165498e-05,0.0005499881,0,1
7.027458e-05,0.0004783552,0,1
0.0001213252,0.0003850055,0,1
0.0001493625,0.0002837146,0,1
0.0001406109,0.0001874478,0,1
9.766362e-05,0.0001030118,0,1
3.705119e-05,3.478228e-05,0,1
-2.809907e-05,-1.189254e-05,0,1
-9.827335e-05,-3.198864e-05,0,1
-0.0001820611,-3.166451e-05,0,1
-0.0002801106,-2.631635e-05,0,1
-0.0003739464,-3.571614e-05,0,1
-0.000432452,-6.375344e-05,0,1
-0.000442338,-0.0001063766,0,1
-0.0004110594,-0.0001509446,0,1
-0.0003543365,-0.00018433,0,1
-0.0002917793,-0.0001968091,0,1
-0.0002429977,-0.0001836818,0,1
-0.0002219292,-0.000137169,0,1
-0.000238784,-6.06742e-05,0,1
-0.0002953447,1.760335e-05,0,1
-0.0003692465,5.876794e-05,0,1
-0.000422566,4.661304e-05,0,1
-0.0004235384,-1.383732e-05,0,1
-0.000367788,-0.0001060525,0,1
-0.0002763831,-0.0002078295,0,1
-0.000174282,-0.0002998826,0,1
-8.206682e-05,-0.0003815635,0,1
-7.516774e-06,-0.0004656754,0,1
5.61749e-05,-0.0005650214,0,1
0.0001213252,-0.0006700397,0,1
0.0001973338,-0.0007564205,0,1
0.0002806354,-0.0007964507,0,1
0.000356482,-0.0007786234,0,1
0.0004120704,-0.0006982391,0,1
0.0004363802,-0.0005562698,0,1
0.0004213082,-0.0003519055,0,1
0.0003730126,-7.218083e-05,0,1
0.0003203414,0.000304297,0,1
0.0003012177,0.0007587284,0,1
0.0003287688,0.001200681,0,1
0.0003848434,0.001502447,0,1
0.0004316803,0.001563546,0,1
0.000440756,0.001356912,0,1
0.0004101256,0.0009476967,0,1
0.0003449753,0.0004561522,0,1
0.0002472499,4.313994e-06,0,1
0.0001226217,-0.0003261372,0,1
-1.886135e-05,-0.0005039228,0,1
-0.0001640719,-0.0005399013,0,1
-0.0003052308,-0.0004729683,0,1
-0.00042759,-0.0003496366,0,1
-0.0005139708,-0.0002143121,0,1
-0.0005570802,-9.794922e-05,0,1
-0.0005624284,-1.237873e-05,0,1
-0.0005436288,4.077869e-05,0,1
-0.0005186707,6.476436e-05,0,1
-0.0004929024,7.092284e-05,0,1
-0.0004659995,6.962632e-05,0,1
-0.0004337485,6.946425e-05,0,1
-0.0003935563,7.772959e-05,0,1
-0.0003473677,9.63671e-05,0,1
-0.0002995585,0.0001222976,0,1
-0.0002601766,0.0001485521,0,1
-0.0002394322,0.0001678379,0,1
-0.0002485079,0.0001809652,0,1
-0.0003026377,0.0001926339,0,1
-0.0004147869,0.0001973338,0,1
-0.0005757177,0.0001761032,0,1
-0.0007483172,0.0001013911,0,1
-0.0008799143,-4.657452e-05,0,1
-0.0009280476,-0.0002530457,0,1
-0.0008846141,-0.0004710235,0,1
-0.0007701961,-0.0006497815,0,1
-0.0006204477,-0.0007569068,0,1
-0.0004687546,-0.0007880232,0,1
-0.0003342404,-0.0007588515,0,1
-0.0002271153,-0.0006985632,0,1
-0.0001464067,-0.0006342233,0,1
-7.833932e-05,-0.0005804176,0,1
1.883015e-06,-0.0005463839,0,1
0.0001002567,-0.0005303394,0,1
0.0002081922,-0.0005121881,0,1
0.0003154794,-0.00046211,0,1
0.0004138531,-0.0003627639,0,1
0.0004950479,-0.0002123673,0,1
0.0005441537,-1.513384e-05,0,1
0.0005420469,0.0002209954,0,1
0.0004765725,0.0004909963,0,1
0.0003512959,0.0007835244,0,1
0.0001940925,0.001066167,0,1
3.543054e-05,0.001294517,0,1
-0.0001032974,0.001437945,0,1
-0.0001948643,0.001489482,0,1
-0.0001929195,0.001455448,0,1
-6.083626e-05,0.001339733,0,1
0.0002000889,0.001137313,0,1
0.0005341057,0.000851916,0,1
0.0008614778,0.0005187094,0,1
0.001114624,0.0001974959,0,1
0.001269073,-5.435365e-05,0,1
0.001344757,-0.0002010227,0,1
0.001371336,-0.000241377,0,1
0.001366798,-0.0001982676,0,1
0.001336168,-0.0001039456,0,1
0.001273448,1.209313e-05,0,1
0.001172968,0.0001266733,0,1
0.001043802,0.0002248849,0,1
0.0009058838,0.0003034866,0,1
0.0007699109,0.0003600474,0,1
0.000631507,0.0003830607,0,1
0.0004781931,0.0003603715,0,1
0.0003073762,0.0002913317,0,1
0.0001310491,0.0001957132,0,1
-3.279896e-05,0.0001015532,0,1
-0.0001642339,3.008238e-05,0,1
-0.0002459149,-1.351319e-05,0,1
-0.0002690902,-3.668853e-05,0,1
-0.0002404046,-5.354332e-05,0,1
-0.0001861127,-8.190475e-05,0,1
-0.0001397621,-0.0001319829,0,1
-0.0001183694,-0.0002042641,0,1
-0.0001191798,-0.0002898345,0,1
-0.0001292278,-0.0003763774,0,1
-0.0001441378,-0.0004569239,0,1
-0.0001716889,-0.000526774,0,1
-0.000219012,-0.0005825245,0,1
-0.0002827037,-0.0006228787,0,1
-0.0003507711,-0.0006439472,0,1
-0.0004071698,-0.0006421645,0,1
-0.0004378002,-0.0006134789,0,1
-0.0004381243,-0.0005564319,0,1
-0.0004222419,-0.0004800992,0,1
-0.0004073319,-0.0004005251,0,1
-0.0004047388,-0.0003316474,0,1
-0.0004198109,-0.0002771934,0,1
-0.0004486585,-0.0002368392,0,1
-0.00047702,-0.0002131776,0,1
-0.0004880404,-0.0002079916,0,1
-0.0004742648,-0.0002156086,0,1
-0.000444769,-0.0002397564,0,1
-0.0004136524,-0.0002893484,0,1
-0.0003956632,-0.0003617915,0,1
-0.0003982562,-0.0004405553,0,1
-0.0004180282,-0.0005063537,0,1
-0.0004462276,-0.0005488148,0,1
-0.0004755614,-0.0005679386,0,1
-0.0004998712,-0.0005755557,0,1
-0.0005110537,-0.0005859278,0,1
-0.0004990608,-0.0006139652,0,1
-0.0004640547,-0.0006617744,0,1
-0.0004110594,-0.0007134732,0,1
-0.0003436402,-0.0007483172,0,1
-0.0002650386,-0.0007539895,0,1
-0.0001783336,-0.0007280591,0,1
-9.373552e-05,-0.0006742534,0,1
-1.886135e-05,-0.0005980827,0,1
4.596478e-05,-0.0005013297,0,1
0.0001062531,-0.0003870737,0,1
0.0001595726,-0.0002609869,0,1
0.0002000889,-0.0001368449,0,1
0.0002192126,-3.409549e-05,0,1
0.0002146748,3.915804e-05,0,1
0.0001957132,9.361199e-05,0,1
0.0001769136,0.0001462832,0,1
0.0001709172,0.0002081922,0,1
0.0001890685,0.0002840388,0,1
0.0002256952,0.0003725265,0,1
0.0002592428,0.0004678209,0,1
0.0002704253,0.0005655463,0,1
0.0002563256,0.0006574374,0,1
0.0002347709,0.0007433321,0,1
0.0002308813,0.0008261476,0,1
0.0002655633,0.000901346,0,1
0.0003388169,0.0009562862,0,1
0.0004423766,0.0009833511,0,1
0.0005627912,0.0009872407,0,1
0.0006843403,0.0009810822,0,1
0.0007872519,0.0009825408,0,1
0.000851916,0.001006202,0,1
0.0008564538,0.001058874,0,1
0.0007857933,0.00113861,0,1
0.0006412309,0.001226125,0,1
0.0004441593,0.00127831,0,1
0.0002245608,0.001248815,0,1
1.54965e-05,0.001124024,0,1
-0.0001543479,0.0009306798,0,1
-0.0002737901,0.0007165913,0,1
-0.0003459091,0.0005234093,0,1
-0.000377836,0.0003743092,0,1
-0.0003797808,0.000267346,0,1
-0.0003684362,0.0001825859,0,1
-0.0003642225,0.0001030118,0,1
-0.000380267,1.565857e-05,0,1
-0.0004104111,-7.963584e-05,0,1
-0.0004361795,-0.0001755785,0,1
-0.0004378002,-0.0002601766,0,1
-0.0004014975,-0.00032322,0,1
-0.0003290543,-0.0003638984,0,1
-0.0002420253,-0.0003917736,0,1
-0.0001666649,-0.0004262935,0,1
-0.0001209625,-0.0004679443,0,1
-0.0001078352,-0.0004849611,0,1
-0.0001117248,-0.0004394208,0,1
-0.0001068628,-0.0003143064,0,1
-7.866345e-05,-0.0001396,0,1
-3.539201e-05,1.841368e-05,0,1
4.244267e-07,9.426025e-05,0,1
7.069105e-06,6.314371e-05,0,1
-2.275091e-05,-5.386745e-05,0,1
-7.979791e-05,-0.0002058847,0,1
-0.0001426792,-0.0003460712,0,1
-0.0001833576,-0.0004512515,0,1
-0.0001875713,-0.0005223983,0,1
-0.0001561307,-0.0005716661,0,1
-0.000104918,-0.0006066722,0,1
-5.889148e-05,-0.0006238511,0,1
-4.138842e-05,-0.0006175305,0,1
-6.164659e-05,-0.000583983,0,1
-0.0001186936,-0.0005272602,0,1
-0.000201671,-0.0004569239,0,1
-0.0002943724,-0.0003870737,0,1
-0.0003741085,-0.0003274337,0,1
-0.0004241867,-0.0002797865,0,1
-0.0004408794,-0.0002457528,0,1
-0.0004340726,-0.0002285739,0,1
-0.0004185144,-0.0002331117,0,1
-0.0004040906,-0.0002533699,0,1
-0.0003920977,-0.0002827037,0,1
-0.0003763774,-0.0003089583,0,1
-0.0003509331,-0.0003240303,0,1
-0.000310741,-0.0003246786,0,1
-0.0002593663,-0.0003110651,0,1
-0.0002023193,-0.0002841623,0,1
-0.0001491618,-0.000241377,0,1
-0.0001078352,-0.0001853024,0,1
-7.898758e-05,-0.0001227452,0,1
-5.613637e-05,-5.532604e-05,0,1
-3.522994e-05,1.436204e-05,0,1
-1.480971e-05,7.546067e-05,0,1
6.744974e-06,0.0001153287,0,1
3.105477e-05,0.0001289422,0,1
5.56887e-05,0.0001213252,0,1
7.465034e-05,0.0001009049,0,1
8.113296e-05,7.092284e-05,0,1
7.30297e-05,3.105477e-05,0,1
5.504044e-05,-8.813297e-06,0,1
3.964424e-05,-2.971972e-05,0,1
3.462021e-05,-9.623623e-06,0,1
3.850978e-05,5.925414e-05,0,1
3.769945e-05,0.000168,0,1
1.9224e-05,0.0002961937,0,1
-2.210265e-05,0.0004136911,0,1
-8.060823e-05,0.0004882411,0,1
-0.0001464067,0.0004990995,0,1
-0.0002052365,0.0004472386,0,1
-0.0002287359,0.0003428685,0,1
-0.0001778474,0.0002088404,0,1
-2.356124e-05,7.724339e-05,0,1
0.0002286124,-2.453363e-05,0,1
0.0005307022,-8.255302e-05,0,1
0.0008086445,-9.600444e-05,0,1
0.0009989094,-7.266703e-05,0,1
0.001076701,-2.647842e-05,0,1
0.001058225,2.781346e-05,0,1
0.0009862683,6.897806e-05,0,1
0.0009023183,8.518459e-05,0,1
0.0008310095,8.04847e-05,0,1
0.0007713694,6.881599e-05,0,1
0.0007146465,5.893001e-05,0,1
0.0006579236,5.212327e-05,0,1
0.0006036317,4.385793e-05,0,1
0.0005590637,4.045456e-05,0,1
0.0005243817,5.795762e-05,0,1
0.0004956961,0.0001128978,0,1
0.0004665244,0.0002146748,0,1
0.0004269804,0.0003517821,0,1
0.0003632887,0.0004913204,0,1
0.0002650771,0.0005875872,0,1
0.0001300767,0.0006106006,0,1
-2.988179e-05,0.0005584154,0,1
-0.0001865989,0.0004576108,0,1
-0.0003073376,0.0003401134,0,1
-0.000370381,0.0002297469,0,1
-0.0003768636,0.0001373696,0,1
-0.0003486642,6.346784e-05,0,1
-0.0003170615,6.582909e-06,0,1
-0.0003063652,-3.004385e-05,0,1
-0.000328244,-4.414354e-05,0,1
-0.0003765395,-3.944364e-05,0,1
-0.0004314796,-2.647842e-05,0,1
-0.0004804233,-2.177852e-05,0,1
-0.0005204534,-3.814712e-05,0,1
-0.0005538389,-8.109443e-05,0,1
-0.000576528,-0.0001384655,0,1
-0.000581552,-0.0001922712,0,1
-0.0005616181,-0.000223874,0,1
-0.0005084606,-0.0002235498,0,1
-0.0004138145,-0.0001947022,0,1
-0.0002750866,-0.000149486,0,1
-0.0001020008,-0.0001018388,0,1
8.534666e-05,-5.937768e-05,0,1
0.0002462775,-2.745081e-05,0,1
0.0003412479,3.989864e-06,0,1
0.0003619922,5.601284e-05,0,1
0.0003276344,0.0001393144,0,1
0.0002686426,0.0002420638,0,1
0.0002119197,0.0003373583,0,1
0.0001752929,0.0003848434,0,1
0.0001686482,0.0003546993,0,1
0.0001936063,0.0002415777,0,1
0.0002516257,7.562274e-05,0,1
0.0003418961,-9.454585e-05,0,1
0.0004498317,-0.0002246843,0,1
0.0005425331,-0.0002948586,0,1
0.0005807805,-0.0003094444,0,1
0.0005405883,-0.0002998826,0,1
0.0004277907,-0.0003102548,0,1
0.0002769079,-0.0003668155,0,1
0.0001276457,-0.0004601652,0,1
9.986281e-06,-0.000559025,0,1
-6.537409e-05,-0.0006327647,0,1
-9.66527e-05,-0.0006593434,0,1
-8.239095e-05,-0.0006382749,0,1
-2.404744e-05,-0.0005917621,0,1
6.914012e-05,-0.0005488148,0,1
0.0001696206,-0.0005348772,0,1
0.0002402811,-0.0005520562,0,1
0.0002521119,-0.0005749074,0,1
0.0001974959,-0.0005682627,0,1
8.648112e-05,-0.0005063537,0,1
-6.002594e-05,-0.0003875599,0,1
-0.0002178775,-0.0002222533,0,1
-0.000360333,-1.967167e-05,0,1
-0.0004604893,0.0002266676,0,1
-0.0005110537,0.0005279472,0,1
-0.0005272602,0.000859533,0,1
-0.0005353634,0.001152548,0,1
-0.0005468701,0.001321096,0,1
-0.0005575664,0.00130732,0,1
-0.0005588629,0.001120621,0,1
-0.000544115,0.0008290648,0,1
-0.0005164018,0.0005315126,0,1
-0.0004933886,0.0003086727,0,1
-0.000489661,0.0001934442,0,1
-0.0005071641,0.0001767515,0,1
-0.0005334187,0.0002219677,0,1
-0.0005501114,0.0002879283,0,1
-0.0005413599,0.0003467581,0,1
-0.0004941989,0.0003931088,0,1
-0.0004047388,0.000438325,0,1
-0.0002846485,0.0004989374,0,1
-0.0001622891,0.0005812666,0,1
-5.970181e-05,0.0006705648,0,1
2.34377e-05,0.0007347427,0,1
0.0001015532,0.0007464114,0,1
0.0001840444,0.0006973055,0,1
0.0002624841,0.0005942319,0,1
0.0003055935,0.0004498317,0,1
0.0002778803,0.0002762596,0,1
0.0001676758,7.999851e-05,0,1
-9.299493e-06,-0.0001298761,0,1
-0.000208964,-0.0003337542,0,1
-0.0003747568,-0.0005053814,0,1
-0.0004669719,-0.0006295234,0,1
-0.000482044,-0.0007053699,0,1
-0.0004514136,-0.0007395657,0,1
-0.0004131662,-0.0007441035,0,1
-0.0003930701,-0.0007295177,0,1
-0.0003945287,-0.0006992114,0,1
-0.0003985804,-0.0006551297,0,1
-0.0003731361,-0.000603755,0,1
-0.000285945,-0.0005569181,0,1
-0.0001204763,-0.000524343,0,1
0.0001116012,-0.0005016539,0,1
0.0003658818,-0.0004786406,0,1
0.0005905044,-0.0004488206,0,1
0.0007468975,-0.0004160834,0,1
0.0008306854,-0.0003865875,0,1
0.0008708776,-0.0003647087,0,1
0.000901508,-0.0003538503,0,1
0.0009368383,-0.0003536883,0,1
0.0009760582,-0.0003600088,0,1
0.001017223,-0.0003666535,0,1
0.001054336,-0.0003622777,0,1
0.001070866,-0.0003366714,0,1
0.001047205,-0.0002917793,0,1
0.0009723307,-0.0002391081,0,1
0.000851916,-0.0001985918,0,1
0.0007065432,-0.000181737,0,1
0.0005579292,-0.0001869231,0,1
0.0004219564,-0.0002024813,0,1
0.0003026763,-0.0002232257,0,1
0.0001963614,-0.000246239,0,1
9.490851e-05,-0.0002731418,0,1
-1.156841e-05,-0.0003031239,0,1
-0.0001302002,-0.0003303509,0,1
-0.0002530457,-0.0003402368,0,1
-0.0003669776,-0.0003167374,0,1
-0.0004624341,-0.0002504527,0,1
-0.0005363359,-0.0001491618,0,1
-0.0005954896,-3.652646e-05,0,1
-0.0006517263,5.828175e-05,0,1
-0.0007087733,0.0001150046,0,1
-0.0007599859,0.0001255389,0,1
-0.0007902921,9.393612e-05,0,1
-0.0007829992,3.494434e-05,0,1
-0.0007227109,-2.745081e-05,0,1
-0.0006091032,-6.829127e-05,0,1
-0.0004565997,-7.882551e-05,0,1
-0.0002942103,-6.375344e-05,0,1
-0.0001473791,-2.777494e-05,0,1
-3.620233e-05,2.100672e-05,0,1
2.943412e-05,7.546067e-05,0,1
5.666109e-05,0.0001278078,0,1
6.249545e-05,0.0001762653,0,1
6.330578e-05,0.0002196988,0,1
7.124698e-05,0.0002569738,0,1
9.669123e-05,0.0002838767,0,1
0.0001483901,0.0002968419,0,1
0.0002282883,0.0003034866,0,1
0.000331686,0.0003127243,0,1
0.0004478869,0.0003307136,0,1
0.0005681394,0.0003553475,0,1
0.0006763991,0.0003765781,0,1
0.0007579181,0.0003830607,0,1
0.0008052412,0.000371392,0,1
0.000817234,0.0003444891,0,1
0.000804755,0.0003109416,0,1
0.0007788245,0.0002752873,0,1
0.0007383081,0.0002431983,0,1
0.0006718613,0.0002171058,0,1
0.0005668429,0.0001926339,0,1
0.0004239012,0.0001628139,0,1
0.0002568118,0.0001172735,0,1
8.664318e-05,5.293359e-05,0,1
-7.039812e-05,-2.161646e-05,0,1
-0.0002097743,-8.498399e-05,0,1
-0.0003327818,-0.00010978,0,1
-0.0004342347,-7.380149e-05,0,1
-0.0005084606,2.635488e-05,0,1
-0.0005608077,0.0001692965,0,1
-0.000606186,0.0003234207,0,1
-0.0006528608,0.0004574487,0,1
-0.0007026148,0.0005496639,0,1
-0.0007491275,0.0005930975,0,1
-0.0007859163,0.0006034696,0,1
-0.0008030953,0.000609304,0,1
-0.0007954782,0.000629076,0,1
-0.0007573929,0.0006551685,0,1
-0.0006966184,0.0006601926,0,1
-0.0006256338,0.000616597,0,1
-0.0005572423,0.0005133613,0,1
-0.0004985746,0.0003676645,0,1
-0.000452386,0.0002198609,0,1
-0.0004211074,0.0001078737,0,1
-0.000407656,5.017848e-05,0,1
-0.0004094387,4.013043e-05,0,1
-0.0004178661,5.585077e-05,0,1
-0.0004256453,7.157111e-05,0,1
-0.0004251591,7.30297e-05,0,1
-0.0004108973,5.61749e-05,0,1
-0.000385291,2.716521e-05,0,1
-0.0003557951,-6.544382e-06,0,1
-0.0003293785,-4.025397e-05,0,1
-0.0003084721,-7.039812e-05,0,1
-0.0002955068,-9.632857e-05,0,1
-0.0002890242,-0.000114804,0,1
-0.0002844864,-0.000122259,0,1
-0.0002757348,-0.0001173971,0,1
-0.0002580697,-0.0001083214,0,1
-0.0002386219,-0.0001086455,0,1
-0.000231329,-0.0001311726,0,1
-0.0002444563,-0.000181737,0,1
-0.0002673075,-0.0002546664,0,1
-0.0002718453,-0.0003284061,0,1
-0.0002267911,-0.0003830221,0,1
-0.0001199901,-0.000405225,0,1
4.094075e-05,-0.0003966356,0,1
0.0002384984,-0.0003666535,0,1
0.0004511282,-0.0003301888,0,1
0.0006571133,-0.0003079858,0,1
0.0008389507,-0.0003248407,0,1
0.0009835132,-0.0003867496,0,1
0.001078484,-0.0004779923,0,1
0.001119162,-0.0005726385,0,1
0.0011002,-0.0006481609,0,1
0.001016737,-0.0006933771,0,1
0.0008775223,-0.00071558,0,1
0.000710757,-0.0007241695,0,1
0.0005509604,-0.0007206041,0,1
0.0004266563,-0.0006909461,0,1
0.0003569682,-0.0006240131,0,1
0.0003405996,-0.0005211017,0,1
0.0003592371,-0.0004005251,0,1
0.0003816021,-0.0002857829,0,1
0.0003760919,-0.0001911368,0,1
0.000331848,-0.0001135075,0,1
0.0002555152,-3.830919e-05,0,1
0.0001665414,6.022653e-05,0,1
8.631905e-05,0.000210137,0,1
2.81376e-05,0.0004276287,0,1
-7.030578e-06,0.0006998986,0,1
-2.550602e-05,0.0009760582,0,1
-4.074016e-05,0.001190957,0,1
-6.375344e-05,0.001308455,0,1
-9.616651e-05,0.001338437,0,1
-0.0001314967,0.001318341,0,1
-0.0001556445,0.001284631,0,1
-0.00015451,0.00124849,0,1
-0.0001216107,0.001183826,0,1
-6.650855e-05,0.001044612,0,1
-8.002969e-06,0.0008063756,0,1
3.93201e-05,0.0004952099,0,1
6.978839e-05,0.0001689724,0,1
8.307774e-05,-0.0001133454,0,1
8.259155e-05,-0.0003084721,0,1
6.573675e-05,-0.0004042526,0,1
3.380988e-05,-0.0004154351,0,1
-6.544382e-06,-0.0003763774,0,1
-4.80331e-05,-0.0003275957,0,1
-8.530812e-05,-0.0002982619,0,1
-0.0001217728,-0.0003006929,0,1
-0.0001671511,-0.0003287302,0,1
-0.0002306807,-0.0003642225,0,1
-0.0003172236,-0.0003890185,0,1
-0.0004190006,-0.0003838324,0,1
-0.0005151053,-0.0003366714,0,1
-0.0005880346,-0.0002394322,0,1
-0.0006269303,-9.162867e-05,0,1
-0.0006295234,9.863601e-05,0,1
-0.0005990551,0.0003112658,0,1
-0.0005387668,0.0005114165,0,1
-0.0004595169,0.0006629477,0,1
-0.0003752429,0.0007423597,0,1
-0.0003053928,0.0007371737,0,1
-0.000271035,0.0006459308,0,1
-0.0002804347,0.0004744656,0,1
-0.0003243544,0.0002446569,0,1
-0.000377836,-1.358292e-06,0,1
-0.0004143007,-0.0002198223,0,1
-0.0004188385,-0.0003817256,0,1
-0.0003943667,-0.0004856094,0,1
-0.0003468815,-0.0005446012,0,1
-0.000276221,-0.000573935,0,1
-0.0001671511,-0.0005867381,0,1
-9.299493e-06,-0.0005954896,0,1
0.0001851789,-0.0006047274,0,1
0.0003866261,-0.0006163961,0,1
0.0005580913,-0.0006267683,0,1
0.0006799645,-0.0006355198,0,1
0.0007579181,-0.000643461,0,1
0.0008115617,-0.0006543194,0,1
0.0008640709,-0.0006666363,0,1
0.0009147974,-0.0006727948,0,1
0.0009402417,-0.0006588572,0,1
0.0009159319,-0.0006139652,0,1
0.0008374922,-0.000539091,0,1
0.0007196706,-0.0004454172,0,1
0.0005999042,-0.0003525538,0,1
0.0005177371,-0.0002783279,0,1
0.0004924549,-0.0002368392,0,1
0.0005196818,-0.0002276015,0,1
0.0005786736,-0.0002381357,0,1
0.0006446343,-0.0002535319,0,1
0.0006942263,-0.0002621213,0,1
0.0007057329,-0.0002509389,0,1
0.0006679717,-0.0002138259,0,1
0.0005799701,-0.0001489998,0,1
0.0004535592,-6.083626e-05,0,1
0.0003117519,3.202716e-05,0,1
0.0001817755,0.0001026876,0,1
8.307774e-05,0.0001347766,0,1
2.473423e-05,0.0001349386,0,1
5.86492e-07,0.0001221355,0,1
-8.002969e-06,0.0001138702,0,1
-2.015787e-05,0.000123432,0,1
-5.240886e-05,0.0001566554,0,1
-0.000114804,0.0002030061,0,1
-0.000204102,0.0002470879,0,1
-0.0003100927,0.0002705873,0,1
-0.0004138145,0.000259729,0,1
-0.0004912817,0.0002109473,0,1
-0.0005183466,0.0001351007,0,1
-0.0004924161,4.645098e-05,0,1
-0.0004241867,-3.944364e-05,0,1
-0.0003308371,-0.0001094559,0,1
-0.0002282497,-0.0001590478,0,1
-0.0001258245,-0.0001835197,0,1
-2.761287e-05,-0.0001823853,0,1
6.751948e-05,-0.0001543479,0,1
0.0001516314,-0.0001015147,0,1
0.0002124059,-3.879538e-05,0,1
0.0002368777,1.841368e-05,0,1
0.0002224539,6.200925e-05,0,1
0.0001795066,9.960841e-05,0,1
0.0001226217,0.0001346145,0,1
5.714729e-05,0.0001691344,0,1
-2.712668e-05,0.0002008992,0,1
-0.0001349001,0.0002256952,0,1
-0.0002648765,0.0002427121,0,1
-0.0004040906,0.0002509774,0,1
-0.0005327704,0.0002529222,0,1
-0.0006334129,0.0002568118,0,1
-0.0006988873,0.0002650771,0,1
-0.0007372968,0.0002814457,0,1
-0.0007599859,0.0003015418,0,1
-0.0007680892,0.0003133726,0,1
-0.0007562584,0.0003026763,0,1
-0.0007227109,0.000259729,0,1
-0.0006718224,0.00018291,0,1
-0.0006167202,8.405014e-05,0,1
-0.0005734488,-1.983374e-05,0,1
-0.0005489769,-0.0001146419,0,1
-0.0005355255,-0.0001895161,0,1
-0.0005173742,-0.0002371633,0,1
-0.0004888507,-0.0002480217,0,1
-0.0004556273,-0.0002224154,0,1
-0.0004202971,-0.0001702304,0,1
-0.0003807532,-0.0001039456,0,1
-0.0003217614,-3.393342e-05,0,1
-0.0002285739,3.60788e-05,0,1
-9.827335e-05,0.0001081979,0,1
4.402e-05,0.0001798307,0,1
0.0001595726,0.0002396328,0,1
0.000217754,0.0002756114,0,1
0.0002143507,0.0002827423,0,1
0.0001709172,0.0002728562,0,1
0.0001138702,0.0002688046,0,1
6.557468e-05,0.000282256,0,1
3.737532e-05,0.0003133726,0,1
2.359977e-05,0.0003534027,0,1
6.420843e-06,0.0003914881,0,1
-3.117831e-05,0.0004140152,0,1
-0.0001000561,0.0004120704,0,1
-0.0001984297,0.0003900295,0,1
-0.0003147926,0.0003589129,0,1
-0.0004308313,0.0003320101,0,1
-0.0005277464,0.0003146691,0,1
-0.0005831727,0.0003065659,0,1
-0.0005762039,0.0003034866,0,1
-0.0005001953,0.0003004074,0,1
-0.0003698948,0.0002889007,0,1
-0.0002222533,0.0002611876,0,1
-9.551824e-05,0.0002119197,0,1
-1.448558e-05,0.0001470936,0,1
1.938607e-05,7.465034e-05,0,1
2.959619e-05,8.041497e-06,0,1
4.77475e-05,-3.587821e-05,0,1
0.0001065772,-4.462973e-05,0,1
0.0002229401,-1.756482e-05,0,1
0.0003820883,2.943412e-05,0,1
0.0005441537,7.30297e-05,0,1
0.000661327,9.831188e-05,0,1
0.0007146465,0.000105929,0,1
0.0007071915,0.0001090082,0,1
0.0006558168,0.0001124116,0,1
0.0005848321,9.798775e-05,0,1
0.0005117406,4.35338e-05,0,1
0.0004533971,-5.32192e-05,0,1
0.0004302217,-0.0001759026,0,1
0.0004559901,-0.0003026377,0,1
0.0005368608,-0.0004147869,0,1
0.0006668373,-0.0004941989,0,1
0.0008332785,-0.0005377944,0,1
0.001015764,-0.0005535148,0,1
0.001188688,-0.0005585388,0,1
0.001330171,-0.0005679386,0,1
0.001417039,-0.0005856037,0,1
0.001429194,-0.0005985689,0,1
0.001359829,-0.0005873864,0,1
0.001220129,-0.0005355255,0,1
0.001041371,-0.0004316416,0,1
0.0008587227,-0.000273628,0,1
0.0006956849,-6.261898e-05,0,1
0.000557281,0.0002060853,0,1
0.0004323286,0.000522599,0,1
0.000307052,0.0008379783,0,1
0.0001728619,0.00107038,0,1
3.397195e-05,0.001142337,0,1
-9.551824e-05,0.001024678,0,1
-0.0002063709,0.0007577559,0,1
-0.0002972895,0.0004292493,0,1
-0.0003720016,0.0001370455,0,1
-0.0004369898,-4.85193e-05,0,1
-0.0004993849,-0.0001088076,0,1
-0.0005679386,-7.120844e-05,0,1
-0.0006403818,1.290346e-05,0,1
-0.0007095836,9.53947e-05,0,1
-0.0007640376,0.0001466074,0,1
-0.0007974231,0.0001628139,0,1
-0.0008111986,0.0001551968,0,1
-0.0008131433,0.0001419075,0,1
-0.0008076332,0.0001334801,0,1
-0.0007902921,0.0001211631,0,1
-0.0007544757,9.21534e-05,0,1
-0.0007014804,3.867184e-05,0,1
-0.0006384369,-3.879538e-05,0,1
-0.0005703696,-0.0001295519,0,1
-0.0004948471,-0.0002193361,0,1
-0.0004112214,-0.0002946965,0,1
-0.0003262992,-0.0003476919,0,1
-0.0002548284,-0.0003702189,0,1
-0.0002053985,-0.0003527159,0,1
-0.0001699062,-0.0002896725,0,1
-0.0001342519,-0.0001890299,0,1
-9.341139e-05,-7.380149e-05,0,1
-5.435365e-05,2.376183e-05,0,1
-3.360929e-05,7.497447e-05,0,1
-4.819517e-05,5.795762e-05,0,1
-9.989401e-05,-2.437157e-05,0,1
-0.0001639098,-0.0001496481,0,1
-0.0002100984,-0.0002823795,0,1
-0.0002261429,-0.000390315,0,1
-0.0002224154,-0.0004520619,0,1
-0.0002173914,-0.0004585445,0,1
-0.0002217671,-0.0004168937,0,1
-0.0002274394,-0.0003523917,0,1
-0.0002154466,-0.000295993,0,1
-0.0001716889,-0.0002713591,0,1
-0.0001003802,-0.0002864312,0,1
-2.664048e-05,-0.0003337542,0,1
2.473423e-05,-0.0004060354,0,1
4.612685e-05,-0.0004941989,0,1
4.839576e-05,-0.0005877105,0,1
4.953022e-05,-0.0006723086,0,1
6.298164e-05,-0.000732759,0,1
8.907416e-05,-0.0007637134,0,1
0.0001148425,-0.0007693857,0,1
0.0001163011,-0.0007569068,0,1
7.416415e-05,-0.0007272488,0,1
-8.165035e-06,-0.0006765223,0,1
-0.0001044318,-0.0005985689,0,1
-0.0001849783,-0.000489661,0,1
-0.0002329496,-0.0003527159,0,1
-0.0002509389,-0.0001995642,0,1
-0.0002478596,-4.544006e-05,0,1
-0.0002298704,0.0001020394,0,1
-0.0001981056,0.0002585945,0,1
-0.0001587237,0.0004469145,0,1
-0.000119828,0.0006772094,0,1
-8.611845e-05,0.0009337591,0,1
-5.937768e-05,0.001174264,0,1
-4.495386e-05,0.001344595,0,1
-4.625038e-05,0.001397915,0,1
-5.678463e-05,0.001317855,0,1
-6.245691e-05,0.001129372,0,1
-4.625038e-05,0.0008854635,0,1
2.623614e-07,0.0006438239,0,1
7.157111e-05,0.000448211,0,1
0.0001543865,0.0003206656,0,1
0.0002360674,0.0002560015,0,1
0.0003183966,0.0002404432,0,1
0.000406074,0.000259729,0,1
0.0004955341,0.0002971661,0,1
0.000572191,0.0003339549,0,1
0.0006206486,0.0003522683,0,1
0.0006336138,0.0003402755,0,1
0.0006086557,0.000299435,0,1
0.0005496639,0.0002391467,0,1
0.0004595556,0.0001748067,0,1
0.0003444891,0.0001200286,0,1
0.0002106232,8.437427e-05,0,1
6.606088e-05,6.914012e-05,0,1
-8.320128e-05,6.071273e-05,0,1
-0.0002235498,4.337174e-05,0,1
-0.0003442885,2.623614e-07,0,1
-0.0004376381,-6.861539e-05,0,1
-0.0005023021,-0.0001478653,0,1
-0.000541684,-0.0002159328,0,1
-0.0005543251,-0.0002626076,0,1
-0.0005345531,-0.0002930758,0,1
-0.0004776682,-0.0003146305,0,1
-0.0003917736,-0.0003309991,0,1
-0.0002911311,-0.0003410472,0,1
-0.0001974573,-0.0003439643,0,1
-0.0001318209,-0.0003392644,0,1
-0.0001026491,-0.0003262992,0,1
-0.0001078352,-0.00030831,0,1
-0.0001329553,-0.0002937241,0,1
-0.00015451,-0.0002946965,0,1
-0.0001498101,-0.000318358,0,1
-0.0001133454,-0.0003685983,0,1
-5.565017e-05,-0.0004394208,0,1
8.689758e-06,-0.0005155915,0,1
6.557468e-05,-0.0005716661,0,1
0.0001065772,-0.0005873864,0,1
0.0001323456,-0.0005608077,0,1
0.0001492004,-0.000504409,0,1
0.0001600588,-0.0004311555,0,1
0.0001628139,-0.0003510952,0,1
0.0001645966,-0.000271035,0,1
0.0001749688,-0.0001959987,0,1
0.0001981441,-0.0001269589,0,1
0.0002323399,-6.586029e-05,0,1
0.0002765838,-1.173047e-05,0,1
0.0003323342,4.256141e-05,0,1
0.0004054258,0.0001043083,0,1
0.0005037994,0.0001736723,0,1
0.0006219451,0.0002414156,0,1
0.0007415494,0.0003004074,0,1
0.0008455954,0.0003499994,0,1
0.0009219283,0.0003918123,0,1
0.0009715204,0.0004264942,0,1
0.001009444,0.0004530729,0,1
0.001053525,0.0004686312,0,1
0.001105062,0.0004731691,0,1
0.001141689,0.0004615004,0,1
0.001126779,0.0004277907,0,1
0.001032133,0.0003723644,0,1
0.0008535367,0.000302028,0,1
0.0006120591,0.000230071,0,1
0.0003467581,0.0001702689,0,1
0.0001020394,0.0001268354,0,1
-8.757704e-05,9.652917e-05,0,1
-0.0002062088,7.108491e-05,0,1
-0.0002574215,4.418206e-05,0,1
-0.0002564491,1.808955e-05,0,1
-0.0002233878,-4.437533e-06,0,1
-0.000176713,-2.680255e-05,0,1
-0.0001381414,-5.22468e-05,0,1
-0.0001235555,-7.623246e-05,0,1
-0.0001350622,-9.29252e-05,0,1
-0.0001686097,-9.859748e-05,0,1
-0.0002201465,-9.405965e-05,0,1
-0.0002877277,-8.498399e-05,0,1
-0.0003690845,-8.044617e-05,0,1
-0.0004564377,-7.752899e-05,0,1
-0.0005306636,-6.618442e-05,0,1
-0.0005692351,-4.236082e-05,0,1
-0.0005593491,-1.010982e-05,0,1
-0.0005089468,2.278944e-05,0,1
-0.0004408794,4.693717e-05,0,1
-0.0003786463,5.374392e-05,0,1
-0.0003361852,3.753739e-05,0,1
-0.0003152788,-1.034161e-06,0,1
-0.0003120375,-5.192267e-05,0,1
-0.0003180339,-0.0001002181,0,1
-0.0003251648,-0.0001379794,0,1
-0.0003219235,-0.0001640719,0,1
-0.0002987481,-0.0001828714,0,1
-0.0002504527,-0.0001976194,0,1
-0.0001831956,-0.0002143121,0,1
-0.0001067007,-0.0002310048,0,1
-3.717473e-05,-0.0002533699,0,1
1.468618e-05,-0.0002882139,0,1
3.753739e-05,-0.0003407231,0,1
2.116879e-05,-0.0004073319,0,1
-3.474375e-05,-0.0004784786,0,1
-0.000117235,-0.000546546,0,1
-0.0002073433,-0.0006000275,0,1
-0.000286107,-0.0006262821,0,1
-0.0003395886,-0.0006134789,0,1
-0.0003673017,-0.0005588629,0,1
-0.0003757291,-0.0004749131,0,1
-0.0003718396,-0.0003788084,0,1
-0.0003682741,-0.0002875656,0,1
-0.0003752429,-0.0002133397,0,1
-0.0003940425,-0.0001559686,0,1
-0.0004147869,-0.0001044318,0,1
-0.0004269418,-4.592625e-05,0,1
-0.0004288866,2.003433e-05,0,1
-0.0004259694,8.534666e-05,0,1
-0.0004309934,0.0001370455,0,1
-0.0004512515,0.0001654069,0,1
-0.0004831784,0.000180479,0,1
-0.0005100812,0.0002060853,0,1
-0.000514295,0.0002628082,0,1
-0.00048723,0.0003506476,0,1
-0.0004298589,0.0004495075,0,1
-0.0003553089,0.0005263265,0,1
-0.0002843243,0.0005619809,0,1
-0.0002360289,0.0005694359,0,1
-0.0002212809,0.0005877494,0,1
-0.0002381357,0.0006470652,0,1
-0.0002755728,0.0007396046,0,1
-0.0003131719,0.0008211235,0,1
-0.0003316474,0.0008446231,0,1
-0.0003194925,0.0007947069,0,1
-0.0002721694,0.0006943883,0,1
-0.0001951884,0.0005819149,0,1
-0.000107349,0.0004862963,0,1
-3.279896e-05,0.0004211461,0,1
1.322759e-05,0.0003803056,0,1
3.251336e-05,0.0003530786,0,1
3.089271e-05,0.0003308757,0,1
6.744974e-06,0.0003077003,0,1
-3.571614e-05,0.0002775562,0,1
-8.206682e-05,0.0002383363,0,1
-0.0001183694,0.0001898788,0,1
-0.0001340898,0.0001420695,0,1
-0.0001285796,0.0001052807,0,1
-0.0001036215,9.101894e-05,0,1
-6.342931e-05,0.0001086841,0,1
-1.682422e-06,0.0001524417,0,1
8.696731e-05,0.0002078681,0,1
0.0002059233,0.0002551911,0,1
0.0003556717,0.0002829043,0,1
0.0005217887,0.0002866318,0,1
0.0006856368,0.0002666978,0,1
0.0008287407,0.0002284504,0,1
0.0009391072,0.0001783722,0,1
0.00101074,0.0001265113,0,1
0.001045746,8.032264e-05,0,1
0.00105547,4.985435e-05,0,1
0.001054984,4.35338e-05,0,1
0.001044612,6.087479e-05,0,1
0.001019816,9.231547e-05,0,1
0.0009810822,0.0001231079,0,1
0.0009353797,0.0001404489,0,1
0.0008796292,0.0001396385,0,1
0.000804917,0.0001227837,0,1
0.0006992503,9.037068e-05,0,1
0.0005580913,4.645098e-05,0,1
0.000396188,-1.075808e-05,0,1
0.00024255,-8.44978e-05,0,1
0.0001197045,-0.0001750923,0,1
4.191315e-05,-0.000285945,0,1
2.207145e-06,-0.0004118697,0,1
-1.805102e-05,-0.0005407116,0,1
-4.236082e-05,-0.0006578848,0,1
-8.271508e-05,-0.0007549619,0,1
-0.0001365208,-0.0008251361,0,1
-0.0001856265,-0.0008632215,0,1
-0.0002057227,-0.0008632215,0,1
-0.0001874093,-0.000827243,0,1
-0.0001386276,-0.0007654962,0,1
-7.347736e-05,-0.0006912703,0,1
-2.81688e-06,-0.0006175305,0,1
6.897806e-05,-0.0005510838,0,1
0.0001341283,-0.0004899852,0,1
0.0001696206,-0.0004356933,0,1
0.0001513072,-0.0003891806,0,1
7.951231e-05,-0.000350447,0,1
-2.145439e-05,-0.0003141443,0,1
-0.0001164247,-0.0002703867,0,1
-0.0001786577,-0.0002130156,0,1
-0.0001994021,-0.000134738,0,1
-0.0001925954,-3.814712e-05,0,1
-0.0001822232,7.20573e-05,0,1
-0.0001912988,0.0001846927,0,1
-0.0002284118,0.0002880904,0,1
-0.0002895104,0.0003710679,0,1
-0.0003593606,0.0004230909,0,1
-0.0004272659,0.0004349216,0,1
-0.0004791268,0.0004052637,0,1
-0.0005003574,0.0003425444,0,1
-0.0004755614,0.0002668598,0,1
-0.0003984183,0.0001960373,0,1
-0.000278652,0.0001354248,0,1
-0.0001402483,8.453633e-05,0,1
-1.805102e-05,3.721326e-05,0,1
5.260946e-05,-8.002969e-06,0,1
5.925414e-05,-4.997789e-05,0,1
1.808955e-05,-8.628052e-05,0,1
-4.122636e-05,-0.0001054042,0,1
-9.308726e-05,-9.859748e-05,0,1
-0.0001251762,-6.407757e-05,0,1
-0.0001366828,-8.651231e-06,0,1
-0.0001216107,5.19612e-05,0,1
-7.817725e-05,9.993253e-05,0,1
-1.529591e-05,0.000123432,0,1
4.904402e-05,0.0001263492,0,1
9.620504e-05,0.0001203528,0,1
0.0001171115,0.0001077117,0,1
0.0001104668,7.999851e-05,0,1
8.680524e-05,3.040651e-05,0,1
6.654708e-05,-3.441962e-05,0,1
6.119892e-05,-9.892161e-05,0,1
7.108491e-05,-0.0001514308,0,1
8.761557e-05,-0.0001833576,0,1
9.733949e-05,-0.0001948643,0,1
9.296373e-05,-0.0001878955,0,1
7.6271e-05,-0.0001637477,0,1
5.455425e-05,-0.0001293899,0,1
3.98063e-05,-9.762509e-05,0,1
4.239934e-05,-7.590833e-05,0,1
5.358185e-05,-6.278104e-05,0,1
5.828175e-05,-4.625038e-05,0,1
4.855783e-05,-1.772689e-05,0,1
2.441009e-05,1.889987e-05,0,1
-5.734056e-06,5.682316e-05,0,1
-3.004385e-05,9.26396e-05,0,1
-3.085418e-05,0.0001294284,0,1
2.04508e-06,0.00018291,0,1
6.751948e-05,0.0002715597,0,1
0.0001592484,0.0003944053,0,1
0.000267346,0.0005268127,0,1
0.0003751195,0.0006386379,0,1
0.000460528,0.0007031399,0,1
0.0004968306,0.0007052467,0,1
0.0004662003,0.0006400964,0,1
0.0003644232,0.0005204921,0,1
0.0002057612,0.0003710679,0,1
1.144487e-05,0.0002216436,0,1
-0.0001914609,9.004655e-05,0,1
-0.0003825359,-1.691656e-05,0,1
-0.0005475183,-0.0001042698,0,1
-0.0006766844,-0.000174444,0,1
-0.0007564205,-0.0002261429,0,1
-0.0007815406,-0.0002541802,0,1
-0.0007585274,-0.0002491561,0,1
-0.0007042355,-0.0002062088,0,1
-0.0006418404,-0.000134576,0,1
-0.0005870623,-6.245691e-05,0,1
-0.0005384427,-1.853722e-05,0,1
-0.000479613,-1.059602e-05,0,1
-0.0003956632,-2.761287e-05,0,1
-0.0002865932,-5.516398e-05,0,1
-0.0001775233,-8.579432e-05,0,1
-0.0001026491,-0.0001209625,0,1
-8.806324e-05,-0.0001653684,0,1
-0.0001394379,-0.0002152845,0,1
-0.000236353,-0.0002593663,0,1
-0.0003438023,-0.000286107,0,1
-0.0004288866,-0.0002896725,0,1
-0.0004781544,-0.0002723315,0,1
-0.0004862577,-0.0002394322,0,1
-0.0004561135,-0.0002031296,0,1
-0.0003906392,-0.0001760647,0,1
-0.0002998826,-0.0001632615,0,1
-0.0002005366,-0.0001592099,0,1
-0.0001021629,-0.0001559686,0,1
-1.059602e-05,-0.0001535376,0,1
7.238143e-05,-0.0001574272,0,1
0.0001454729,-0.0001750923,0,1
0.0002107852,-0.0002024813,0,1
0.0002675081,-0.0002276015,0,1
0.0003140208,-0.0002373254,0,1
0.0003527545,-0.0002241981,0,1
0.0003817642,-0.0001938919,0,1
0.0003939191,-0.0001585616,0,1
0.0003867882,-0.0001300382,0,1
0.0003723644,-0.0001165867,0,1
0.0003820883,-0.0001152902,0,1
0.0004425387,-0.0001151281,0,1
0.0005495019,-0.0001058904,0,1
0.0006686199,-8.271508e-05,0,1
0.0007609973,-4.770897e-05,0,1
0.0008015137,-7.192643e-06,0,1
0.0007832003,2.959619e-05,0,1
0.0007178878,5.050261e-05,0,1
0.000626807,5.017848e-05,0,1
0.0005224369,3.056858e-05,0,1
0.0004094774,-3.303076e-06,0,1
0.0002934386,-4.187462e-05,0,1
0.0001882582,-7.801519e-05,0,1
0.00010366,-0.0001071869,0,1
4.547859e-05,-0.000127283,0,1
1.468618e-05,-0.0001305243,0,1
3.017472e-06,-0.0001107524,0,1
-2.654814e-06,-7.153257e-05,0,1
-7.354709e-06,-2.89094e-05,0,1
2.693341e-06,-7.100305e-07,0,1
4.337174e-05,9.500085e-06,0,1
0.0001145184,1.047248e-05,0,1
0.0001919856,1.760335e-05,0,1
0.0002490327,4.45062e-05,0,1
0.0002696149,9.328786e-05,0,1
0.0002496809,0.0001511452,0,1
0.0001916615,0.0001999268,0,1
0.0001163011,0.0002239125,0,1
4.418206e-05,0.0002106232,0,1
-1.853722e-05,0.0001633001,0,1
-8.060823e-05,9.717743e-05,0,1
-0.000144462,3.705119e-05,0,1
-0.0002000504,9.500085e-06,0,1
-0.0002269532,3.267542e-05,0,1
-0.00021415,0.0001062531,0,1
-0.0001684476,0.0002221298,0,1
-0.0001084835,0.0003584268,0,1
-5.64605e-05,0.0004919686,0,1
-2.356124e-05,0.0006021731,0,1
-1.092015e-05,0.0006746164,0,1
-1.886135e-05,0.0006982779,0,1
-4.511593e-05,0.0006707268,0,1
-8.109443e-05,0.0005963388,0,1
-0.0001146419,0.0004861343,0,1
-0.0001316588,0.0003584268,0,1
-0.0001212866,0.0002373639,0,1
-8.919769e-05,0.0001435281,0,1
-5.937768e-05,8.145709e-05,0,1
-5.386745e-05,4.434413e-05,0,1
-7.785312e-05,1.387585e-05,0,1
-0.0001224211,-2.129233e-05,0,1
-0.0001702304,-6.342931e-05,0,1
-0.0002062088,-0.0001050801,0,1
-0.0002276015,-0.0001379794,0,1
-0.0002452666,-0.0001579134,0,1
-0.0002695764,-0.000166827,0,1
-0.000303286,-0.0001608306,0,1
-0.0003402368,-0.000134576,0,1
-0.0003707051,-9.081835e-05,0,1
-0.0003909633,-3.522994e-05,0,1
-0.00039777,1.889987e-05,0,1
-0.0003909633,5.974033e-05,0,1
-0.0003734602,7.886404e-05,0,1
-0.0003488263,7.221937e-05,0,1
-0.0003164132,4.061663e-05,0,1
-0.0002726556,-7.192643e-06,0,1
-0.000216581,-5.516398e-05,0,1
-0.0001515928,-8.952183e-05,0,1
-8.40116e-05,-0.0001031353,0,1
-2.291298e-05,-9.405965e-05,0,1
1.857574e-05,-7.088431e-05,0,1
3.299956e-05,-4.219875e-05,0,1
1.857574e-05,-1.772689e-05,0,1
-2.015787e-05,2.623614e-07,0,1
-7.801519e-05,1.371378e-05,0,1
-0.0001436516,3.105477e-05,0,1
-0.00019924,6.184718e-05,0,1
-0.000231491,0.0001083599,0,1
-0.0002361909,0.0001576278,0,1
-0.000213988,0.0001900409,0,1
-0.0001689338,0.0001916615,0,1
-0.0001096179,0.000158114,0,1
-5.192267e-05,9.620504e-05,0,1
-1.140634e-05,1.841368e-05,0,1
6.582909e-06,-5.905355e-05,0,1
6.744974e-06,-0.0001250141,0,1
7.069105e-06,-0.0001773612,0,1
1.97102e-05,-0.0002225774,0,1
5.066468e-05,-0.0002652006,0,1
0.0001041462,-0.0003073376,0,1
0.0001850168,-0.0003459091,0,1
0.0003028383,-0.0003770257,0,1
0.000458259,-0.000402794,0,1
0.0006366931,-0.0004284004,0,1
0.0008112376,-0.0004549791,0,1
0.000946076,-0.0004742648,0,1
0.001013657,-0.0004762096,0,1
0.001004744,-0.0004546549,0,1
0.0009323005,-0.0004164075,0,1
0.0008237166,-0.0003788084,0,1
0.0007159431,-0.0003613053,0,1
0.000638962,-0.000370381,0,1
0.0006012007,-0.0003942046,0,1
0.0005911527,-0.0004141386,0,1
0.0005880735,-0.0004097628,0,1
0.0005663567,-0.0003630881,0,1
0.0005060683,-0.0002635799,0,1
0.0004051016,-0.0001083214,0,1
0.0002735045,9.101894e-05,0,1
0.0001328318,0.0003067279,0,1
4.47606e-06,0.0005013684,0,1
-9.373552e-05,0.0006360448,0,1
-0.0001562927,0.0006922815,0,1
-0.0001953505,0.0006744543,0,1
-0.0002285739,0.0006063868,0,1
-0.0002718453,0.000514982,0,1
-0.0003373197,0.000428277,0,1
-0.0004269418,0.0003660439,0,1
-0.0005309877,0.0003396272,0,1
-0.0006251476,0.0003436788,0,1
-0.0006888393,0.0003650715,0,1
-0.0007102319,0.0003866261,0,1
-0.0006925668,0.0003927847,0,1
-0.000650754,0.0003790091,0,1
-0.0006013241,0.0003498373,0,1
-0.0005512458,0.0003136967,0,1
-0.0004993849,0.0002799871,0,1
-0.0004483344,0.0002568118,0,1
-0.000397608,0.0002422259,0,1
-0.0003463953,0.0002284504,0,1
-0.0002942103,0.0001958752,0,1
-0.0002425115,0.0001329939,0,1
-0.0001987538,3.867184e-05,0,1
-0.0001658546,-7.882551e-05,0,1
-0.000149486,-0.0002073433,0,1
-0.0001528894,-0.0003344025,0,1
-0.0001707166,-0.0004446069,0,1
-0.0001904885,-0.0005167259,0,1
-0.0002024813,-0.0005382806,0,1
-0.0002047502,-0.0005100812,0,1
-0.0001948643,-0.0004434724,0,1
-0.0001752544,-0.0003553089,0,1
-0.0001528894,-0.0002616352,0,1
-0.0001363587,-0.0001731475,0,1
-0.0001277692,-0.0001003802,0,1
-0.0001302002,-4.770897e-05,0,1
-0.0001488377,-1.464765e-05,0,1
-0.0001825473,1.558884e-06,0,1
-0.0002224154,-3.465141e-06,0,1
-0.0002639041,-3.587821e-05,0,1
-0.0003102548,-9.373552e-05,0,1
-0.0003591985,-0.000164396,0,1
-0.0004008493,-0.0002323013,0,1
-0.0004267797,-0.0002888622,0,1
-0.00042759,-0.0003345645,0,1
-0.0003942046,-0.0003660052,0,1
-0.0003203028,-0.0003801049,0,1
-0.0002149604,-0.0003775118,0,1
-9.503204e-05,-0.000365357,0,1
9.824215e-06,-0.0003528779,0,1
7.708133e-05,-0.0003439643,0,1
0.0001052807,-0.00033813,0,1
0.000121001,-0.000330675,0,1
0.0001642725,-0.0003131719,0,1
0.0002632944,-0.0002794623,0,1
0.000413529,-0.000226467,0,1
0.0005751082,-0.0001525652,0,1
0.0007011951,-4.365734e-05,0,1
0.0007671557,0.0001195424,0,1
0.0007639144,0.0003311998,0,1
0.0007055709,0.0005590637,0,1
0.0006251864,0.0007631041,0,1
0.0005499881,0.0009050734,0,1
0.0004896998,0.0009538552,0,1
0.0004428628,0.0009049114,0,1
0.0003989431,0.0007791486,0,1
0.0003396272,0.0006131936,0,1
0.0002550291,0.0004486972,0,1
0.0001644345,0.0003248792,0,1
0.0001072255,0.0002694529,0,1
0.0001117633,0.0002914938,0,1
0.0001746447,0.0003736609,0,1
0.0002610255,0.0004817585,0,1
0.0003219621,0.000574622,0,1
0.0003183966,0.0006208107,0,1
0.0002464396,0.000606873,0,1
0.0001404489,0.0005402642,0,1
4.77475e-05,0.0004449697,0,1
-1.844488e-06,0.0003452995,0,1
-3.14101e-06,0.0002660495,0,1
3.170304e-05,0.0002203471,0,1
8.46984e-05,0.0002080301,0,1
0.0001398006,0.0002190506,0,1
0.0001882582,0.0002406053,0,1
0.0002239125,0.0002619979,0,1
0.0002410915,0.0002720459,0,1
0.0002456293,0.0002610255,0,1
0.0002422259,0.00022764,0,1
0.0002312055,0.0001751309,0,1
0.0002030061,0.0001086841,0,1
0.0001543865,3.753739e-05,0,1
8.648112e-05,-2.712668e-05,0,1
1.355172e-05,-7.671866e-05,0,1
-5.176061e-05,-0.0001091317,0,1
-9.940781e-05,-0.0001295519,0,1
-0.0001203142,-0.0001483515,0,1
-0.0001054042,-0.0001788198,0,1
-4.770897e-05,-0.0002235498,0,1
5.504044e-05,-0.0002702246,0,1
0.000195389,-0.0003063652,0,1
0.0003438409,-0.0003248407,0,1
0.0004616624,-0.0003321336,0,1
0.0005154681,-0.0003365093,0,1
0.0004960203,-0.0003415334,0,1
0.0004216323,-0.0003540124,0,1
0.0003256896,-0.0003805911,0,1
0.0002339606,-0.0004259694,0,1
0.0001553589,-0.0004914437,0,1
8.907416e-05,-0.0005658317,0,1
3.154097e-05,-0.0006314681,0,1
-1.643037e-05,-0.0006726327,0,1
-5.402952e-05,-0.0006844635,0,1
-8.919769e-05,-0.0006703638,0,1
-0.000134576,-0.0006381128,0,1
-0.0001922712,-0.0005974344,0,1
-0.0002522354,-0.0005557837,0,1
-0.0002990722,-0.0005073262,0,1
-0.0003318095,-0.0004413656,0,1
-0.0003569296,-0.0003553089,0,1
-0.0003838324,-0.0002582318,0,1
-0.0004147869,-0.0001728234,0,1
-0.0004429862,-0.0001188556,0,1
-0.0004574101,-0.0001054042,0,1
-0.0004502792,-0.0001259865,0,1
-0.0004217557,-0.0001648822,0,1
-0.0003844807,-0.0002003745,0,1
-0.0003575778,-0.0002186879,0,1
-0.0003579019,-0.000213988,0,1
-0.0003917736,-0.0001848162,0,1
-0.0004450931,-0.0001353863,0,1
-0.0004964678,-7.574627e-05,0,1
-0.0005258016,-1.643037e-05,0,1
-0.0005240189,3.834771e-05,0,1
-0.0004935506,9.26396e-05,0,1
-0.0004437966,0.0001529279,0,1
-0.0003867496,0.0002182402,0,1
-0.0003318095,0.000282094,0,1
-0.0002883759,0.0003324963,0,1
-0.0002609869,0.0003582647,0,1
-0.0002485079,0.0003508097,0,1
-0.0002468872,0.0003089969,0,1
-0.0002530457,0.0002383363,0,1
-0.0002708729,0.0001513072,0,1
-0.0003011791,5.925414e-05,0,1
-0.0003298647,-2.242678e-05,0,1
-0.0003378059,-8.482193e-05,0,1
-0.0003091203,-0.0001227452,0,1
-0.0002392702,-0.0001342519,0,1
-0.000144462,-0.0001152902,0,1
-5.257093e-05,-6.278104e-05,0,1
9.338019e-06,1.484824e-05,0,1
2.003433e-05,0.0001002567,0,1
-1.805102e-05,0.0001736723,0,1
-7.736692e-05,0.0002174299,0,1
-0.0001204763,0.0002172679,0,1
-0.000127121,0.0001709172,0,1
-9.924574e-05,9.474644e-05,0,1
-6.229485e-05,1.468618e-05,0,1
-4.47918e-05,-5.208474e-05,0,1
-5.629844e-05,-0.0001016767,0,1
-8.239095e-05,-0.0001402483,0,1
-9.697683e-05,-0.000174282,0,1
-7.039812e-05,-0.000206533,0,1
3.341602e-06,-0.000228898,0,1
0.000105929,-0.0002347323,0,1
0.0002098128,-0.0002229016,0,1
0.0002900352,-0.000196647,0,1
0.0003380065,-0.0001616409,0,1
0.0003597233,-0.0001269589,0,1
0.0003666921,-9.535618e-05,0,1
0.0003634508,-6.197072e-05,0,1
0.0003503235,-1.480971e-05,0,1
0.0003274723,6.249545e-05,0,1
0.0002978143,0.000177886,0,1
0.0002613496,0.0003384927,0,1
0.0002219677,0.0005535535,0,1
0.0001811273,0.0008162616,0,1
0.0001409351,0.001082859,0,1
9.814982e-05,0.001273611,0,1
5.293359e-05,0.001309103,0,1
1.047248e-05,0.001167296,0,1
-1.821308e-05,0.000893891,0,1
-2.826114e-05,0.00057446,0,1
-2.518189e-05,0.0002890628,0,1
-2.161646e-05,7.805372e-05,0,1
-3.069211e-05,-5.176061e-05,0,1
-5.305713e-05,-0.0001159385,0,1
-8.174268e-05,-0.0001323071,0,1
-0.0001063766,-0.000122097,0,1
-0.0001173971,-0.000102325,0,1
-0.0001050801,-8.303922e-05,0,1
-6.44017e-05,-6.278104e-05,0,1
8.203562e-06,-3.749886e-05,0,1
0.0001081979,-2.330684e-06,0,1
0.0002130541,3.964424e-05,0,1
0.0002901973,7.52986e-05,0,1
0.0003133726,9.31258e-05,0,1
0.0002830664,9.588091e-05,0,1
0.0002247229,9.020862e-05,0,1
0.0001712413,8.599492e-05,0,1
0.0001435281,8.518459e-05,0,1
0.0001445005,8.129502e-05,0,1
0.0001634622,6.233338e-05,0,1
0.0001842065,2.100672e-05,0,1
0.0001999268,-3.798505e-05,0,1
0.0002054371,-0.0001015147,0,1
0.0001986303,-0.0001561307,0,1
0.0001782101,-0.0001950263,0,1
0.0001440143,-0.0002183637,0,1
9.863601e-05,-0.0002310048,0,1
5.504044e-05,-0.0002371633,0,1
2.894792e-05,-0.0002428356,0,1
3.121684e-05,-0.0002514251,0,1
6.006447e-05,-0.0002629317,0,1
0.0001000946,-0.0002731418,0,1
0.0001367214,-0.0002791382,0,1
0.0001543865,-0.0002789762,0,1
0.0001441764,-0.0002724935,0,1
0.0001093323,-0.0002643903,0,1
6.525056e-05,-0.0002595283,0,1
3.073064e-05,-0.0002609869,0,1
1.663096e-05,-0.0002705488,0,1
1.808955e-05,-0.0002903207,0,1
2.311357e-05,-0.0003228959,0,1
2.359977e-05,-0.0003613053,0,1
1.938607e-05,-0.0004023079,0,1
1.095867e-05,-0.0004405553,0,1
-3.303076e-06,-0.000467296,0,1
-1.918548e-05,-0.0004750752,0,1
-3.053005e-05,-0.0004554653,0,1
-2.599222e-05,-0.0003998769,0,1
2.531276e-06,-0.0003084721,0,1
5.293359e-05,-0.0001911368,0,1
0.0001101427,-6.035007e-05,0,1
0.0001540623,7.011252e-05,0,1
0.0001717275,0.0001837203,0,1
0.0001602208,0.0002652392,0,1
0.000123432,0.0003052694,0,1
7.189524e-05,0.0003054314,0,1
1.857574e-05,0.0002819319,0,1
-2.275091e-05,0.0002525981,0,1
-4.041603e-05,0.0002290986,0,1
-3.166451e-05,0.0002161334,0,1
2.207145e-06,0.0002166196,0,1
4.580272e-05,0.0002268297,0,1
8.291568e-05,0.00024255,0,1
0.0001004187,0.000259891,0,1
8.340187e-05,0.0002736666,0,1
2.700314e-05,0.0002829043,0,1
-5.22468e-05,0.0002869559,0,1
-0.0001214487,0.0002856594,0,1
-0.0001483515,0.0002743149,0,1
-0.0001212866,0.0002513016,0,1
-4.398147e-05,0.0002137024,0,1
6.687121e-05,0.0001618415,0,1
0.0001838824,9.620504e-05,0,1
0.0002832284,2.197911e-05,0,1
0.0003491891,-5.662256e-05,0,1
0.0003804677,-0.0001280934,0,1
0.0003809539,-0.0001794681,0,1
0.0003589129,-0.0002057227,0,1
0.0003274723,-0.0002112329,0,1
0.0002986247,-0.0002057227,0,1
0.0002791768,-0.0001940539,0,1
0.0002691288,-0.0001724993,0,1
0.0002621599,-0.0001310105,0,1
0.0002649151,-5.32192e-05,0,1
0.0002762596,6.751948e-05,0,1
0.0002824181,0.0002195368,0,1
0.0002602152,0.000373823,0,1
0.0001931201,0.0004908342,0,1
8.080883e-05,0.0005368608,0,1
-5.69467e-05,0.0004982892,0,1
-0.0001947022,0.0003919743,0,1
-0.0003172236,0.0002514636,0,1
-0.0004202971,0.0001099806,0,1
-0.0005066779,-1.027188e-05,0,1
-0.0005692351,-0.0001000561,0,1
-0.0005967862,-0.0001522411,0,1
-0.0005909518,-0.0001715269,0,1
-0.0005651835,-0.0001724993,0,1
-0.0005343911,-0.0001715269,0,1
-0.000507002,-0.0001810887,0,1
-0.000487068,-0.0002062088,0,1
-0.0004705373,-0.000238946,0,1
-0.0004471999,-0.0002671454,0,1
-0.0004097628,-0.0002802727,0,1
-0.0003591985,-0.000273628,0,1
-0.0002972895,-0.0002520733,0,1
-0.0002295462,-0.0002222533,0,1
-0.0001614788,-0.0001919471,0,1
-0.0001018388,-0.00016942,0,1
-6.148453e-05,-0.0001580754,0,1
-4.252288e-05,-0.0001606685,0,1
-3.474375e-05,-0.0001820611,0,1
-3.555408e-05,-0.0002259808,0,1
-4.43056e-05,-0.0002807589,0,1
-6.91016e-05,-0.0003237062,0,1
-0.0001152902,-0.0003365093,0,1
-0.0001797922,-0.0003149546,0,1
-0.0002502906,-0.0002643903,0,1
-0.0003115513,-0.0001937298,0,1
-0.0003507711,-0.0001128592,0,1
-0.0003553089,-3.134038e-05,0,1
-0.0003245165,3.883391e-05,0,1
-0.0002681178,8.696731e-05,0,1
-0.0002011848,0.0001106288,0,1
-0.0001373311,0.0001156529,0,1
-8.190475e-05,0.0001180839,0,1
-3.409549e-05,0.0001310491,0,1
8.527692e-06,0.0001657311,0,1
4.790957e-05,0.0002269918,0,1
8.437427e-05,0.0003026763,0,1
0.0001143563,0.0003769022,0,1
0.0001351007,0.0004464283,0,1
0.0001467694,0.0005200059,0,1
0.0001540623,0.0006023352,0,1
0.0001641104,0.0006854748,0,1
0.0001835583,0.0007460872,0,1
0.0002164575,0.000755325,0,1
0.0002584324,0.000695847,0,1
0.000304459,0.0005712186,0,1
0.0003472443,0.0004075326,0,1
0.0003845193,0.0002404432,0,1
0.0004119083,9.717743e-05,0,1
0.0004216323,-7.354709e-06,0,1
0.0004018603,-6.877746e-05,0,1
0.0003449753,-9.486997e-05,0,1
0.0002527602,-0.0001028112,0,1
0.000133318,-0.000112373,0,1
-1.034161e-06,-0.0001305243,0,1
-0.000137007,-0.0001540238,0,1
-0.0002645523,-0.0001733096,0,1
-0.0003767015,-0.0001802784,0,1
-0.0004758855,-0.0001689338,0,1
-0.0005622663,-0.0001324691,0,1
-0.0006283889,-6.116039e-05,0,1
-0.0006590193,4.904402e-05,0,1
-0.0006423265,0.0001830721,0,1
-0.0005729626,0.0003041349,0,1
-0.0004549791,0.0003700955,0,1
-0.0003052308,0.0003603715,0,1
-0.0001447861,0.0002850112,0,1
1.014835e-05,0.0001746447,0,1
0.0001445005,6.298164e-05,0,1
0.0002454672,-3.036798e-05,0,1
0.0003138588,-9.892161e-05,0,1
0.0003582647,-0.0001423551,0,1
0.0003879227,-0.0001677994,0,1
0.0004015361,-0.0001840059,0,1
0.0003991052,-0.00019924,0,1
0.0003835469,-0.0002170672,0,1
0.0003644232,-0.0002373254,0,1
0.0003436788,-0.0002567732,0,1
0.0003104554,-0.0002705488,0,1
0.0002560015,-0.000276059,0,1
0.0001837203,-0.000271197,0,1
0.0001005808,-0.0002583939,0,1
2.34377e-05,-0.0002429977,0,1
-2.664048e-05,-0.0002326255,0,1
-4.252288e-05,-0.000236353,0,1
-2.583016e-05,-0.0002564491,0,1
1.387585e-05,-0.000281083,0,1
7.52986e-05,-0.0002982619,0,1
0.0001539003,-0.0003039342,0,1
0.000237526,-0.0003031239,0,1
0.0003138588,-0.0003055549,0,1
0.0003700955,-0.0003170615,0,1
0.0003950536,-0.0003352128,0,1
0.0003895433,-0.0003551469,0,1
0.0003650715,-0.0003692465,0,1
0.0003371962,-0.0003708672,0,1
0.000311914,-0.0003583881,0,1
0.0002910076,-0.0003369955,0,1
0.0002704253,-0.000313334,0,1
0.000250005,-0.0002925897,0,1
0.0002367157,-0.0002752487,0,1
0.0002383363,-0.0002564491,0,1
0.0002513016,-0.0002311669,0,1
0.0002551911,-0.0001930815,0,1
0.0002308813,-0.0001366828,0,1
0.0001751309,-6.099833e-05,0,1
9.863601e-05,2.586868e-05,0,1
1.501031e-05,0.0001119254,0,1
-6.731888e-05,0.0001921477,0,1
-0.0001455964,0.0002632944,0,1
-0.0002130156,0.0003214759,0,1
-0.0002596904,0.0003606957,0,1
-0.0002797865,0.0003796573,0,1
-0.0002671454,0.0003833848,0,1
-0.0002170672,0.0003743092,0,1
-0.0001365208,0.0003587509,0,1
-4.300908e-05,0.0003461098,0,1
3.364782e-05,0.0003485408,0,1
7.30297e-05,0.0003637749,0,1
7.610894e-05,0.0003785229,0,1
5.358185e-05,0.000373823,0,1
1.808955e-05,0.0003410858,0,1
-2.550602e-05,0.0002880904,0,1
-6.81292e-05,0.0002278021,0,1
-0.0001018388,0.0001707551,0,1
-0.0001165867,0.0001253768,0,1
-0.0001135075,9.977047e-05,0,1
-0.0001039456,9.798775e-05,0,1
-9.827335e-05,0.0001179218,0,1
-0.0001024871,0.0001553589,0,1
-0.000112211,0.000195227,0,1
-0.0001203142,0.0002196988,0,1
-0.0001290658,0.0002213195,0,1
-0.0001477033,0.00021273,0,1
-0.0001759026,0.0002109473,0,1
-0.0002052365,0.0002258573,0,1
-0.0002300324,0.0002585945,0,1
-0.0002540181,0.0002999212,0,1
-0.0002823795,0.0003344411,0,1
-0.0003138202,0.0003438409,0,1
-0.0003481781,0.0003133726,0,1
-0.0003890185,0.0002417397,0,1
-0.0004463896,0.0001404489,0,1
-0.0005240189,2.554455e-05,0,1
-0.0006034309,-8.579432e-05,0,1
-0.000660802,-0.000174282,0,1
-0.0006768464,-0.0002279256,0,1
-0.0006428128,-0.0002441321,0,1
-0.0005619422,-0.000231329,0,1
-0.0004455793,-0.0002102605,0,1
-0.000313334,-0.00019924,0,1
-0.0001901644,-0.0002049123,0,1
-9.389759e-05,-0.0002172293,0,1
-3.63644e-05,-0.0002193361,0,1
-1.853722e-05,-0.0002013469,0,1
-3.312309e-05,-0.0001682856,0,1
-6.294311e-05,-0.0001387897,0,1
-8.790117e-05,-0.0001344139,0,1
-8.336335e-05,-0.0001656925,0,1
-3.749886e-05,-0.000223874,0,1
4.288554e-05,-0.0002878898,0,1
0.0001415833,-0.0003436402,0,1
0.0002383363,-0.0003869116,0,1
0.0003240689,-0.0004177041,0,1
0.0003963501,-0.0004376381,0,1
0.0004535592,-0.0004518998,0,1
0.0004913204,-0.0004582204,0,1
0.0005008822,-0.0004551412,0,1
0.0004668485,-0.0004444448,0,1
0.0003811159,-0.0004277521,0,1
0.0002574601,-0.0004042526,0,1
0.0001201907,-0.000377836,0,1
-3.951337e-06,-0.000343154,0,1
-9.843541e-05,-0.000295993,0,1
-0.000159372,-0.000228898,0,1
-0.0001880575,-0.0001392759,0,1
-0.0001864369,-2.89094e-05,0,1
-0.0001566169,9.669123e-05,0,1
-0.0001088076,0.0002271538,0,1
-5.937768e-05,0.0003512959,0,1
-2.453363e-05,0.0004517764,0,1
-2.307504e-05,0.0005097958,0,1
-6.278104e-05,0.0005119027,0,1
-0.000127283,0.0004660382,0,1
-0.0001874093,0.0003945674,0,1
-0.0002133397,0.0003289309,0,1
-0.0001903264,0.0002926282,0,1
-0.0001219349,0.0002958695,0,1
-2.631635e-05,0.0003289309,0,1
6.946425e-05,0.0003718782,0,1
0.0001472556,0.0004054258,0,1
0.0002015475,0.0004162841,0,1
0.0002360674,0.0003997535,0,1
0.0002581083,0.0003645853,0,1
0.0002767458,0.0003239069,0,1
0.0002897111,0.0002877662,0,1
0.0002937627,0.0002595669,0,1
0.0002937627,0.0002446569,0,1
0.0002966799,0.0002415777,0,1
0.00030689,0.0002448189,0,1
0.0003271482,0.000247412,0,1
0.000356482,0.0002427121,0,1
0.0004046154,0.0002211574,0,1
0.0004798138,0.0001731861,0,1
0.0005751082,9.328786e-05,0,1
0.0006678096,-1.335113e-05,0,1
0.0007290703,-0.0001282554,0,1
0.000740577,-0.0002220912,0,1
0.000708326,-0.0002718453,0,1
0.0006554927,-0.0002775176,0,1
0.0006047662,-0.0002583939,0,1
0.0005723531,-0.0002321393,0,1
0.0005608465,-0.0002032917,0,1
0.0005579292,-0.0001699062,0,1
0.0005413986,-0.0001258245,0,1
0.0004866205,-7.218083e-05,0,1
0.0003806297,-1.918548e-05,0,1
0.0002292607,2.01964e-05,0,1
5.730935e-05,3.883391e-05,0,1
-9.940781e-05,4.223728e-05,0,1
-0.0002126914,4.110282e-05,0,1
-0.0002689281,4.483033e-05,0,1
-0.0002805968,5.682316e-05,0,1
-0.0002844864,7.481241e-05,0,1
-0.0003139823,8.988449e-05,0,1
-0.0003836704,9.442231e-05,0,1
-0.0004869059,8.291568e-05,0,1
-0.0005984068,5.844381e-05,0,1
-0.0006794395,3.154097e-05,0,1
-0.0006984011,1.484824e-05,0,1
-0.0006492953,8.527692e-06,0,1
-0.0005531906,4.80019e-06,0,1
-0.000449955,-1.520357e-06,0,1
-0.0003773498,-1.059602e-05,0,1
-0.0003588744,-2.226472e-05,0,1
-0.000390315,-3.976777e-05,0,1
-0.0004517378,-6.456377e-05,0,1
-0.0005159156,-9.324933e-05,0,1
-0.0005575664,-0.0001258245,0,1
-0.0005625904,-0.0001673132,0,1
-0.0005258016,-0.0002113949,0,1
-0.0004489826,-0.0002472114,0,1
-0.0003389403,-0.0002642282,0,1
-0.0002057227,-0.0002583939,0,1
-6.81292e-05,-0.0002280877,0,1
5.94162e-05,-0.0001823853,0,1
0.0001642725,-0.0001412206,0,1
0.00024255,-0.0001240417,0,1
0.0002936006,-0.0001392759,0,1
0.0003198552,-0.0001773612,0,1
0.0003162898,-0.0002159328,0,1
0.0002738286,-0.0002371633,0,1
0.0001893926,-0.0002378116,0,1
8.129502e-05,-0.0002237119,0,1
-2.339918e-05,-0.0002018331,0,1
-0.0001011905,-0.0001844921,0,1
-0.0001509446,-0.0001890299,0,1
-0.0001823853,-0.0002225774,0,1
-0.0002029675,-0.0002703867,0,1
-0.0002136638,-0.0003071755,0,1
-0.0002099363,-0.0003172236,0,1
-0.0001831956,-0.0002989102,0,1
-0.0001225832,-0.0002673075,0,1
-2.7937e-05,-0.0002405667,0,1
7.837785e-05,-0.0002298704,0,1
0.0001624898,-0.0002408908,0,1
0.0001931201,-0.0002690902,0,1
0.0001626518,-0.0003002067,0,1
9.134307e-05,-0.0003180339,0,1
1.257933e-05,-0.0003125237,0,1
-4.689865e-05,-0.0002804347,0,1
-7.201877e-05,-0.0002280877,0,1
-6.229485e-05,-0.0001679614,0,1
-3.036798e-05,-0.0001126972,0,1
6.420843e-06,-6.991193e-05,0,1
3.462021e-05,-3.360929e-05,0,1
4.628891e-05,1.468618e-05,0,1
3.705119e-05,9.912221e-05,0,1
1.014835e-05,0.0002294227,0,1
-2.129233e-05,0.000398619,0,1
-4.495386e-05,0.0005833735,0,1
-5.791909e-05,0.0007436562,0,1
-6.942573e-05,0.0008358715,0,1
-8.952183e-05,0.0008405714,0,1
-0.0001165867,0.0007700729,0,1
-0.0001455964,0.0006640821,0,1
-0.0001677994,0.0005663567,0,1
-0.0001637477,0.0005094717,0,1
-0.0001152902,0.0005039615,0,1
-2.0482e-05,0.0005420469,0,1
0.0001015532,0.0006039558,0,1
0.0002221298,0.0006707268,0,1
0.0003099692,0.0007287462,0,1
0.0003443271,0.0007705591,0,1
0.0003323342,0.0007932483,0,1
0.0002976523,0.0007916276,0,1
0.0002657254,0.0007629421,0,1
0.0002483844,0.0006989262,0,1
0.0002464396,0.0005981215,0,1
0.0002414156,0.0004686312,0,1
0.0002075439,0.0003250413,0,1
0.0001276457,0.0001842065,0,1
4.638125e-06,5.925414e-05,0,1
-0.0001306864,-4.203669e-05,0,1
-0.0002397564,-0.000112373,0,1
-0.0002896725,-0.000152079,0,1
-0.0002676316,-0.0001707166,0,1
-0.0001865989,-0.0001810887,0,1
-8.174268e-05,-0.0001961608,0,1
4.313994e-06,-0.0002224154,0,1
3.818565e-05,-0.0002626076,0,1
1.355172e-05,-0.0003138202,0,1
-4.252288e-05,-0.0003715154,0,1
-9.308726e-05,-0.000430021,0,1
-0.0001165867,-0.0004852853,0,1
-0.0001159385,-0.0005305015,0,1
-0.0001063766,-0.0005561078,0,1
-0.0001054042,-0.0005609698,0,1
-0.0001199901,-0.0005522182,0,1
-0.0001408965,-0.0005326084,0,1
-0.000147055,-0.0005014918,0,1
-0.0001259865,-0.0004614617,0,1
-8.40116e-05,-0.0004186764,0,1
-3.879538e-05,-0.000380267,0,1
-7.030578e-06,-0.0003476919,0,1
2.369211e-06,-0.0003168994,0,1
-8.002969e-06,-0.0002830278,0,1
-3.539201e-05,-0.0002420253,0,1
-7.493595e-05,-0.0001971332,0,1
-0.0001131834,-0.0001483515,0,1
-0.0001258245,-9.438378e-05,0,1
-8.514606e-05,-3.360929e-05,0,1
2.554455e-05,3.024445e-05,0,1
0.0002067336,8.405014e-05,0,1
0.0004350837,0.0001093323,0,1
0.0006720233,9.507057e-05,0,1
0.0008801154,4.72613e-05,0,1
0.001028892,-1.902341e-05,0,1
0.001105386,-8.757704e-05,0,1
0.001116083,-0.0001485136,0,1
0.001067787,-0.0001906506,0,1
0.000973303,-0.0002019951,0,1
0.0008489988,-0.0001849783,0,1
0.0007084881,-0.0001491618,0,1
0.0005533914,-0.0001110765,0,1
0.0003905157,-8.190475e-05,0,1
0.0002341226,-6.229485e-05,0,1
9.879808e-05,-5.095028e-05,0,1
-6.868513e-06,-4.495386e-05,0,1
-8.093236e-05,-4.300908e-05,0,1
-0.0001285796,-3.944364e-05,0,1
-0.0001582375,-3.231277e-05,0,1
-0.0001737958,-2.874733e-05,0,1
-0.0001809267,-3.944364e-05,0,1
-0.000189192,-7.104638e-05,0,1
-0.0002136638,-0.000122259,0,1
-0.0002655248,-0.0001856265,0,1
-0.0003452609,-0.0002570974,0,1
-0.0004379622,-0.0003340784,0,1
-0.0005112157,-0.0004110594,0,1
-0.0005314739,-0.0004817198,0,1
-0.0004933886,-0.0005326084,0,1
-0.0004180282,-0.0005486528,0,1
-0.0003303509,-0.0005220741,0,1
-0.0002485079,-0.0004480103,0,1
-0.0001833576,-0.0003253268,0,1
-0.0001457585,-0.0001601823,0,1
-0.0001399241,3.769945e-05,0,1
-0.0001656925,0.0002467637,0,1
-0.0002162569,0.0004345975,0,1
-0.000271197,0.0005734875,0,1
-0.0003031239,0.0006577615,0,1
-0.0002937241,0.0006986021,0,1
-0.0002434839,0.0007164293,0,1
-0.0001653684,0.0007292324,0,1
-9.017008e-05,0.0007384702,0,1
-5.062615e-05,0.0007370116,0,1
-6.035007e-05,0.000715619,0,1
-0.0001044318,0.0006629477,0,1
-0.0001515928,0.00057446,0,1
-0.0001759026,0.0004585832,0,1
-0.0001703924,0.0003349273,0,1
-0.000144624,0.0002282883,0,1
-0.0001190177,0.000158114,0,1
-0.0001178833,0.0001247285,0,1
-0.0001541859,0.000115977,0,1
-0.0002191741,0.0001200286,0,1
-0.0002951827,0.0001245665,0,1
-0.000367788,0.0001231079,0,1
-0.000434883,0.0001153287,0,1
-0.0005024642,0.0001056048,0,1
-0.0005796073,9.361199e-05,0,1
-0.0006723086,8.016057e-05,0,1
