EMG1,EMG2,class,user
-0.0003875599,0.0009820546,0,1
-0.0003439643,0.000779959,0,1
-0.0003220855,0.0005133613,0,1
-0.0003264613,0.0002242366,0,1
-0.0003462333,-5.581224e-05,0,1
-0.0003711913,-0.0003052308,0,1
-0.0003872358,-0.0005178604,0,1
-0.0003770257,-0.0006995356,0,1
-0.0003361852,-0.0008664628,0,1
-0.000273628,-0.001031121,0,1
-0.0001948643,-0.001185083,0,1
-0.0001078352,-0.001301932,0,1
-2.275091e-05,-0.001359141,0,1
5.552663e-05,-0.001354117,0,1
0.0001295905,-0.00129626,0,1
0.0002000889,-0.001205179,0,1
0.0002621599,-0.001097406,0,1
0.0003023522,-0.0009815291,0,1
0.0003089969,-0.0008551183,0,1
0.0002827423,-0.0007042355,0,1
0.0002420638,-0.0005107295,0,1
0.0002115956,-0.0002815692,0,1
0.0002111094,-5.69467e-05,0,1
0.0002407673,0.0001154908,0,1
0.0002867939,0.000202682,0,1
0.0003376824,0.0002049509,0,1
0.0003869503,0.0001645966,0,1
0.0004316803,0.000130887,0,1
0.0004665244,0.0001218114,0,1
0.0004809482,0.0001266733,0,1
0.0004657141,0.0001193804,0,1
0.0004188772,7.756752e-05,0,1
0.0003495132,-1.520357e-06,0,1
0.0002764217,-9.924574e-05,0,1
0.0002239125,-0.0001853024,0,1
0.0002039785,-0.0002370013,0,1
0.0002072198,-0.0002496423,0,1
0.0002034923,-0.0002295462,0,1
0.0001573037,-0.0001796301,0,1
5.163707e-05,-9.2439e-05,0,1
-0.0001067007,3.251336e-05,0,1
-0.0002822175,0.0001840444,0,1
-0.0004253211,0.0003402755,0,1
-0.0005026262,0.000480462,0,1
-0.000511864,0.0005877494,0,1
-0.0004890127,0.0006504686,0,1
-0.0004849611,0.0006733199,0,1
-0.0005316359,0.0006747784,0,1
-0.0006266062,0.0006832058,0,1
-0.0007340555,0.0007352289,0,1
-0.0008095779,0.0008496471,0,1
-0.0008236776,0.001007175,0,1
-0.0007742477,0.001140231,0,1
-0.0006768464,0.001169889,0,1
-0.0005486528,0.001045584,0,1
-0.000390315,0.00076278,0,1
-0.0002032917,0.0003715541,0,1
-8.813297e-06,-4.80331e-05,0,1
0.0001508211,-0.000422566,0,1
0.0002316917,-0.0007102319,0,1
0.0002111094,-0.0009032516,0,1
0.0001088461,-0.00101378,0,1
-3.506788e-05,-0.001060293,0,1
-0.0001814128,-0.001058996,0,1
-0.0003055549,-0.001016211,0,1
-0.000402632,-0.000933882,0,1
-0.0004741028,-0.0008063366,0,1
-0.0005178604,-0.0006217443,0,1
-0.0005258016,-0.0003737844,0,1
-0.0004932265,-8.433573e-05,0,1
-0.0004309934,0.0002130541,0,1
-0.0003582261,0.0004835413,0,1
-0.0002914552,0.000718212,0,1
-0.0002266291,0.0009347314,0,1
-0.0001509446,0.001154979,0,1
-4.706071e-05,0.001370688,0,1
9.199134e-05,0.001532916,0,1
0.000252436,0.001587532,0,1
0.000406074,0.001511685,0,1
0.0005251921,0.001329037,0,1
0.0005930975,0.001096635,0,1
0.0006081695,0.0008749293,0,1
0.0005892079,0.0007018434,0,1
0.0005673291,0.0005789978,0,1
0.0005611706,0.0004888894,0,1
0.0005665187,0.0004080188,0,1
0.0005614947,0.0003198552,0,1
0.0005256782,0.0002180782,0,1
0.0004516144,0.0001086841,0,1
0.0003636129,1.002961e-07,0,1
0.0002979764,-9.908367e-05,0,1
0.0002859836,-0.0001882196,0,1
0.0003334687,-0.0002852967,0,1
0.0004127187,-0.0004155972,0,1
0.0004712243,-0.0005984068,0,1
0.0004600418,-0.0008342119,0,1
0.0003610198,-0.001095785,0,1
0.0001966855,-0.001342449,0,1
1.387585e-05,-0.001542437,0,1
-0.0001454344,-0.001689917,0,1
-0.0002579077,-0.001800445,0,1
-0.0003151167,-0.001891364,0,1
-0.0003199787,-0.00197191,0,1
-0.0002814071,-0.002046136,0,1
-0.0002130156,-0.002126359,0,1
-0.0001293899,-0.002221329,0,1
-4.689865e-05,-0.002320838,0,1
2.457216e-05,-0.002383233,0,1
8.46984e-05,-0.002359733,0,1
0.0001375317,-0.002226353,0,1
0.0001790204,-0.001983579,0,1
0.0001994406,-0.001651669,0,1
0.0001973338,-0.001256878,0,1
0.0001900409,-0.000804878,0,1
0.0002023578,-0.0002862691,0,1
0.0002470879,0.0002961937,0,1
0.000324393,0.0009000494,0,1
0.0004203358,0.001464524,0,1
0.0005104441,0.001931273,0,1
0.0005783495,0.002247464,0,1
0.000614166,0.00238441,0,1
0.0006138419,0.002357669,0,1
0.0005817529,0.002210999,0,1
0.0005195198,0.001995775,0,1
0.0004331389,0.001761266,0,1
0.0003357376,0.001547339,0,1
0.0002466017,0.001384301,0,1
0.0001910133,0.001292572,0,1
0.0001733481,0.001272476,0,1
0.0001837203,0.001298569,0,1
0.0002038164,0.001329199,0,1
0.0002128921,0.001332764,0,1
0.0001992786,0.001293707,0,1
0.0001524417,0.001217698,0,1
6.978839e-05,0.001117865,0,1
-4.252288e-05,0.001013495,0,1
-0.0001734716,0.0009267902,0,1
-0.0003144685,0.0008626123,0,1
-0.0004603272,0.0007945448,0,1
-0.0006032689,0.0006814231,0,1
-0.0007257902,0.000500234,0,1
-0.000809902,0.0002585945,0,1
-0.0008465288,-1.740276e-05,0,1
-0.0008306464,-0.000290969,0,1
-0.0007633893,-0.0005303394,0,1
-0.000650754,-0.0007090974,0,1
-0.0005027883,-0.000814764,0,1
-0.0003352128,-0.0008431255,0,1
-0.0001686097,-0.0008129813,0,1
-3.150244e-05,-0.000757555,0,1
4.564065e-05,-0.0007063423,0,1
4.158902e-05,-0.0006766844,0,1
-3.863332e-05,-0.000680574,0,1
-0.0001695821,-0.0007235213,0,1
-0.0003151167,-0.0008026091,0,1
-0.0004465517,-0.0009035757,0,1
-0.0005429805,-0.001002922,0,1
-0.0005963,-0.00107812,0,1
-0.0006108859,-0.001110695,0,1
-0.0006000275,-0.001098216,0,1
-0.0005753936,-0.001048138,0,1
-0.0005387668,-0.0009672674,0,1
-0.0004856094,-0.0008531735,0,1
-0.0004055492,-0.0006974287,0,1
-0.0002852967,-0.0004954954,0,1
-0.0001178833,-0.0002619593,0,1
7.967438e-05,-2.46957e-05,0,1
0.0002705873,0.0001827479,0,1
0.0004153117,0.000331686,0,1
0.0004916445,0.0004102877,0,1
0.0004908342,0.0004256839,0,1
0.0004167703,0.0003989431,0,1
0.0002858215,0.0003563199,0,1
0.0001294284,0.0003188828,0,1
-8.165035e-06,0.0002963557,0,1
-8.530812e-05,0.000289549,0,1
-8.806324e-05,0.0002918179,0,1
-3.150244e-05,0.0002903593,0,1
5.99024e-05,0.0002769079,0,1
0.0001735102,0.0002501671,0,1
0.00030689,0.0002109473,0,1
0.0004584211,0.000158114,0,1
0.0006212969,9.555677e-05,0,1
0.0007848209,3.299956e-05,0,1
0.0009329488,-1.513384e-05,0,1
0.001051905,-3.247483e-05,0,1
0.001136503,-1.043395e-05,0,1
0.001184636,3.348575e-05,0,1
0.001205057,6.249545e-05,0,1
0.001203598,4.596478e-05,0,1
0.001181071,-1.173047e-05,0,1
0.001131155,-7.509801e-05,0,1
0.00104526,-0.0001036215,0,1
0.0009107458,-8.141856e-05,0,1
0.0007180499,-2.194059e-05,0,1
0.000470576,4.596478e-05,0,1
0.0001932822,9.798775e-05,0,1
-7.60704e-05,0.000123432,0,1
-0.0003015032,0.0001291043,0,1
-0.0004606514,0.0001295905,0,1
-0.000549301,0.0001375317,0,1
-0.0005792832,0.0001637863,0,1
-0.0005653456,0.0002149989,0,1
-0.0005223983,0.0002924662,0,1
-0.0004650271,0.000388895,0,1
-0.0004078181,0.0004901859,0,1
-0.0003624398,0.0005788357,0,1
-0.0003434782,0.0006438239,0,1
-0.0003685983,0.0006741302,0,1
-0.0004431483,0.0006550064,0,1
-0.0005599973,0.0005717048,0,1
-0.0007021286,0.0004302217,0,1
-0.0008436117,0.0002610255,0,1
-0.0009517092,0.0001086841,0,1
-0.0009951427,8.041497e-06,0,1
-0.0009538161,-3.020592e-05,0,1
-0.0008350222,-1.853722e-05,0,1
-0.0006719845,2.489629e-05,0,1
-0.0005121881,9.101894e-05,0,1
-0.0003875599,0.0001767515,0,1
-0.0003011791,0.0002762596,0,1
-0.0002358668,0.0003780367,0,1
-0.0001697442,0.0004662003,0,1
-9.827335e-05,0.000534754,0,1
-4.074016e-05,0.0005814288,0,1
-1.967167e-05,0.0006118971,0,1
-3.960571e-05,0.0006326414,0,1
-8.709085e-05,0.0006473894,0,1
-0.0001336036,0.0006522514,0,1
-0.0001567789,0.0006344241,0,1
-0.00015451,0.0005726772,0,1
-0.0001457585,0.000450642,0,1
-0.0001554824,0.0002654013,0,1
-0.0001893541,3.60788e-05,0,1
-0.0002358668,-0.0001994021,0,1
-0.0002776796,-0.0004071698,0,1
-0.0003052308,-0.0005668041,0,1
-0.0003191683,-0.0006734431,0,1
-0.0003251648,-0.0007309763,0,1
-0.0003371576,-0.0007523688,0,1
-0.000360333,-0.000752693,0,1
-0.0003870737,-0.0007497758,0,1
-0.0004008493,-0.0007541516,0,1
-0.0003859393,-0.0007719788,0,1
-0.0003379679,-0.0008034194,0,1
-0.0002588801,-0.0008411807,0,1
-0.0001622891,-0.000871811,0,1
-6.602235e-05,-0.0008833176,0,1
1.063454e-05,-0.0008690559,0,1
5.439218e-05,-0.0008308084,0,1
5.487838e-05,-0.0007744097,0,1
6.90704e-06,-0.0007100698,0,1
-8.773911e-05,-0.0006400577,0,1
-0.0002037779,-0.0005640491,0,1
-0.0003026377,-0.0004776682,0,1
-0.0003457471,-0.0003830221,0,1
-0.0003110651,-0.000288538,0,1
-0.0002070192,-0.0002031296,0,1
-6.326724e-05,-0.0001336036,0,1
8.696731e-05,-8.271508e-05,0,1
0.0002159713,-4.868137e-05,0,1
0.0003130485,-2.712668e-05,0,1
0.0003822504,-1.578211e-05,0,1
0.0004310321,-1.67545e-05,0,1
0.0004572867,-3.036798e-05,0,1
0.0004569625,-5.808115e-05,0,1
0.0004302217,-0.0001005423,0,1
0.0003867882,-0.0001535376,0,1
0.0003436788,-0.0002003745,0,1
0.0003222862,-0.000221443,0,1
0.0003384927,-0.000201671,0,1
0.0003893813,-0.0001430034,0,1
0.0004611762,-6.359137e-05,0,1
0.0005409124,1.338965e-05,0,1
0.0006289139,6.995045e-05,0,1
0.0007332841,9.409818e-05,0,1
0.0008540229,8.04847e-05,0,1
0.0009794616,3.591673e-05,0,1
0.001085939,-1.562004e-05,0,1
0.00114801,-4.625038e-05,0,1
0.001148172,-3.555408e-05,0,1
0.001089018,1.144487e-05,0,1
0.0009851338,7.043665e-05,0,1
0.0008622882,0.0001198666,0,1
0.0007545147,0.0001526038,0,1
0.0006848265,0.0001707551,0,1
0.0006548444,0.0001769136,0,1
0.0006457687,0.0001783722,0,1
0.0006282657,0.0001842065,0,1
0.0005733255,0.0002030061,0,1
0.0004739794,0.000237526,0,1
0.0003469201,0.0002814457,0,1
0.0002208333,0.0003235827,0,1
0.0001214872,0.000349027,0,1
6.978839e-05,0.0003525924,0,1
6.914012e-05,0.0003386548,0,1
9.993253e-05,0.0003218,0,1
0.0001355869,0.0003179104,0,1
0.0001595726,0.0003279585,0,1
0.0001645966,0.0003407616,0,1
0.0001469315,0.0003410858,0,1
0.0001002567,0.000319369,0,1
1.841368e-05,0.0002798251,0,1
-9.276313e-05,0.0002355812,0,1
-0.0002167431,0.0002073819,0,1
-0.0003324577,0.0002124059,0,1
-0.0004190006,0.0002521119,0,1
-0.000467296,0.0003101313,0,1
-0.0004828543,0.0003581026,0,1
-0.0004843129,0.0003746333,0,1
-0.0004974402,0.0003525924,0,1
-0.000539253,0.0002942489,0,1
-0.000613803,0.0002109473,0,1
-0.0007125008,0.0001145184,0,1
-0.0008205983,1.468618e-05,0,1
-0.000923996,-7.623246e-05,0,1
-0.0009993564,-0.0001451102,0,1
-0.001028042,-0.0001861127,0,1
-0.001007298,-0.0001971332,0,1
-0.00094863,-0.0001838438,0,1
-0.0008690559,-0.0001543479,0,1
-0.000789806,-0.000114804,0,1
-0.000732759,-6.91016e-05,0,1
-0.0007108802,-2.696461e-05,0,1
-0.0007269246,3.503668e-06,0,1
-0.0007684134,2.035846e-05,0,1
-0.0008157364,2.862379e-05,0,1
-0.0008528493,3.964424e-05,0,1
-0.0008663007,6.78436e-05,0,1
-0.0008457185,0.0001151667,0,1
-0.0007889956,0.0001739964,0,1
-0.0006993735,0.0002218057,0,1
-0.000583821,0.0002401191,0,1
-0.0004493068,0.0002305572,0,1
-0.0003089583,0.0002067336,0,1
-0.0001825473,0.0001761032,0,1
-9.324933e-05,0.0001446626,0,1
-5.451572e-05,0.0001146805,0,1
-5.937768e-05,9.182927e-05,0,1
-8.352541e-05,7.448828e-05,0,1
-9.211487e-05,5.050261e-05,0,1
-5.078821e-05,5.448452e-06,0,1
5.61749e-05,-6.845333e-05,0,1
0.0002093267,-0.0001712027,0,1
0.0003676645,-0.0002924276,0,1
0.0004872688,-0.0004146248,0,1
0.0005470709,-0.000524343,0,1
0.0005650602,-0.0006084549,0,1
0.0005848321,-0.0006535091,0,1
0.0006362069,-0.0006491333,0,1
0.0007175637,-0.0005941931,0,1
0.0008029722,-0.0004974402,0,1
0.0008726604,-0.0003765395,0,1
0.0009130147,-0.0002553146,0,1
0.0009097734,-0.0001528894,0,1
0.0008480264,-7.428769e-05,0,1
0.0007195085,-1.270286e-05,0,1
0.0005341057,4.158902e-05,0,1
0.000326824,9.247754e-05,0,1
0.0001445005,0.0001376938,0,1
2.311357e-05,0.0001684862,0,1
-2.42095e-05,0.0001775618,0,1
-8.489166e-06,0.000158114,0,1
4.580272e-05,0.0001141943,0,1
0.0001062531,6.055066e-05,0,1
0.0001446626,9.66215e-06,0,1
0.0001453108,-3.101625e-05,0,1
0.0001088461,-5.386745e-05,0,1
5.001642e-05,-5.581224e-05,0,1
-1.805102e-05,-4.641245e-05,0,1
-8.336335e-05,-4.706071e-05,0,1
-0.0001344139,-7.396356e-05,0,1
-0.0001554824,-0.0001180453,0,1
-0.0001404103,-0.0001525652,0,1
-9.794922e-05,-0.0001538618,0,1
-4.155049e-05,-0.0001114006,0,1
1.565857e-05,-2.696461e-05,0,1
6.200925e-05,9.004655e-05,0,1
9.069481e-05,0.0002367157,0,1
0.0001064152,0.0004274666,0,1
0.0001143563,0.0006791542,0,1
0.0001167873,0.0009817304,0,1
0.0001090082,0.001275069,0,1
8.631905e-05,0.001474248,0,1
4.904402e-05,0.00150974,0,1
-6.868513e-06,0.001355454,0,1
-8.060823e-05,0.001055956,0,1
-0.000174444,0.0006968193,0,1
-0.0002953447,0.0003634508,0,1
-0.0004565997,0.0001072255,0,1
-0.000660802,-5.953974e-05,0,1
-0.0008847762,-0.0001496481,0,1
-0.001082172,-0.0001950263,0,1
-0.00121231,-0.0002237119,0,1
-0.001258175,-0.0002530457,0,1
-0.001225762,-0.0002929138,0,1
-0.001131115,-0.0003486642,0,1
-0.0009970875,-0.0004246728,0,1
-0.0008557665,-0.0005139708,0,1
-0.0007390795,-0.0006045654,0,1
-0.0006671225,-0.0006802498,0,1
-0.0006424887,-0.0007270867,0,1
-0.0006429748,-0.0007350279,0,1
-0.0006321164,-0.0007006701,0,1
-0.0005744212,-0.0006220684,0,1
-0.000444931,-0.0004964678,0,1
-0.0002358668,-0.0003246786,0,1
4.223728e-05,-0.0001143178,0,1
0.0003605336,0.0001167873,0,1
0.0006887161,0.0003344411,0,1
0.001008147,0.0004966686,0,1
0.001297434,0.0005640878,0,1
0.001527892,0.0005206542,0,1
0.001683961,0.0003775505,0,1
0.001764183,0.0001762653,0,1
0.001786873,-2.534396e-05,0,1
0.001789952,-0.0001781716,0,1
0.001815396,-0.0002629317,0,1
0.001894808,-0.0002867553,0,1
0.002027865,-0.0002708729,0,1
0.002173562,-0.0002379736,0,1
0.002267722,-0.0002049123,0,1
0.002255567,-0.000176713,0,1
0.002124294,-0.0001530514,0,1
0.001902426,-0.000129714,0,1
0.001639069,-9.875954e-05,0,1
0.001376684,-4.625038e-05,0,1
0.00113472,3.202716e-05,0,1
0.0009156077,0.000128294,0,1
0.0007224257,0.0002193747,0,1
0.0005522569,0.00027707,0,1
0.0004004017,0.0002798251,0,1
0.0002641047,0.0002240746,0,1
0.0001467694,0.0001281319,0,1
4.855783e-05,3.55926e-05,0,1
-3.733679e-05,-1.156841e-05,0,1
-0.0001263107,-4.599598e-06,0,1
-0.0002282497,3.688912e-05,0,1
-0.0003408851,8.46984e-05,0,1
-0.0004463896,0.0001093323,0,1
-0.000524343,7.853991e-05,0,1
-0.0005643732,-1.983374e-05,0,1
-0.000576366,-0.0001627754,0,1
-0.0005930586,-0.0003164132,0,1
-0.0006504298,-0.0004527101,0,1
-0.0007718167,-0.0005606457,0,1
-0.0009400405,-0.000643299,0,1
-0.001106806,-0.0007063423,0,1
-0.001220413,-0.0007549619,0,1
-0.001254771,-0.0007888335,0,1
-0.001215227,-0.0008120089,0,1
-0.00113225,-0.0008243258,0,1
-0.001043438,-0.0008207604,0,1
-0.0009742362,-0.0007966127,0,1
-0.0009392301,-0.0007494517,0,1
-0.000941499,-0.0006638812,0,1
-0.0009855808,-0.0005134846,0,1
-0.00107812,-0.0002830278,0,1
-0.001214741,-1.196227e-06,0,1
-0.001371134,0.0002568118,0,1
-0.001507917,0.0004136911,0,1
-0.001586519,0.0004334631,0,1
-0.001585385,0.0003383307,0,1
-0.001512455,0.0001911753,0,1
-0.001396416,6.897806e-05,0,1
-0.001270005,3.624086e-05,0,1
-0.001155749,0.0001201907,0,1
-0.001057862,0.0003023522,0,1
-0.0009729397,0.0005235714,0,1
-0.0008990379,0.000720643,0,1
-0.0008358325,0.0008462437,0,1
-0.00077522,0.0008864359,0,1
-0.0007074767,0.0008504574,0,1
-0.0006244993,0.0007588904,0,1
-0.0005212637,0.000636531,0,1
-0.000405063,0.0005086614,0,1
-0.0002815692,0.0004002396,0,1
-0.0001546721,0.0003315239,0,1
-3.344723e-05,0.000304297,0,1
6.687121e-05,0.0003008936,0,1
0.0001341283,0.0002947351,0,1
0.0001743205,0.0002725321,0,1
0.0002023578,0.0002273159,0,1
0.0002386605,0.0001568175,0,1
0.0002952213,6.508849e-05,0,1
0.0003772264,-3.490581e-05,0,1
0.0004838654,-0.0001261486,0,1
0.0005971491,-0.0001951884,0,1
0.0006793162,-0.0002368392,0,1
0.0006877437,-0.0002491561,0,1
0.0006123833,-0.0002305186,0,1
0.0004880791,-0.0001914609,0,1
0.0003747954,-0.0001533756,0,1
0.0003177483,-0.0001365208,0,1
0.0003258516,-0.0001480274,0,1
0.0003754436,-0.0001810887,0,1
0.0004204978,-0.0002224154,0,1
0.0004214702,-0.0002676316,0,1
0.0003675024,-0.0003220855,0,1
0.0002785285,-0.000387884,0,1
0.0001858272,-0.0004638926,0,1
0.0001201907,-0.0005436288,0,1
0.0001047945,-0.0006128307,0,1
0.000145635,-0.0006514022,0,1
0.0002320158,-0.0006392473,0,1
0.000339303,-0.0005721523,0,1
0.0004328148,-0.0004651892,0,1
0.0004835413,-0.0003436402,0,1
0.0004825689,-0.0002274394,0,1
0.0004472386,-0.0001214487,0,1
0.0004120704,-2.161646e-05,0,1
0.0004101256,7.691926e-05,0,1
0.0004548557,0.0001686482,0,1
0.0005384815,0.0002475741,0,1
0.0006360448,0.0003086727,0,1
0.0007199947,0.0003509718,0,1
0.0007731522,0.0003725265,0,1
0.0007919518,0.0003765781,0,1
0.000784983,0.0003691231,0,1
0.0007564594,0.0003585888,0,1
0.0007096225,0.0003543751,0,1
0.0006470652,0.0003623164,0,1
0.0005713807,0.0003803056,0,1
0.0004869446,0.0004081808,0,1
0.0003989431,0.0004478869,0,1
0.000319369,0.0004984512,0,1
0.0002621599,0.0005543638,0,1
0.0002388225,0.0006106006,0,1
0.0002446569,0.0006629477,0,1
0.0002634565,0.0007099467,0,1
0.0002832284,0.0007472217,0,1
0.0002978143,0.0007626179,0,1
0.0003036487,0.0007465734,0,1
0.0002864697,0.0006968193,0,1
0.0002365536,0.0006196762,0,1
0.0001568175,0.0005245438,0,1
5.747142e-05,0.0004214702,0,1
-4.511593e-05,0.0003209897,0,1
-0.0001368449,0.0002368777,0,1
-0.0002058847,0.0001842065,0,1
-0.0002486699,0.0001701068,0,1
-0.0002689281,0.0001859892,0,1
-0.000278652,0.0002104611,0,1
-0.0002846485,0.0002247229,0,1
-0.0002899966,0.0002190506,0,1
-0.0002927517,0.0001963614,0,1
-0.0002964792,0.0001633001,0,1
-0.000303286,0.0001255389,0,1
-0.0003177098,8.534666e-05,0,1
-0.0003389403,3.98063e-05,0,1
-0.0003634122,-6.544382e-06,0,1
-0.0003865875,-3.766092e-05,0,1
-0.0004029561,-4.981582e-05,0,1
-0.000400039,-5.565017e-05,0,1
-0.0003707051,-8.141856e-05,0,1
-0.0003144685,-0.0001506204,0,1
-0.0002287359,-0.0002702246,0,1
-0.0001240417,-0.0004293727,0,1
-1.740276e-05,-0.0006097514,0,1
6.930219e-05,-0.0007932093,0,1
0.0001198666,-0.0009671054,0,1
0.0001299146,-0.00112366,0,1
0.0001083599,-0.001246992,0,1
8.178122e-05,-0.001319597,0,1
7.562274e-05,-0.00133078,0,1
9.782569e-05,-0.001283619,0,1
0.0001339663,-0.001204531,0,1
0.0001540623,-0.001129819,0,1
0.0001351007,-0.001081037,0,1
8.161915e-05,-0.001058348,0,1
1.306552e-05,-0.001045383,0,1
-6.294311e-05,-0.001025935,0,1
-0.0001499722,-0.0009969254,0,1
-0.0002480217,-0.0009624055,0,1
-0.0003446126,-0.0009228616,0,1
-0.0004154351,-0.0008737558,0,1
-0.0004366657,-0.0008107124,0,1
-0.0004029561,-0.0007413484,0,1
-0.0003334301,-0.0006755499,0,1
-0.0002608248,-0.0006191512,0,1
-0.0002144742,-0.0005692351,0,1
-0.0002002124,-0.00051705,0,1
-0.000199078,-0.0004574101,0,1
-0.0001807646,-0.0003958252,0,1
-0.0001308485,-0.0003392644,0,1
-5.500191e-05,-0.0002857829,0,1
2.667901e-05,-0.0002243602,0,1
9.814982e-05,-0.0001447861,0,1
0.0001558451,-3.782299e-05,0,1
0.0002013854,0.0001025256,0,1
0.0002359054,0.000284525,0,1
0.0002608634,0.0005289196,0,1
0.0002848491,0.0008572642,0,1
0.0003109416,0.001246546,0,1
0.0003433547,0.001616055,0,1
0.0003781987,0.001868716,0,1
0.0004080188,0.001939701,0,1
0.0004206599,0.001837761,0,1
0.0004028327,0.001649765,0,1
0.0003380065,0.001493372,0,1
0.0002240746,0.001449938,0,1
7.594687e-05,0.001530971,0,1
-7.201877e-05,0.00168234,0,1
-0.0001869231,0.001816855,0,1
-0.0002533699,0.001855102,0,1
-0.0002755728,0.001754784,0,1
-0.0002695764,0.001526109,0,1
-0.0002643903,0.001221588,0,1
-0.0002775176,0.000908801,0,1
-0.0002995585,0.0006363689,0,1
-0.000295993,0.0004300596,0,1
-0.0002408908,0.0002950592,0,1
-0.0001363587,0.0002159713,0,1
-9.785688e-06,0.0001633001,0,1
9.523264e-05,0.0001107909,0,1
0.0001372076,5.082674e-05,0,1
0.0001005808,-1.270286e-05,0,1
2.369211e-06,-6.748094e-05,0,1
-0.000122097,-0.0001075111,0,1
-0.0002352185,-0.0001386276,0,1
-0.0003057169,-0.0001763888,0,1
-0.0003193304,-0.0002279256,0,1
-0.0002770314,-0.0002895104,0,1
-0.0001872472,-0.0003483401,0,1
-6.294311e-05,-0.0003888564,0,1
7.562274e-05,-0.0003945287,0,1
0.0002060853,-0.0003622777,0,1
0.0003096451,-0.0003074997,0,1
0.0003628026,-0.0002498044,0,1
0.000341734,-0.0002023193,0,1
0.0002391467,-0.0001729855,0,1
7.52986e-05,-0.0001640719,0,1
-0.00010978,-0.0001739578,0,1
-0.0002746004,-0.0001976194,0,1
-0.0003880461,-0.0002324634,0,1
-0.0004389346,-0.0002822175,0,1
-0.0004353692,-0.0003535262,0,1
-0.0003865875,-0.0004395829,0,1
-0.0003027998,-0.0005220741,0,1
-0.0002031296,-0.0005812279,0,1
-0.0001091317,-0.000606186,0,1
-3.539201e-05,-0.0005930586,0,1
1.322759e-05,-0.0005407116,0,1
3.818565e-05,-0.0004567618,0,1
4.013043e-05,-0.0003562813,0,1
2.910999e-05,-0.0002624455,0,1
1.582063e-05,-0.0002008607,0,1
1.257933e-05,-0.0001922712,0,1
2.473423e-05,-0.0002376495,0,1
4.677511e-05,-0.0003156029,0,1
7.465034e-05,-0.0003888564,0,1
0.0001103047,-0.0004232143,0,1
0.0001490383,-0.0004083043,0,1
0.0001757791,-0.0003650328,0,1
0.000170593,-0.0003287302,0,1
0.0001205148,-0.0003274337,0,1
3.235129e-05,-0.0003658432,0,1
-5.937768e-05,-0.0004219178,0,1
-0.0001109144,-0.0004608134,0,1
-8.984595e-05,-0.0004609755,0,1
6.90704e-06,-0.000422566,0,1
0.0001454729,-0.000365357,0,1
0.0002665357,-0.0003102548,0,1
0.0003171001,-0.0002742763,0,1
0.0002692908,-0.0002653627,0,1
0.0001380179,-0.000268604,0,1
-3.377136e-05,-0.0002449425,0,1
-0.0001932436,-0.0001485136,0,1
-0.0003024756,3.299956e-05,0,1
-0.0003528779,0.0002632944,0,1
-0.0003590364,0.0004634451,0,1
-0.0003400748,0.0005636016,0,1
-0.0003042584,0.0005383193,0,1
-0.0002506147,0.0004125566,0,1
-0.0001776853,0.0002376881,0,1
-8.919769e-05,6.525056e-05,0,1
1.558884e-06,-7.266703e-05,0,1
7.124698e-05,-0.0001621271,0,1
0.0001030118,-0.0002058847,0,1
0.0001002567,-0.0002147983,0,1
7.594687e-05,-0.0001969711,0,1
5.228533e-05,-0.0001528894,0,1
4.742337e-05,-7.882551e-05,0,1
6.298164e-05,2.489629e-05,0,1
8.194328e-05,0.0001485521,0,1
8.486046e-05,0.0002730183,0,1
6.46023e-05,0.0003733368,0,1
3.202716e-05,0.0004321665,0,1
-3.303076e-06,0.0004465904,0,1
-4.041603e-05,0.000425846,0,1
-7.914964e-05,0.0003796573,0,1
-0.0001206384,0.0003133726,0,1
-0.0001598582,0.0002281262,0,1
-0.0001861127,0.0001320215,0,1
-0.00018433,3.688912e-05,0,1
-0.0001499722,-4.365734e-05,0,1
-8.579432e-05,-9.762509e-05,0,1
-9.623623e-06,-0.000122097,0,1
5.795762e-05,-0.0001240417,0,1
0.0001049566,-0.0001180453,0,1
0.000133318,-0.0001162626,0,1
0.0001595726,-0.0001167488,0,1
0.000192796,-0.0001138316,0,1
0.0002391467,-9.989401e-05,0,1
0.0002955454,-6.893953e-05,0,1
0.0003488649,-2.275091e-05,0,1
0.0003770643,3.413401e-05,0,1
0.0003534027,9.863601e-05,0,1
0.0002666978,0.0001709172,0,1
0.0001365593,0.0002430362,0,1
4.47606e-06,0.0002927903,0,1
-9.519411e-05,0.0003025142,0,1
-0.0001509446,0.0002704253,0,1
-0.0001754164,0.0002031682,0,1
-0.0001890299,0.0001096565,0,1
-0.0002013469,4.244267e-07,0,1
-0.0002102605,-0.0001018388,0,1
-0.0002044261,-0.0001757406,0,1
-0.000179306,-0.000224036,0,1
-0.0001386276,-0.0002582318,0,1
-9.033215e-05,-0.0002841623,0,1
-4.997789e-05,-0.0002992343,0,1
-2.858527e-05,-0.0003045825,0,1
-2.177852e-05,-0.0003013411,0,1
-1.562004e-05,-0.0002865932,0,1
-4.113403e-06,-0.0002621213,0,1
3.989864e-06,-0.0002429977,0,1
-2.492749e-06,-0.0002429977,0,1
-2.826114e-05,-0.0002715212,0,1
-5.305713e-05,-0.0003250027,0,1
-3.976777e-05,-0.0003891806,0,1
4.434413e-05,-0.0004394208,0,1
0.0001936063,-0.0004525481,0,1
0.0003618301,-0.0004162455,0,1
0.0004890515,-0.0003327818,0,1
0.0005336195,-0.0002110708,0,1
0.0004950479,-6.261898e-05,0,1
0.0004083429,9.555677e-05,0,1
0.0003247172,0.0002461155,0,1
0.0002827423,0.0003851676,0,1
0.0002931144,0.0005162785,0,1
0.0003402755,0.0006407447,0,1
0.0003895433,0.000748032,0,1
0.0004127187,0.0008240407,0,1
0.0004138531,0.0008522401,0,1
0.0004224426,0.000817234,0,1
0.0004674968,0.0007042743,0,1
0.0005558224,0.0005091476,0,1
0.0006752646,0.0002574601,0,1
0.0008110755,-2.81688e-06,0,1
0.0009496415,-0.0002230636,0,1
0.001081401,-0.0003687603,0,1
0.001191281,-0.0004209454,0,1
0.001257728,-0.0003846427,0,1
0.001260159,-0.0002887001,0,1
0.001186257,-0.0001647201,0,1
0.001040236,-4.495386e-05,0,1
0.0008361956,5.034055e-05,0,1
0.0005887217,0.000113384,0,1
0.0003149933,0.0001519555,0,1
3.575467e-05,0.0001809652,0,1
-0.0002305186,0.0002124059,0,1
-0.000464703,0.0002488706,0,1
-0.0006491333,0.0002819319,0,1
-0.0007714926,0.0003012177,0,1
-0.0008390738,0.0003038107,0,1
-0.0008805625,0.0002948972,0,1
-0.0009355026,0.0002798251,0,1
-0.001028366,0.0002605393,0,1
-0.001156236,0.0002380122,0,1
-0.001294964,0.0002148369,0,1
-0.001411002,0.0001945787,0,1
-0.001477287,0.0001783722,0,1
-0.001478421,0.0001684862,0,1
-0.001414568,0.0001658931,0,1
-0.001302743,0.0001670276,0,1
-0.001169687,0.0001696206,0,1
-0.001037766,0.0001756171,0,1
-0.0009231857,0.0001867996,0,1
-0.0008308084,0.0002046267,0,1
-0.0007570688,0.0002334744,0,1
-0.000690622,0.0002782044,0,1
-0.0006243373,0.0003360618,0,1
-0.0005608077,0.000398619,0,1
-0.0005034366,0.0004525868,0,1
-0.0004531963,0.0004817585,0,1
-0.000405063,0.0004738173,0,1
-0.0003457471,0.0004290873,0,1
-0.0002600145,0.0003581026,0,1
-0.0001431655,0.0002749631,0,1
-4.275467e-06,0.0001911753,0,1
0.0001362352,0.0001140322,0,1
0.0002555152,4.969229e-05,0,1
0.0003339549,-1.682422e-06,0,1
0.0003585888,-4.85193e-05,0,1
0.0003352514,-0.0001005423,0,1
0.0002854973,-0.0001580754,0,1
0.0002279642,-0.0002146363,0,1
0.0001772377,-0.0002629317,0,1
0.0001419075,-0.0002963172,0,1
0.0001177597,-0.0003146305,0,1
8.939829e-05,-0.0003271096,0,1
5.19612e-05,-0.0003403989,0,1
1.744129e-05,-0.000350609,0,1
8.041497e-06,-0.0003590364,0,1
4.077869e-05,-0.0003713534,0,1
0.0001117633,-0.000400039,0,1
0.0001926339,-0.0004506033,0,1
0.0002506533,-0.0005164018,0,1
0.0002691288,-0.0005886829,0,1
0.0002550291,-0.0006677708,0,1
0.0002255332,-0.0007609584,0,1
0.0002008992,-0.0008747282,0,1
0.0001872858,-0.001013132,0,1
0.0001777239,-0.00117147,0,1
0.0001592484,-0.001331752,0,1
0.0001240803,-0.001469994,0,1
7.027458e-05,-0.00156464,0,1
-6.176923e-08,-0.001595595,0,1
-7.428769e-05,-0.001557347,0,1
-0.0001383035,-0.001458974,0,1
-0.0001760647,-0.001325918,0,1
-0.0001814128,-0.001184597,0,1
-0.0001562927,-0.001054621,0,1
-0.0001070249,-0.0009316131,0,1
-4.090223e-05,-0.0007862405,0,1
3.251336e-05,-0.0005750695,0,1
0.0001065772,-0.0002755728,0,1
0.0001820997,9.960841e-05,0,1
0.0002652392,0.0005104441,0,1
0.0003634508,0.0009245213,0,1
0.0004747897,0.001329199,0,1
0.0005778633,0.001727881,0,1
0.0006443101,0.002107439,0,1
0.0006548444,0.00242055,0,1
0.0006144901,0.002595744,0,1
0.0005506363,0.002572082,0,1
0.0004937514,0.002342435,0,1
0.0004611762,0.001965793,0,1
0.000443349,0.001536805,0,1
0.0004112601,0.001145903,0,1
0.0003449753,0.0008507816,0,1
0.0002456293,0.0006634339,0,1
0.0001349386,0.0005702463,0,1
3.850978e-05,0.000544964,0,1
-3.020592e-05,0.000559712,0,1
-7.428769e-05,0.0005888838,0,1
-0.0001104282,0.0006104385,0,1
-0.0001536997,0.0006089798,0,1
-0.0002036158,0.0005718669,0,1
-0.0002476975,0.0004955341,0,1
-0.0002703867,0.0003897054,0,1
-0.000268766,0.0002713977,0,1
-0.0002506147,0.0001584381,0,1
-0.0002311669,6.346784e-05,0,1
-0.000226467,-6.868513e-06,0,1
-0.0002347323,-5.095028e-05,0,1
-0.0002404046,-6.958779e-05,0,1
-0.0002373254,-6.991193e-05,0,1
-0.0002300324,-6.278104e-05,0,1
-0.000223874,-6.407757e-05,0,1
-0.000216581,-9.389759e-05,0,1
-0.0001979435,-0.0001666649,0,1
-0.0001652063,-0.0002770314,0,1
-0.000119666,-0.000410087,0,1
-6.342931e-05,-0.0005499493,0,1
-4.113403e-06,-0.0006868945,0,1
4.337174e-05,-0.0008157364,0,1
5.99024e-05,-0.0009295062,0,1
4.288554e-05,-0.001019452,0,1
1.209313e-05,-0.001090437,0,1
-5.247859e-06,-0.001148781,0,1
2.04508e-06,-0.001194807,0,1
2.829966e-05,-0.001218631,0,1
5.876794e-05,-0.001207286,0,1
7.108491e-05,-0.001153318,0,1
5.082674e-05,-0.001059321,0,1
-4.923729e-06,-0.000933882,0,1
-8.206682e-05,-0.0007842957,0,1
-0.0001561307,-0.0006146134,0,1
-0.0002107467,-0.0004290486,0,1
-0.0002384598,-0.0002335979,0,1
-0.000246239,-3.895745e-05,0,1
-0.0002348944,0.0001423936,0,1
-0.0001977815,0.000289549,0,1
-0.0001227452,0.000383871,0,1
-1.010982e-05,0.0004140152,0,1
0.0001195424,0.0003807918,0,1
0.0002337985,0.0002866318,0,1
0.0003036487,0.0001422316,0,1
0.0003171001,-2.550602e-05,0,1
0.0002830664,-0.0001833576,0,1
0.0002193747,-0.0003112272,0,1
0.0001415833,-0.0004037664,0,1
6.78436e-05,-0.000459841,0,1
1.889987e-05,-0.000474589,0,1
9.986281e-06,-0.000452386,0,1
5.309566e-05,-0.0004037664,0,1
0.0001509831,-0.000345585,0,1
0.0002833905,-0.0003024756,0,1
0.000411098,-0.0002914552,0,1
0.0004960203,-0.0003126857,0,1
0.0005123889,-0.0003489884,0,1
0.0004550177,-0.0003752429,0,1
0.0003381686,-0.0003596847,0,1
0.00019782,-0.0002705488,0,1
7.708133e-05,-0.0001118868,0,1
-1.844488e-06,6.541262e-05,0,1
-4.576419e-05,0.0001983062,0,1
-7.056019e-05,0.0002547049,0,1
-8.968389e-05,0.0002532463,0,1
-0.0001050801,0.0002294227,0,1
-0.0001157764,0.0002049509,0,1
-0.0001243659,0.0001869616,0,1
-0.0001336036,0.0001770756,0,1
-0.0001404103,0.0001820997,0,1
-0.0001314967,0.0002083542,0,1
-9.308726e-05,0.0002605393,0,1
-2.015787e-05,0.0003371962,0,1
8.599492e-05,0.0004269804,0,1
0.00021273,0.0005096338,0,1
0.0003378445,0.0005726772,0,1
0.0004292493,0.0006211348,0,1
0.0004674968,0.000663758,0,1
0.0004533971,0.0006976296,0,1
0.0004000776,0.0007114052,0,1
0.0003271482,0.0007005468,0,1
0.000249843,0.0006728336,0,1
0.0001764274,0.0006404206,0,1
0.0001106288,0.0006115729,0,1
5.228533e-05,0.000586939,0,1
-3.858999e-07,0.0005608465,0,1
-4.689865e-05,0.0005264886,0,1
-8.530812e-05,0.0004785172,0,1
-0.0001096179,0.0004149876,0,1
-0.0001070249,0.0003346032,0,1
-7.396356e-05,0.0002313675,0,1
-1.967167e-05,0.000101067,0,1
2.959619e-05,-4.398147e-05,0,1
4.807163e-05,-0.0001862748,0,1
2.505836e-05,-0.000310903,0,1
-2.372331e-05,-0.000405063,0,1
-7.169464e-05,-0.0004612996,0,1
-9.341139e-05,-0.0004750752,0,1
-8.530812e-05,-0.0004400691,0,1
-5.889148e-05,-0.0003509331,0,1
-3.425755e-05,-0.0002125294,0,1
-2.388537e-05,-4.268495e-05,0,1
-3.441962e-05,0.000128456,0,1
-6.958779e-05,0.0002691288,0,1
-0.0001264727,0.0003530786,0,1
-0.0001950263,0.0003671783,0,1
-0.000258718,0.0003206656,0,1
-0.0003015032,0.0002435224,0,1
-0.0003199787,0.0001726999,0,1
-0.0003253268,0.000128456,0,1
-0.0003352128,0.0001182459,0,1
-0.0003609812,0.0001334801,0,1
-0.0003997148,0.0001623277,0,1
-0.0004389346,0.0001960373,0,1
-0.0004711856,0.0002308813,0,1
-0.0004998712,0.0002668598,0,1
-0.0005308256,0.0003033245,0,1
-0.0005609698,0.0003300653,0,1
-0.0005857658,0.0003357376,0,1
-0.000603755,0.0003205035,0,1
-0.000618503,0.0002944109,0,1
-0.0006290372,0.0002681563,0,1
-0.0006219063,0.0002422259,0,1
-0.0005734488,0.0002081922,0,1
-0.0004682684,0.0001586002,0,1
-0.0003141443,9.63671e-05,0,1
-0.000142031,2.927205e-05,0,1
8.041497e-06,-3.134038e-05,0,1
0.0001062531,-8.012204e-05,0,1
0.0001406109,-0.0001206384,0,1
0.0001150046,-0.000159372,0,1
4.369587e-05,-0.0002045882,0,1
-5.565017e-05,-0.0002645523,0,1
-0.0001603444,-0.0003361852,0,1
-0.0002498044,-0.0004096008,0,1
-0.000303286,-0.000467296,0,1
-0.0003086341,-0.0004906334,0,1
-0.0002674695,-0.0004749131,0,1
-0.0001929195,-0.0004337485,0,1
-0.0001060525,-0.0003822118,0,1
-2.550602e-05,-0.0003361852,0,1
4.547859e-05,-0.0003057169,0,1
0.0001172735,-0.0002854588,0,1
0.0002017096,-0.0002656868,0,1
0.0003028383,-0.0002468872,0,1
0.0004054258,-0.0002418632,0,1
0.0004895377,-0.0002655248,0,1
0.0005339436,-0.0003165753,0,1
0.000532485,-0.0003846427,0,1
0.0004973168,-0.0004465517,0,1
0.0004530729,-0.0004818819,0,1
0.0004255218,-0.0004791268,0,1
0.0004279528,-0.0004407173,0,1
0.0004568005,-0.0003762153,0,1
0.0004895377,-0.0002851347,0,1
0.000497803,-0.0001622891,0,1
0.0004640934,-5.247859e-06,0,1
0.0003856538,0.0001820997,0,1
0.0002830664,0.0003908399,0,1
0.0001869616,0.0005966629,0,1
0.0001185701,0.0007689385,0,1
8.518459e-05,0.0008812498,0,1
8.064677e-05,0.0009203076,0,1
8.729144e-05,0.000871688,0,1
8.323981e-05,0.0007104329,0,1
5.293359e-05,0.0004263322,0,1
-6.220252e-06,5.747142e-05,0,1
-8.109443e-05,-0.0003100927,0,1
-0.0001485136,-0.0005833348,0,1
-0.0001864369,-0.0007159042,0,1
-0.0001781716,-0.0007266005,0,1
-0.0001258245,-0.0006651777,0,1
-5.727083e-05,-0.0005807417,0,1
-6.220252e-06,-0.0004985746,0,1
1.063454e-05,-0.0004202971,0,1
1.047248e-05,-0.0003327818,0,1
1.9224e-05,-0.0002219292,0,1
4.839576e-05,-7.882551e-05,0,1
9.328786e-05,0.0001013911,0,1
0.0001388282,0.0003324963,0,1
0.0001691344,0.0006258347,0,1
0.0001863134,0.0009554758,0,1
0.0002013854,0.001250273,0,1
0.0002222919,0.001421414,0,1
0.0002397949,0.00141477,0,1
0.0002354192,0.001245573,0,1
0.0002033302,0.0009883752,0,1
0.0001504969,0.0007295565,0,1
8.664318e-05,0.0005235714,0,1
2.424803e-05,0.0003858158,0,1
-2.485776e-05,0.0003046211,0,1
-5.208474e-05,0.0002600531,0,1
-5.062615e-05,0.0002279642,0,1
-2.307504e-05,0.000187934,0,1
1.954813e-05,0.0001239182,0,1
6.573675e-05,3.364782e-05,0,1
0.000103498,-7.299116e-05,0,1
0.0001250527,-0.0001797922,0,1
0.0001347766,-0.0002750866,0,1
0.0001391524,-0.0003559572,0,1
0.0001346145,-0.0004343968,0,1
0.0001098185,-0.000529205,0,1
5.212327e-05,-0.0006465403,0,1
-3.992984e-05,-0.0007734374,0,1
-0.0001468929,-0.0008863969,0,1
-0.0002374874,-0.0009667812,0,1
-0.0002854588,-0.001009566,0,1
-0.0002838381,-0.001018156,0,1
-0.000243808,-0.0009982219,0,1
-0.0001812508,-0.0009577056,0,1
-0.0001062146,-0.0009051964,0,1
-2.258885e-05,-0.0008492839,0,1
6.427817e-05,-0.0007894818,0,1
0.0001451488,-0.0007236833,0,1
0.0002065715,-0.0006544815,0,1
0.0002299089,-0.0005843072,0,1
0.0002012234,-0.000514457,0,1
0.0001331559,-0.0004454172,0,1
5.406805e-05,-0.0003721637,0,1
-7.840905e-06,-0.000293562,0,1
-3.360929e-05,-0.000211557,0,1
-1.25408e-05,-0.0001352242,0,1
4.288554e-05,-7.153257e-05,0,1
0.0001101427,-1.902341e-05,0,1
0.0001597346,2.165498e-05,0,1
0.0001701068,5.050261e-05,0,1
0.0001402868,6.281957e-05,0,1
7.90261e-05,5.017848e-05,0,1
4.313994e-06,1.047248e-05,0,1
-6.958779e-05,-4.446767e-05,0,1
-0.0001318209,-9.940781e-05,0,1
-0.0001776853,-0.0001465688,0,1
-0.000209126,-0.0001823853,0,1
-0.0002233878,-0.0002062088,0,1
-0.000206695,-0.000211557,0,1
-0.0001439758,-0.0001959987,0,1
-3.198864e-05,-0.00016942,0,1
0.0001177597,-0.0001511067,0,1
0.0002835526,-0.000159372,0,1
0.0004281149,-0.0001961608,0,1
0.0005164405,-0.0002498044,0,1
0.0005354022,-0.0002955068,0,1
0.0004940755,-0.0003100927,0,1
0.0004145014,-0.0002744383,0,1
0.0003277964,-0.0001781716,0,1
0.0002587566,-8.651231e-06,0,1
0.0002161334,0.0002362295,0,1
0.0001864754,0.0005271368,0,1
0.0001443384,0.0008052412,0,1
6.346784e-05,0.001009606,0,1
-7.056019e-05,0.001101335,0,1
-0.0002564491,0.001081077,0,1
-0.0004653512,0.0009801098,0,1
-0.0006486471,0.0008426782,0,1
-0.0007606342,0.0007071915,0,1
-0.0007878611,0.000594556,0,1
-0.0007559343,0.0005167646,0,1
-0.0007021286,0.0004770586,0,1
-0.0006548056,0.0004720346,0,1
-0.0006078067,0.0004942376,0,1
-0.0005437909,0.0005339436,0,1
-0.0004629203,0.0005726772,0,1
-0.0003906392,0.0005913147,0,1
-0.0003489884,0.0005815908,0,1
-0.000348016,0.0005477191,0,1
-0.0003767015,0.0005018546,0,1
-0.00041268,0.0004564763,0,1
-0.000437314,0.0004180668,0,1
-0.0004444448,0.0003811159,0,1
-0.0004339106,0.0003388169,0,1
-0.0004118697,0.0002814457,0,1
-0.0003846427,0.000200413,0,1
-0.0003493125,9.782569e-05,0,1
-0.0002937241,-1.464765e-05,0,1
-0.0002092881,-0.0001133454,0,1
-9.843541e-05,-0.0001773612,0,1
2.424803e-05,-0.0002013469,0,1
0.000145797,-0.0001955125,0,1
0.0002642668,-0.0001810887,0,1
0.0003828986,-0.000179306,0,1
0.0004952099,-0.0001979435,0,1
0.0005875872,-0.0002360289,0,1
0.0006465791,-0.0002844864,0,1
0.0006660269,-0.0003288923,0,1
0.0006528996,-0.0003553089,0,1
0.0006156246,-0.0003528779,0,1
0.0005506363,-0.0003220855,0,1
0.0004517764,-0.0002713591,0,1
0.0003200173,-0.0002112329,0,1
0.0001650828,-0.0001418689,0,1
1.558884e-06,-5.613637e-05,0,1
-0.0001626133,6.41161e-05,0,1
-0.0003151167,0.0002342847,0,1
-0.0004342347,0.0004498317,0,1
-0.0005034366,0.0006728336,0,1
-0.0005204534,0.000837168,0,1
-0.0004974402,0.0008901635,0,1
-0.0004556273,0.0008135065,0,1
-0.0004058733,0.0006383138,0,1
-0.0003515814,0.0004311941,0,1
-0.0002912931,0.0002603772,0,1
-0.000221605,0.0001519555,0,1
-0.0001434896,9.004655e-05,0,1
-5.451572e-05,4.320967e-05,0,1
5.406805e-05,-5.89612e-06,0,1
0.0001926339,-5.59743e-05,0,1
0.0003559958,-9.405965e-05,0,1
0.0005287575,-0.0001154523,0,1
0.0006853127,-0.0001287416,0,1
0.000800055,-0.0001530514,0,1
0.0008551573,-0.0001989159,0,1
0.0008425161,-0.0002650386,0,1
0.000772828,-0.000342992,0,1
0.0006710509,-0.0004222419,0,1
0.0005692738,-0.0004882024,0,1
0.0004976409,-0.0005248293,0,1
0.0004739794,-0.0005254775,0,1
0.0005021787,-0.0004882024,0,1
0.0005707325,-0.0004164075,0,1
0.0006551685,-0.0003196545,0,1
0.0007165913,-0.000223874,0,1
0.0007237222,-0.0001627754,0,1
0.0006691061,-0.0001502963,0,1
0.0005767288,-0.0001710407,0,1
0.0004817585,-0.0001945401,0,1
0.0004099636,-0.0001955125,0,1
0.0003613439,-0.000169258,0,1
0.0003089969,-0.0001298761,0,1
0.0002222919,-9.697683e-05,0,1
9.68533e-05,-7.752899e-05,0,1
-3.668853e-05,-6.002594e-05,0,1
-0.0001337657,-3.26369e-05,0,1
-0.0001723372,-2.978945e-06,0,1
-0.0001653684,1.338965e-05,0,1
-0.0001442999,7.717366e-06,0,1
-0.0001392759,-1.189254e-05,0,1
-0.0001702304,-2.971972e-05,0,1
-0.0002421874,-3.117831e-05,0,1
-0.0003400748,-8.165035e-06,0,1
-0.0004460655,2.943412e-05,0,1
-0.0005549733,6.46023e-05,0,1
-0.0006685811,8.907416e-05,0,1
-0.0007797579,0.0001038221,0,1
-0.0008731075,0.000110953,0,1
-0.0009303166,0.0001070634,0,1
-0.0009405267,8.680524e-05,0,1
-0.0009029275,5.52025e-05,0,1
-0.0008214086,1.97102e-05,0,1
-0.0007040734,-1.643037e-05,0,1
-0.0005726385,-5.192267e-05,0,1
-0.0004561135,-9.098041e-05,0,1
-0.0003788084,-0.0001383035,0,1
-0.0003439643,-0.0001914609,0,1
-0.0003378059,-0.0002426735,0,1
-0.0003358611,-0.000286107,0,1
-0.0003194925,-0.0003233821,0,1
-0.000285945,-0.0003510952,0,1
-0.0002421874,-0.000355471,0,1
-0.0001956746,-0.0003298647,0,1
-0.0001538618,-0.0002848105,0,1
-0.0001238797,-0.0002436459,0,1
-0.0001235555,-0.0002229016,0,1
-0.0001676373,-0.0002254946,0,1
-0.0002519113,-0.0002451045,0,1
-0.0003363473,-0.0002705488,0,1
-0.0003635742,-0.0002874036,0,1
-0.0002972895,-0.0002815692,0,1
-0.0001467309,-0.0002436459,0,1
3.494434e-05,-0.0001700683,0,1
0.0001864754,-5.953974e-05,0,1
0.0002655633,9.280167e-05,0,1
0.0002631324,0.0002801492,0,1
0.0001961994,0.0004718725,0,1
8.631905e-05,0.0006219451,0,1
-4.041603e-05,0.0006749405,0,1
-0.0001532135,0.0005901803,0,1
-0.0002232257,0.0003610198,0,1
-0.0002391081,2.052053e-05,0,1
-0.0002100984,-0.0003569296,0,1
-0.000166989,-0.0006920806,0,1
-0.0001329553,-0.0009249684,0,1
-0.0001083214,-0.001027556,0,1
-8.579432e-05,-0.001003084,0,1
-5.775702e-05,-0.0008826694,0,1
-1.853722e-05,-0.0007069906,0,1
3.445814e-05,-0.000529205,0,1
9.928428e-05,-0.0003955011,0,1
0.0001710792,-0.0003261372,0,1
0.0002431983,-0.0003063652,0,1
0.0003065659,-0.0002831898,0,1
0.0003508097,-0.0002019951,0,1
0.0003715541,-2.939559e-05,0,1
0.0003717161,0.0002318537,0,1
0.000361506,0.0005490156,0,1
0.0003443271,0.0008823843,0,1
0.0003125623,0.001202302,0,1
0.0002621599,0.001476031,0,1
0.0002039785,0.001665161,0,1
0.0001547106,0.001730474,0,1
0.0001211631,0.001646199,0,1
9.523264e-05,0.001425142,0,1
6.379197e-05,0.001121755,0,1
2.149292e-05,0.0008045929,0,1
-2.599222e-05,0.000534754,0,1
-6.715681e-05,0.0003496752,0,1
-8.887356e-05,0.0002495189,0,1
-8.44978e-05,0.0002107852,0,1
-5.678463e-05,0.0002055991,0,1
-1.934754e-05,0.0002112714,0,1
1.906194e-05,0.0002159713,0,1
6.330578e-05,0.0002164575,0,1
0.0001247285,0.0002083542,0,1
0.0002064095,0.0001882582,0,1
0.000292142,0.0001548727,0,1
0.0003519442,0.000113384,0,1
0.0003595612,7.448828e-05,0,1
0.0003114278,4.72613e-05,0,1
0.0002266676,3.202716e-05,0,1
0.0001354248,2.603075e-05,0,1
6.622294e-05,2.359977e-05,0,1
3.60788e-05,1.9224e-05,0,1
4.239934e-05,1.241726e-05,0,1
7.546067e-05,8.365628e-06,0,1
0.0001203528,9.338019e-06,0,1
0.0001626518,7.879432e-06,0,1
0.0001932822,-5.085794e-06,0,1
0.0002122438,-3.620233e-05,0,1
0.0002208333,-8.82253e-05,0,1
0.0002237505,-0.0001609926,0,1
0.0002231022,-0.0002465631,0,1
0.0002221298,-0.0003264613,0,1
0.0002255332,-0.0003843186,0,1
0.0002269918,-0.0004108973,0,1
0.0002137024,-0.0004055492,0,1
0.0001741585,-0.0003731361,0,1
0.0001049566,-0.0003251648,0,1
3.989864e-06,-0.0002823795,0,1
-0.00012469,-0.0002653627,0,1
-0.0002658489,-0.0002917793,0,1
-0.0003935563,-0.0003642225,0,1
-0.0004831784,-0.000467296,0,1
-0.0005183466,-0.0005753936,0,1
-0.0004912817,-0.0006591813,0,1
-0.0004086284,-0.0006998597,0,1
-0.0002865932,-0.0006977529,0,1
-0.0001480274,-0.0006740913,0,1
-8.813297e-06,-0.0006496195,0,1
0.0001192183,-0.0006322784,0,1
0.000225047,-0.0006222305,0,1
0.0002976523,-0.0006134789,0,1
0.0003290929,-0.0006031067,0,1
0.0003211517,-0.000591438,0,1
0.0002837146,-0.0005792832,0,1
0.000230071,-0.0005643732,0,1
0.0001761032,-0.0005468701,0,1
0.0001414213,-0.0005236948,0,1
0.0001349386,-0.0004882024,0,1
0.0001574657,-0.0004386105,0,1
0.0002070577,-0.0003760533,0,1
0.0002699391,-0.0003018274,0,1
0.0003269861,-0.0002183637,0,1
0.000361506,-0.0001287416,0,1
0.0003616681,-3.782299e-05,0,1
0.0003295791,5.098881e-05,0,1
0.0002757735,0.0001367214,0,1
0.0002140265,0.0002205092,0,1
0.0001553589,0.0002947351,0,1
0.0001013911,0.0003472443,0,1
4.320967e-05,0.0003650715,0,1
-2.583016e-05,0.0003358997,0,1
-0.0001002181,0.0002490327,0,1
-0.0001695821,0.0001124116,0,1
-0.0002229016,-4.722278e-05,0,1
-0.0002483458,-0.0001909747,0,1
-0.0002452666,-0.0002865932,0,1
-0.0002232257,-0.0003237062,0,1
-0.0001974573,-0.0003168994,0,1
-0.0001759026,-0.0002875656,0,1
-0.0001566169,-0.0002502906,0,1
-0.0001428413,-0.0002118811,0,1
-0.0001433275,-0.0001797922,0,1
-0.0001585616,-0.0001559686,0,1
-0.000176875,-0.0001319829,0,1
-0.0001810887,-8.336335e-05,0,1
-0.0001543479,2.959619e-05,0,1
-9.373552e-05,0.0002331503,0,1
-1.140634e-05,0.0005180612,0,1
7.513654e-05,0.0008258235,0,1
0.0001522796,0.001074594,0,1
0.00021273,0.00120765,0,1
0.0002553532,0.001231149,0,1
0.0002816078,0.001199871,0,1
0.0002953834,0.001179775,0,1
0.0002999212,0.001218508,0,1
0.0002989488,0.001326606,0,1
0.0002916559,0.001462579,0,1
0.0002735045,0.001554957,0,1
0.0002431983,0.001543126,0,1
0.0002059233,0.001410718,0,1
0.000163138,0.001193226,0,1
0.0001103047,0.0009468864,0,1
4.628891e-05,0.0007227498,0,1
-2.258885e-05,0.0005516087,0,1
-8.968389e-05,0.0004396215,0,1
-0.0001455964,0.000368799,0,1
-0.000184168,0.0003125623,0,1
-0.0002110708,0.0002487085,0,1
-0.000238784,0.0001676758,0,1
-0.0002815692,7.918817e-05,0,1
-0.0003392644,1.072688e-06,0,1
-0.0003937184,-5.370539e-05,0,1
-0.0004235384,-9.017008e-05,0,1
-0.0004193247,-0.0001242038,0,1
-0.0003885323,-0.000171851,0,1
-0.0003533641,-0.0002376495,0,1
-0.0003384541,-0.0003094444,0,1
-0.000353202,-0.0003685983,0,1
-0.000387722,-0.0004006872,0,1
-0.0004185144,-0.0004045768,0,1
-0.0004339106,-0.0003912874,0,1
-0.0004371519,-0.0003781601,0,1
-0.0004365036,-0.0003762153,0,1
-0.0004355313,-0.0003862634,0,1
-0.0004309934,-0.0004036044,0,1
-0.0004128421,-0.0004167317,0,1
-0.0003783222,-0.0004144627,0,1
-0.0003373197,-0.0003862634,0,1
-0.000301017,-0.000333106,0,1
-0.0002713591,-0.0002658489,0,1
-0.0002402425,-0.0001998883,0,1
-0.0002021572,-0.0001530514,0,1
-0.000164396,-0.0001353863,0,1
-0.0001438137,-0.000149486,0,1
-0.0001551583,-0.0001938919,0,1
-0.0002070192,-0.0002622834,0,1
-0.000303448,-0.0003497987,0,1
-0.0004319658,-0.0004496309,0,1
-0.0005658317,-0.0005468701,0,1
-0.0006716604,-0.0006228787,0,1
-0.0007251419,-0.0006655019,0,1
-0.0007147697,-0.0006739292,0,1
-0.0006345474,-0.0006588572,0,1
-0.0004877163,-0.0006348715,0,1
-0.0002851347,-0.0006034309,0,1
-4.787104e-05,-0.0005642111,0,1
0.0001976579,-0.0005188328,0,1
0.0004264942,-0.0004750752,0,1
0.0006211348,-0.000444769,0,1
0.0007705591,-0.0004397449,0,1
0.0008642329,-0.0004606514,0,1
0.0009036149,-0.0004946851,0,1
0.000903939,-0.0005258016,0,1
0.0008896773,-0.0005394151,0,1
0.00088676,-0.000526774,0,1
0.0009123664,-0.0004815578,0,1
0.000968279,-0.0004019837,0,1
0.001027757,-0.0002976137,0,1
0.001060818,-0.0001846542,0,1
0.001053201,-7.882551e-05,0,1
0.001014306,9.175954e-06,0,1
0.0009538552,7.270556e-05,0,1
0.0008720121,0.0001117633,0,1
0.0007668316,0.0001394765,0,1
0.0006345862,0.0001736723,0,1
0.0004717105,0.0002263435,0,1
0.0002807975,0.0002991108,0,1
8.518459e-05,0.0003807918,0,1
-7.623246e-05,0.0004660382,0,1
-0.0001681235,0.0005606844,0,1
-0.0001799543,0.0006828817,0,1
-0.0001292278,0.0008384645,0,1
-4.560212e-05,0.001010416,0,1
3.348575e-05,0.00116292,0,1
8.291568e-05,0.001250759,0,1
9.344993e-05,0.001226936,0,1
6.525056e-05,0.001071353,0,1
6.744974e-06,0.0007940586,0,1
-6.926366e-05,0.0004298976,0,1
-0.0001438137,4.304761e-05,0,1
-0.0001984297,-0.0002992343,0,1
-0.000231329,-0.0005599973,0,1
-0.0002515871,-0.0007337314,0,1
-0.0002639041,-0.0008415048,0,1
-0.0002626076,-0.000911517,0,1
-0.0002446183,-0.0009627296,0,1
-0.0002135018,-0.0009967634,0,1
-0.0001846542,-0.0009978978,0,1
-0.0001780095,-0.0009476576,0,1
-0.0002100984,-0.0008327533,0,1
-0.0002804347,-0.0006514022,0,1
-0.0003721637,-0.0004024699,0,1
-0.0004554653,-8.093236e-05,0,1
-0.0005042469,0.0003109416,0,1
-0.0005117019,0.000725829,0,1
-0.0004877163,0.001081563,0,1
-0.0004494688,0.001285927,0,1
-0.0004167317,0.001280579,0,1
-0.0004005251,0.001084156,0,1
-0.0003956632,0.0007807693,0,1
-0.0003888564,0.0004807861,0,1
-0.000365519,0.000264753,0,1
-0.0003165753,0.0001547106,0,1
-0.0002378116,0.0001231079,0,1
-0.0001243659,0.0001257009,0,1
1.744129e-05,0.0001235941,0,1
0.0001673517,9.474644e-05,0,1
0.0002944109,4.531652e-05,0,1
0.0003681507,-1.108221e-05,0,1
0.000378685,-6.035007e-05,0,1
0.0003451374,-9.859748e-05,0,1
0.0003010556,-0.000127121,0,1
0.0002709115,-0.0001502963,0,1
0.0002550291,-0.0001707166,0,1
0.0002383363,-0.0001904885,0,1
0.0002023578,-0.0002126914,0,1
0.0001401247,-0.0002408908,0,1
5.747142e-05,-0.0002791382,0,1
-3.182657e-05,-0.0003269475,0,1
-0.0001156143,-0.000375405,0,1
-0.0001900023,-0.0004115456,0,1
-0.0002559629,-0.0004243487,0,1
-0.0003173856,-0.0004097628,0,1
-0.000382698,-0.0003728119,0,1
-0.0004595169,-0.0003228959,0,1
-0.0005484907,-0.0002734659,0,1
-0.0006338991,-0.0002293842,0,1
-0.0006847876,-0.0001890299,0,1
-0.0006778188,-0.0001489998,0,1
-0.000606186,-0.0001084835,0,1
-0.0004857715,-6.715681e-05,0,1
-0.0003376438,-2.518189e-05,0,1
-0.0001812508,2.133085e-05,0,1
-3.117831e-05,7.448828e-05,0,1
9.523264e-05,0.0001341283,0,1
0.0001867996,0.0001987924,0,1
0.0002394708,0.0002631324,0,1
0.0002594049,0.0003187208,0,1
0.0002595669,0.0003619922,0,1
0.0002547049,0.0004023465,0,1
0.0002553532,0.0004530729,0,1
0.0002636185,0.0005154681,0,1
0.0002827423,0.0005785116,0,1
0.0003127243,0.000624052,0,1
0.0003532407,0.000631507,0,1
0.0003965121,0.0005930975,0,1
0.0004266563,0.0005271368,0,1
0.0004326527,0.0004645796,0,1
0.0004138531,0.0004281149,0,1
0.0003858158,0.0004251977,0,1
0.000373823,0.0004452938,0,1
0.0003921364,0.0004640934,0,1
0.0004329769,0.0004530729,0,1
0.0004720346,0.0003981328,0,1
0.0004864584,0.0003077003,0,1
0.0004686312,0.0002054371,0,1
0.0004315182,0.0001122495,0,1
0.0003914881,3.526847e-05,0,1
0.000346596,-2.728874e-05,0,1
0.0002837146,-8.255302e-05,0,1
0.0001825859,-0.000132145,0,1
3.089271e-05,-0.0001746061,0,1
-0.0001613168,-0.0002034537,0,1
-0.0003614674,-0.0002193361,0,1
-0.0005282326,-0.0002272773,0,1
-0.0006351956,-0.0002357047,0,1
-0.0006768464,-0.000251101,0,1
-0.000665826,-0.0002809209,0,1
-0.0006163961,-0.0003254889,0,1
-0.0005426564,-0.0003807532,0,1
-0.000454817,-0.0004386105,0,1
-0.000362926,-0.0004869059,0,1
-0.0002831898,-0.0005154294,0,1
-0.0002248464,-0.0005149432,0,1
-0.0001833576,-0.0004828543,0,1
-0.0001527273,-0.0004295348,0,1
-0.0001324691,-0.0003763774,0,1
-0.0001230693,-0.0003399127,0,1
-0.000112211,-0.0003266234,0,1
-7.60704e-05,-0.0003290543,0,1
3.827799e-06,-0.0003366714,0,1
0.0001216493,-0.0003392644,0,1
0.0002485465,-0.0003339163,0,1
0.0003495132,-0.0003151167,0,1
0.000410936,-0.0002707109,0,1
0.0004378388,-0.000191785,0,1
0.0004391353,-8.790117e-05,0,1
0.0004099636,2.441009e-05,0,1
0.0003467581,0.0001221355,0,1
0.0002571359,0.0001856651,0,1
0.0001670276,0.0002072198,0,1
0.0001064152,0.0001918236,0,1
9.085688e-05,0.0001521176,0,1
0.0001214872,0.000103498,0,1
0.0001833962,5.1475e-05,0,1
0.0002538946,-6.706447e-06,0,1
0.0003034866,-7.720486e-05,0,1
0.0003008936,-0.0001632615,0,1
0.0002299089,-0.0002588801,0,1
9.993253e-05,-0.0003475298,0,1
-6.213279e-05,-0.0004096008,0,1
-0.0002177155,-0.0004306693,0,1
-0.0003368335,-0.0003979321,0,1
-0.0004053871,-0.0002992343,0,1
-0.0004272659,-0.0001261486,0,1
-0.0004183523,0.0001083599,0,1
-0.0003992286,0.0003568061,0,1
-0.0003875599,0.0005486915,0,1
-0.00039777,0.0006198382,0,1
-0.0004392588,0.0005404262,0,1
-0.0005040849,0.0003323342,0,1
-0.0005596732,5.179914e-05,0,1
-0.0005711799,-0.0002305186,0,1
-0.0005165638,-0.0004553032,0,1
-0.000400201,-0.0005846313,0,1
-0.0002533699,-0.0006040792,0,1
-0.0001211246,-0.0005185087,0,1
-3.571614e-05,-0.0003489884,0,1
5.934648e-06,-0.0001323071,0,1
2.716521e-05,8.729144e-05,0,1
4.920609e-05,0.0002679943,0,1
7.059871e-05,0.0003804677,0,1
7.52986e-05,0.0004213082,0,1
5.066468e-05,0.0004115842,0,1
7.879432e-06,0.0003848434,0,1
-2.939559e-05,0.0003697714,0,1
-3.879538e-05,0.0003780367,0,1
-8.489166e-06,0.0004047775,0,1
6.427817e-05,0.0004354078,0,1
0.0001715654,0.0004537212,0,1
0.0003017039,0.0004566384,0,1
0.0004410801,0.0004571246,0,1
0.0005751082,0.0004736553,0,1
0.0006866092,0.0005167646,0,1
0.0007564594,0.0005789978,0,1
0.0007673178,0.0006344241,0,1
0.000710919,0.0006541961,0,1
0.0005911527,0.0006234037,0,1
0.000428277,0.0005478812,0,1
0.0002560015,0.0004417284,0,1
0.0001120874,0.0003200173,0,1
2.554455e-05,0.0001931201,0,1
6.90704e-06,6.751948e-05,0,1
5.098881e-05,-5.062615e-05,0,1
0.0001396385,-0.0001582375,0,1
0.0002459534,-0.000258718,0,1
0.000334117,-0.0003575778,0,1
0.0003733368,-0.0004543308,0,1
0.0003597233,-0.000544115,0,1
0.0003015418,-0.0006207718,0,1
0.0002117576,-0.0006774947,0,1
0.000106091,-0.0007103939,0,1
-2.168618e-06,-0.0007149318,0,1
-0.000102325,-0.0006847876,0,1
-0.0001877334,-0.0006183409,0,1
-0.0002603387,-0.0005212637,0,1
-0.0003254889,-0.0004091146,0,1
-0.0003911253,-0.0002966413,0,1
-0.0004625961,-0.0001995642,0,1
-0.0005345531,-0.0001208004,0,1
-0.0005974344,-5.678463e-05,0,1
-0.0006387612,-8.002969e-06,0,1
-0.0006497815,2.295151e-05,0,1
-0.0006313061,3.494434e-05,0,1
-0.0005875485,4.02925e-05,0,1
-0.0005280706,5.860588e-05,0,1
-0.0004603272,0.0001015532,0,1
-0.0003891806,0.0001598967,0,1
-0.000318358,0.0002072198,0,1
-0.0002486699,0.0002229401,0,1
-0.0001715269,0.0002044647,0,1
-7.574627e-05,0.0001756171,0,1
4.402e-05,0.0001587623,0,1
0.0001710792,0.0001563313,0,1
0.0002744769,0.0001462832,0,1
0.0003315239,0.0001067393,0,1
0.0003407616,3.024445e-05,0,1
0.0003156415,-6.116039e-05,0,1
0.0002854973,-0.0001374932,0,1
0.0002795009,-0.0001806025,0,1
0.0003104554,-0.0001904885,0,1
0.0003628026,-0.0001831956,0,1
0.000408505,-0.000179306,0,1
0.0004307079,-0.0001963229,0,1
0.0004350837,-0.000238784,0,1
0.0004336251,-0.0002990722,0,1
0.0004269804,-0.0003598467,0,1
0.0004016982,-0.0003989045,0,1
0.000339141,-0.0003966356,0,1
0.0002386605,-0.0003510952,0,1
0.000110953,-0.0002765452,0,1
-2.761287e-05,-0.0001974573,0,1
-0.0001622891,-0.0001308485,0,1
-0.0002865932,-8.158062e-05,0,1
-0.0004029561,-4.916756e-05,0,1
-0.0005105674,-2.534396e-05,0,1
-0.0005992171,2.207145e-06,0,1
-0.0006590193,4.158902e-05,0,1
-0.0006812222,9.977047e-05,0,1
-0.0006612882,0.0001842065,0,1
-0.0005998655,0.0002948972,0,1
-0.0005058676,0.0004290873,0,1
-0.0003940425,0.0005879114,0,1
-0.0002733039,0.0007715315,0,1
-0.0001522411,0.0009639032,0,1
-4.38194e-05,0.001135693,0,1
3.18651e-05,0.001252704,0,1
6.525056e-05,0.001289169,0,1
6.427817e-05,0.001232608,0,1
5.1475e-05,0.001100687,0,1
5.066468e-05,0.0009300316,0,1
7.918817e-05,0.0007606731,0,1
0.0001412592,0.0006169211,0,1
0.000222616,0.0005015305,0,1
0.0003015418,0.0003994293,0,1
0.0003649094,0.0002989488,0,1
0.0004133669,0.0002013854,0,1
0.0004619866,0.0001143563,0,1
0.0005208163,4.288554e-05,0,1
0.0005806184,-1.62683e-05,0,1
0.0006169211,-7.153257e-05,0,1
0.0006059006,-0.0001279313,0,1
0.0005499881,-0.0001784957,0,1
0.0004793275,-0.0002094502,0,1
0.0004251977,-0.000206533,0,1
0.0004008879,-0.0001682856,0,1
0.0003950536,-0.0001109144,0,1
0.0003864641,-6.06742e-05,0,1
0.0003593992,-4.187462e-05,0,1
0.0003088348,-6.06742e-05,0,1
0.0002435224,-0.0001029732,0,1
0.0001715654,-0.0001475412,0,1
9.847395e-05,-0.0001806025,0,1
1.711715e-05,-0.0002042641,0,1
-8.206682e-05,-0.0002327876,0,1
-0.0001994021,-0.0002737901,0,1
-0.000318358,-0.000325813,0,1
-0.0004219178,-0.0003784843,0,1
-0.000496954,-0.0004293727,0,1
-0.0005468701,-0.0004810716,0,1
-0.000583821,-0.0005335807,0,1
-0.0006154237,-0.00058139,0,1
-0.0006457299,-0.0006141272,0,1
-0.0006700397,-0.0006342233,0,1
-0.0006815463,-0.000658371,0,1
-0.0006770085,-0.0006990494,0,1
-0.0006514022,-0.0007567446,0,1
-0.0006000275,-0.0008220569,0,1
-0.0005261258,-0.0008886658,0,1
-0.0004444448,-0.0009466851,0,1
-0.0003663294,-0.0009828256,0,1
-0.0002927517,-0.0009925497,0,1
-0.0002125294,-0.0009758569,0,1
-0.0001138316,-0.0009392301,0,1
9.013889e-06,-0.0008854245,0,1
0.0001504969,-0.000804878,0,1
0.0002858215,-0.0006935392,0,1
0.0003806297,-0.0005489769,0,1
0.0004070464,-0.000372974,0,1
0.0003600474,-0.0001658546,0,1
0.000259891,8.016057e-05,0,1
0.0001419075,0.0003816021,0,1
4.110282e-05,0.0007481941,0,1
-1.416145e-05,0.001151737,0,1
-5.734056e-06,0.001524002,0,1
6.703327e-05,0.001771314,0,1
0.0001961994,0.001816369,0,1
0.0003572923,0.001642148,0,1
0.000517575,0.001307158,0,1
0.0006447964,0.0009147974,0,1
0.0007102708,0.0005655463,0,1
0.0006939021,0.0003195311,0,1
0.0005987698,0.0001825859,0,1
0.0004551798,0.0001188942,0,1
0.0002999212,8.178122e-05,0,1
0.0001542244,3.996837e-05,0,1
2.81376e-05,-1.075808e-05,0,1
-7.850138e-05,-5.565017e-05,0,1
-0.0001653684,-7.752899e-05,0,1
-0.0002259808,-6.796714e-05,0,1
-0.0002527216,-3.247483e-05,0,1
-0.0002366771,1.047248e-05,0,1
-0.000169258,3.753739e-05,0,1
-5.889148e-05,2.732727e-05,0,1
6.573675e-05,-3.085418e-05,0,1
0.0001688103,-0.0001276072,0,1
0.0002222919,-0.0002374874,0,1
0.0002198609,-0.0003272716,0,1
0.0001783722,-0.0003768636,0,1
0.0001240803,-0.000377836,0,1
8.145709e-05,-0.0003369955,0,1
5.601284e-05,-0.0002697385,0,1
2.829966e-05,-0.0001972953,0,1
-2.404744e-05,-0.0001404103,0,1
-0.000112211,-0.0001125351,0,1
-0.0002211189,-0.0001110765,0,1
-0.0003188442,-0.0001235555,0,1
-0.0003807532,-0.0001381414,0,1
-0.0004003631,-0.0001546721,0,1
-0.0003904771,-0.0001801163,0,1
-0.0003741085,-0.0002201465,0,1
-0.0003783222,-0.0002708729,0,1
-0.0004074939,-0.0003178718,0,1
-0.0004533584,-0.0003467195,0,1
-0.0005010056,-0.0003494746,0,1
-0.0005347152,-0.0003305129,0,1
-0.0005301774,-0.0002963172,0,1
-0.0004612996,-0.000258718,0,1
-0.0003251648,-0.0002259808,0,1
-0.0001488377,-0.0001930815,0,1
2.230325e-05,-0.0001493239,0,1
0.000138342,-9.470791e-05,0,1
0.0001743205,-3.522994e-05,0,1
0.0001402868,2.716521e-05,0,1
8.145709e-05,0.0001041462,0,1
5.1475e-05,0.0002128921,0,1
7.724339e-05,0.0003603715,0,1
0.000145797,0.000520168,0,1
0.0002164575,0.0006412309,0,1
0.0002420638,0.000673644,0,1
0.0001961994,0.0006026593,0,1
9.134307e-05,0.0004499937,0,1
-3.604027e-05,0.0002662116,0,1
-0.0001418689,9.750156e-05,0,1
-0.0002010227,-2.89094e-05,0,1
-0.0002039399,-0.0001102662,0,1
-0.0001616409,-0.0001585616,0,1
-9.859748e-05,-0.0001856265,0,1
-3.717473e-05,-0.0002036158,0,1
1.12828e-05,-0.0002186879,0,1
4.337174e-05,-0.0002303566,0,1
6.022653e-05,-0.0002308428,0,1
6.735741e-05,-0.0002118811,0,1
8.016057e-05,-0.0001679614,0,1
0.0001096565,-0.0001070249,0,1
0.0001579519,-4.187462e-05,0,1
0.0002161334,1.760335e-05,0,1
0.000277232,6.541262e-05,0,1
0.0003396272,0.0001030118,0,1
0.0003953777,0.0001346145,0,1
0.0004311941,0.0001590864,0,1
0.0004405939,0.0001702689,0,1
0.0004271425,0.0001699448,0,1
0.0004028327,0.0001652449,0,1
0.000371392,0.0001568175,0,1
0.0003355756,0.0001305629,0,1
0.0003030004,7.20573e-05,0,1
0.0002838767,-1.545797e-05,0,1
0.0002798251,-0.0001075111,0,1
0.0002842008,-0.0001720131,0,1
0.0002953834,-0.0001968091,0,1
0.000314345,-0.0001818991,0,1
0.0003388169,-0.0001413827,0,1
0.0003584268,-0.0001000561,0,1
0.0003619922,-8.773911e-05,0,1
0.0003418961,-0.000119666,0,1
0.0002924662,-0.0001874093,0,1
0.0002185644,-0.0002590421,0,1
0.0001313732,-0.0002950206,0,1
4.304761e-05,-0.0002600145,0,1
-3.458168e-05,-0.0001430034,0,1
-0.0001010285,2.76514e-05,0,1
-0.0001587237,0.0001924718,0,1
-0.0001959987,0.0002913317,0,1
-0.0001994021,0.0002923041,0,1
-0.0001614788,0.0002021958,0,1
-8.773911e-05,6.103686e-05,0,1
2.207145e-06,-7.979791e-05,0,1
8.242948e-05,-0.0001702304,0,1
0.0001279698,-0.0001755785,0,1
0.0001226217,-9.324933e-05,0,1
6.768154e-05,3.462021e-05,0,1
-2.080613e-05,0.000135911,0,1
-0.0001255003,0.0001624898,0,1
-0.0002277635,0.0001229458,0,1
-0.0003118754,6.184718e-05,0,1
-0.0003621157,3.13789e-05,0,1
-0.0003724878,5.974033e-05,0,1
-0.0003527159,0.0001415833,0,1
-0.0003292164,0.0002456293,0,1
-0.0003267854,0.0003334687,0,1
-0.000358064,0.0003872744,0,1
-0.0004144627,0.0004182289,0,1
-0.000474589,0.0004543695,0,1
-0.0005189948,0.0005248679,0,1
-0.0005407116,0.0006556547,0,1
-0.0005423322,0.0008588848,0,1
-0.000539091,0.001114786,0,1
-0.0005470322,0.00136696,0,1
-0.0005692351,0.00155836,0,1
-0.0005933828,0.001644093,0,1
-0.0006032689,0.001592718,0,1
-0.0005812279,0.00140148,0,1
-0.0005223983,0.001093718,0,1
-0.0004395829,0.0007222636,0,1
-0.0003549848,0.0003623164,0,1
-0.0002828657,8.518459e-05,0,1
-0.0002193361,-7.574627e-05,0,1
-0.0001489998,-0.0001368449,0,1
-6.310517e-05,-0.0001496481,0,1
3.526847e-05,-0.0001635857,0,1
0.0001252147,-0.0002047502,0,1
0.0001840444,-0.0002690902,0,1
0.0001986303,-0.0003394265,0,1
0.0001798307,-0.0004011734,0,1
0.0001534141,-0.000457248,0,1
0.0001453108,-0.0005164018,0,1
0.0001684862,-0.0005846313,0,1
0.0002229401,-0.0006577228,0,1
0.0003013798,-0.0007244936,0,1
0.0003992672,-0.0007710064,0,1
0.0005107683,-0.0007941817,0,1
0.0006185417,-0.0007995299,0,1
0.0006939021,-0.0008009885,0,1
0.0007005468,-0.000807309,0,1
0.0006209727,-0.000814764,0,1
0.0004657141,-0.0008105503,0,1
0.0002707494,-0.0007878611,0,1
7.935024e-05,-0.0007483172,0,1
-7.590833e-05,-0.0006993735,0,1
-0.0001862748,-0.0006462161,0,1
-0.0002569353,-0.0005857658,0,1
-0.0002945344,-0.0005131605,0,1
-0.0003039342,-0.0004202971,0,1
-0.0002852967,-0.0003026377,0,1
-0.0002444563,-0.0001677994,0,1
-0.0002008607,-3.328516e-05,0,1
-0.0001712027,8.097089e-05,0,1
-0.0001626133,0.0001582761,0,1
-0.0001684476,0.000195227,0,1
-0.000166989,0.0001971717,0,1
-0.0001426792,0.0001814514,0,1
-0.0001018388,0.0001571416,0,1
-7.056019e-05,0.0001245665,0,1
-6.958779e-05,7.90261e-05,0,1
-9.875954e-05,1.889987e-05,0,1
-0.0001428413,-5.289507e-05,0,1
-0.0001878955,-0.0001280934,0,1
-0.000226467,-0.0001956746,0,1
-0.000248832,-0.0002467252,0,1
-0.0002442942,-0.00027849,0,1
-0.0002031296,-0.0002950206,0,1
-0.0001316588,-0.000298424,0,1
-4.074016e-05,-0.0002867553,0,1
5.876794e-05,-0.0002569353,0,1
0.0001610312,-0.0002071812,0,1
0.0002658874,-0.0001451102,0,1
0.0003576164,-8.465986e-05,0,1
0.0004156358,-3.782299e-05,0,1
0.0004286011,-5.247859e-06,0,1
0.0004041292,2.197911e-05,0,1
0.0003579406,5.844381e-05,0,1
0.0003034866,0.0001116012,0,1
0.000252436,0.0001767515,0,1
0.0002229401,0.0002393087,0,1
0.0002268297,0.0002825802,0,1
0.0002657254,0.0002942489,0,1
0.0003234207,0.0002782044,0,1
0.0003801436,0.0002409294,0,1
0.0004190393,0.0001850168,0,1
0.0004295735,0.0001141943,0,1
0.0004119083,3.753739e-05,0,1
0.000368799,-3.182657e-05,0,1
0.0003057555,-8.336335e-05,0,1
0.0002312055,-0.0001139937,0,1
0.0001492004,-0.0001306864,0,1
6.557468e-05,-0.000144624,0,1
-1.124428e-05,-0.0001609926,0,1
-6.991193e-05,-0.0001851404,0,1
-0.0001075111,-0.0002198223,0,1
-0.0001289037,-0.000258718,0,1
-0.000137007,-0.0002901587,0,1
-0.0001255003,-0.0003013411,0,1
-8.935975e-05,-0.00027849,0,1
-3.490581e-05,-0.0002182017,0,1
2.603075e-05,-0.0001261486,0,1
8.161915e-05,-1.610624e-05,0,1
0.0001237561,9.63671e-05,0,1
0.0001496866,0.0001981441,0,1
0.0001542244,0.0002783665,0,1
0.0001334801,0.0003161277,0,1
8.210535e-05,0.0002931144,0,1
-1.173047e-05,0.0002060853,0,1
-0.0001496481,7.756752e-05,0,1
-0.0003138202,-5.629844e-05,0,1
-0.0004664857,-0.0001658546,0,1
-0.0005646973,-0.0002331117,0,1
-0.000578959,-0.0002601766,0,1
-0.0005057055,-0.0002695764,0,1
-0.0003700569,-0.0002874036,0,1
-0.0002248464,-0.0003240303,0,1
-0.0001209625,-0.000372974,0,1
-8.757704e-05,-0.0004157593,0,1
-0.0001193418,-0.000430021,0,1
-0.0001912988,-0.0003993907,0,1
-0.0002671454,-0.0003180339,0,1
-0.000305879,-0.0001895161,0,1
-0.000286107,-1.108221e-05,0,1
-0.0002146363,0.0002328261,0,1
-0.0001209625,0.0005470709,0,1
-4.138842e-05,0.0008943772,0,1
-4.437533e-06,0.001200033,0,1
-1.529591e-05,0.00137555,0,1
-5.548811e-05,0.001365988,0,1
-9.2439e-05,0.001181233,0,1
-9.033215e-05,0.0008904876,0,1
-3.63644e-05,0.0005877494,0,1
6.622294e-05,0.0003524304,0,1
0.0001992786,0.0002188885,0,1
0.0003339549,0.0001822617,0,1
0.0004316803,0.0002054371,0,1
0.0004709002,0.0002466017,0,1
0.0004585832,0.0002775562,0,1
0.0004276287,0.0002900352,0,1
0.0004145014,0.0002877662,0,1
0.0004324906,0.0002691288,0,1
0.0004709002,0.0002329882,0,1
0.000507527,0.0001806411,0,1
0.0005206542,0.0001232699,0,1
0.0005057442,7.189524e-05,0,1
0.0004760863,4.110282e-05,0,1
0.0004524247,4.515445e-05,0,1
0.0004491834,8.972242e-05,0,1
0.0004627969,0.0001696206,0,1
0.0004814344,0.0002730183,0,1
0.0004922928,0.000381278,0,1
0.0004783552,0.0004770586,0,1
0.0004251977,0.0005485295,0,1
0.0003378445,0.0005832114,0,1
0.0002393087,0.0005733255,0,1
0.0001545486,0.0005247059,0,1
9.118101e-05,0.0004514523,0,1
4.304761e-05,0.0003619922,0,1
-8.489166e-06,0.0002624841,0,1
-7.590833e-05,0.0001582761,0,1
-0.000161965,5.56887e-05,0,1
-0.0002585559,-4.171256e-05,0,1
-0.0003590364,-0.0001274451,0,1
-0.000464703,-0.0001959987,0,1
-0.0005661559,-0.0002467252,0,1
-0.0006457299,-0.0002874036,0,1
-0.0006878669,-0.00032322,0,1
-0.0006875428,-0.000353202,0,1
-0.0006575607,-0.0003682741,0,1
-0.0006191512,-0.0003585502,0,1
-0.0005919242,-0.0003143064,0,1
-0.0005802555,-0.0002368392,0,1
-0.0005682627,-0.0001498101,0,1
-0.0005411978,-8.854943e-05,0,1
-0.000496954,-8.206682e-05,0,1
-0.0004463896,-0.0001339277,0,1
-0.0004057112,-0.0002250084,0,1
-0.0003901529,-0.000325651,0,1
-0.0004118697,-0.000412518,0,1
-0.0004736166,-0.0004744269,0,1
-0.0005640491,-0.0005079744,0,1
-0.0006604778,-0.0005196431,0,1
-0.0007308142,-0.0005105674,0,1
-0.0007410243,-0.000484637,0,1
-0.0006747396,-0.0004531963,0,1
-0.0005335807,-0.0004298589,0,1
-0.000330675,-0.0004157593,0,1
-7.963584e-05,-0.0003971218,0,1
0.0001987924,-0.0003562813,0,1
0.0004710622,-0.0002875656,0,1
0.0006997365,-0.0002078295,0,1
0.0008571021,-0.0001460826,0,1
0.0009297074,-0.0001266348,0,1
0.00092128,-0.0001556445,0,1
0.0008431645,-0.0002285739,0,1
0.0007118915,-0.000350609,0,1
0.000534916,-0.0005240189,0,1
0.0003195311,-0.0007345417,0,1
7.238143e-05,-0.0009449024,0,1
-0.0001806025,-0.001104861,0,1
-0.0003956632,-0.001173577,0,1
-0.0005295291,-0.00113225,0,1
-0.0005559457,-0.0009938462,0,1
-0.0004609755,-0.0007943438,0,1
-0.0002517492,-0.0005750695,0,1
3.154097e-05,-0.0003741085,0,1
0.0003313618,-0.0002138259,0,1
0.0005851563,-9.956988e-05,0,1
0.0007493285,-2.42095e-05,0,1
0.0008089686,2.635488e-05,0,1
0.0007712074,6.525056e-05,0,1
0.000661327,0.0001057669,0,1
0.0005166026,0.0001582761,0,1
0.0003678266,0.0002214815,0,1
0.0002339606,0.0002840388,0,1
0.0001227837,0.0003311998,0,1
4.272347e-05,0.0003628026,0,1
2.623614e-07,0.0003850055,0,1
-5.085794e-06,0.0004062361,0,1
2.489629e-05,0.0004392974,0,1
8.567078e-05,0.0004871067,0,1
0.0001634622,0.0005362125,0,1
0.0002456293,0.0005631154,0,1
0.000319369,0.0005558224,0,1
0.0003734989,0.0005214646,0,1
0.0004081808,0.0004812723,0,1
0.00043087,0.0004587452,0,1
0.0004521006,0.0004623107,0,1
0.0004718725,0.0004858102,0,1
0.0004811103,0.0005136854,0,1
0.0004700898,0.0005316747,0,1
0.000428439,0.0005294057,0,1
0.0003524304,0.0005029891,0,1
0.0002519498,0.0004610142,0,1
0.0001462832,0.0004190393,0,1
5.341979e-05,0.0003890571,0,1
-8.651231e-06,0.0003728506,0,1
-3.474375e-05,0.0003658818,0,1
-2.939559e-05,0.0003631267,0,1
-1.124428e-05,0.0003600474,0,1
2.623614e-07,0.0003563199,0,1
-4.923729e-06,0.0003535648,0,1
-3.117831e-05,0.0003550234,0,1
-7.623246e-05,0.0003623164,0,1
-0.0001365208,0.0003675024,0,1
-0.0002113949,0.000361506,0,1
-0.0002953447,0.000334117,0,1
-0.00038286,0.0002798251,0,1
-0.0004648651,0.0002034923,0,1
-0.0005285567,0.0001154908,0,1
-0.0005729626,2.505836e-05,0,1
-0.000603593,-6.553616e-05,0,1
-0.0006257959,-0.0001637477,0,1
-0.0006420024,-0.0002773555,0,1
-0.0006541573,-0.000400039,0,1
-0.0006595054,-0.0005151053,0,1
-0.000660802,-0.0006058619,0,1
-0.000665826,-0.0006593434,0,1
-0.0006755499,-0.0006771705,0,1
-0.0006885151,-0.0006744154,0,1
-0.0007074767,-0.0006676087,0,1
-0.0007348658,-0.0006655019,0,1
-0.0007663065,-0.0006713362,0,1
-0.0007932093,-0.0006763602,0,1
-0.0008108745,-0.0006643674,0,1
-0.0008144398,-0.000613641,0,1
-0.0007969369,-0.0005068399,0,1
-0.0007567446,-0.0003371576,0,1
-0.0006951598,-0.0001091317,0,1
-0.0006191512,0.0001558451,0,1
-0.0005423322,0.0004276287,0,1
-0.0004765338,0.0006760749,0,1
-0.0004232143,0.0008854635,0,1
-0.0003736223,0.001056929,0,1
-0.0003151167,0.001185609,0,1
-0.0002429977,0.001254973,0,1
-0.0001716889,0.001252056,0,1
-0.0001135075,0.001173778,0,1
-6.91016e-05,0.001027757,0,1
-3.571614e-05,0.0008237166,0,1
-6.868513e-06,0.0005827253,0,1
2.359977e-05,0.0003380065,0,1
5.974033e-05,0.0001261871,0,1
9.63671e-05,-3.069211e-05,0,1
0.0001375317,-0.0001318209,0,1
0.0001869616,-0.0001900023,0,1
0.0002376881,-0.0002232257,0,1
0.0002765838,-0.0002447804,0,1
0.0002901973,-0.0002582318,0,1
0.0002654013,-0.0002592042,0,1
0.0001976579,-0.0002475355,0,1
0.0001043083,-0.0002347323,0,1
3.13789e-05,-0.0002303566,0,1
3.462021e-05,-0.0002350565,0,1
0.0001514693,-0.000243808,0,1
0.0003819262,-0.0002546664,0,1
0.0006916333,-0.0002681178,0,1
0.00103116,-0.0002801106,0,1
0.001352861,-0.0002883759,0,1
0.001619621,-0.0002917793,0,1
0.001807617,-0.0002893484,0,1
0.001901129,-0.0002817312,0,1
0.001900805,-0.0002796244,0,1
0.001821555,-0.0002883759,0,1
0.001688985,-0.0003062031,0,1
0.001526271,-0.00032322,0,1
0.001352536,-0.0003297026,0,1
0.00117864,-0.0003215994,0,1
0.001001178,-0.0003026377,0,1
0.000812372,-0.0002765452,0,1
0.0006075213,-0.0002420253,0,1
0.0003991052,-0.0001989159,0,1
0.000215161,-0.0001525652,0,1
8.858796e-05,-0.0001054042,0,1
3.656499e-05,-6.051213e-05,0,1
5.56887e-05,-1.99958e-05,0,1
0.0001226217,2.084466e-05,0,1
0.0002065715,7.108491e-05,0,1
0.0002764217,0.0001292664,0,1
0.0003065659,0.0001880961,0,1
0.0002825802,0.0002389846,0,1
0.000200251,0.0002744769,0,1
7.059871e-05,0.0002966799,0,1
-8.093236e-05,0.0003062417,0,1
-0.0002232257,0.0003060797,0,1
-0.0003353749,0.000299597,0,1
-0.0004130042,0.0002892249,0,1
-0.0004619479,0.0002791768,0,1
-0.0004919299,0.0002683184,0,1
-0.0005159156,0.0002509774,0,1
-0.0005486528,0.0002221298,0,1
-0.0005969483,0.0001801549,0,1
-0.0006669604,0.0001300767,0,1
-0.0007539895,7.6271e-05,0,1
-0.0008356704,2.100672e-05,0,1
-0.0008914209,-3.441962e-05,0,1
-0.0009246443,-8.919769e-05,0,1
-0.0009483058,-0.000144624,0,1
-0.0009659709,-0.0002023193,0,1
-0.0009752086,-0.0002671454,0,1
-0.0009729397,-0.0003379679,0,1
-0.0009591642,-0.0004057112,0,1
-0.0009280476,-0.0004562756,0,1
-0.0008794281,-0.0004833405,0,1
-0.0008154123,-0.0004929024,0,1
-0.0007356761,-0.0004917679,0,1
-0.000638599,-0.0004831784,0,1
-0.0005308256,-0.0004703753,0,1
-0.0004246728,-0.0004616237,0,1
-0.0003254889,-0.00046211,0,1
-0.0002348944,-0.0004695649,0,1
-0.0001530514,-0.0004742648,0,1
-8.579432e-05,-0.0004617858,0,1
-3.150244e-05,-0.0004233763,0,1
1.501031e-05,-0.000355633,0,1
5.52025e-05,-0.0002630937,0,1
7.886404e-05,-0.0001527273,0,1
7.254349e-05,-2.307504e-05,0,1
3.688912e-05,0.0001373696,0,1
-1.335113e-05,0.0003255275,0,1
-5.743289e-05,0.0005119027,0,1
-7.882551e-05,0.0006447964,0,1
-7.412562e-05,0.0006820714,0,1
-4.673658e-05,0.0006201624,0,1
-1.027188e-05,0.0004892136,0,1
1.711715e-05,0.0003358997,0,1
2.667901e-05,0.0002008992,0,1
1.9224e-05,0.0001098185,0,1
1.883015e-06,6.978839e-05,0,1
-2.696461e-05,7.481241e-05,0,1
-6.974985e-05,0.0001051186,0,1
-0.0001243659,0.0001399627,0,1
-0.0001754164,0.0001671896,0,1
-0.0002042641,0.0001764274,0,1
-0.0002006986,0.0001571416,0,1
-0.0001656925,0.0001013911,0,1
-0.0001076731,1.338965e-05,0,1
-3.539201e-05,-8.919769e-05,0,1
4.013043e-05,-0.0001791439,0,1
0.0001107909,-0.0002402425,0,1
0.0001692965,-0.0002627696,0,1
0.0002065715,-0.0002489941,0,1
0.0002145127,-0.0002094502,0,1
0.0002021958,-0.0001609926,0,1
0.0001916615,-0.000117235,0,1
0.0001999268,-8.352541e-05,0,1
0.0002227781,-5.483985e-05,0,1
0.0002534084,-2.501983e-05,0,1
0.0002882525,9.175954e-06,0,1
0.0003313618,4.320967e-05,0,1
0.0003914881,7.886404e-05,0,1
0.0004728449,0.0001163011,0,1
0.0005655463,0.0001547106,0,1
0.0006431757,0.0001905271,0,1
0.0006752646,0.0002218057,0,1
0.0006503066,0.0002503292,0,1
0.0005853184,0.0002882525,0,1
0.0005088235,0.0003427064,0,1
0.0004423766,0.0004153117,0,1
0.0003921364,0.0004987754,0,1
0.0003435168,0.0005778633,0,1
0.0002795009,0.0006355586,0,1
0.0001919856,0.0006550064,0,1
8.615699e-05,0.0006284277,0,1
-2.615429e-05,0.0005589016,0,1
-0.0001324691,0.0004595556,0,1
-0.0002266291,0.0003491891,0,1
-0.0003055549,0.0002443328,0,1
-0.0003608192,0.0001519555,0,1
-0.0003818876,7.335383e-05,0,1
-0.0003671397,9.338019e-06,0,1
-0.000330675,-4.398147e-05,0,1
-0.0002914552,-9.373552e-05,0,1
-0.0002639041,-0.0001488377,0,1
-0.000243808,-0.0002151224,0,1
-0.0002172293,-0.0002969654,0,1
-0.000166827,-0.0003911253,0,1
-8.887356e-05,-0.0004875542,0,1
-1.358292e-06,-0.0005726385,0,1
6.816773e-05,-0.0006353577,0,1
0.0001005808,-0.0006697156,0,1
9.344993e-05,-0.000675712,0,1
5.876794e-05,-0.0006573986,0,1
1.695509e-05,-0.0006181788,0,1
-9.299493e-06,-0.0005585388,0,1
-5.734056e-06,-0.0004828543,0,1
2.975825e-05,-0.0003990665,0,1
8.583286e-05,-0.0003203028,0,1
0.0001398006,-0.0002564491,0,1
0.0001701068,-0.0002060468,0,1
0.0001616794,-0.0001608306,0,1
0.0001117633,-0.0001139937,0,1
3.769945e-05,-6.618442e-05,0,1
-3.020592e-05,-2.145439e-05,0,1
-6.310517e-05,1.663096e-05,0,1
-4.576419e-05,4.580272e-05,0,1
1.241726e-05,6.573675e-05,0,1
8.129502e-05,7.67572e-05,0,1
0.0001339663,8.242948e-05,0,1
0.0001558451,8.79397e-05,0,1
0.0001445005,0.0001026876,0,1
0.0001018773,0.0001273216,0,1
3.429608e-05,0.000153252,0,1
-4.252288e-05,0.0001678379,0,1
-0.0001104282,0.0001657311,0,1
-0.0001533756,0.0001542244,0,1
-0.0001652063,0.0001524417,0,1
-0.0001491618,0.0001770756,0,1
-0.0001250141,0.0002265056,0,1
-0.0001099421,0.0002817699,0,1
-0.0001054042,0.0003201794,0,1
-0.0001002181,0.0003209897,0,1
-8.595638e-05,0.0002759355,0,1
-6.197072e-05,0.0001867996,0,1
-3.571614e-05,5.876794e-05,0,1
-1.950961e-05,-9.730096e-05,0,1
-2.258885e-05,-0.0002643903,0,1
-4.38194e-05,-0.0004193247,0,1
-6.958779e-05,-0.0005426564,0,1
-8.547019e-05,-0.0006306578,0,1
-7.947377e-05,-0.0006902979,0,1
-4.38194e-05,-0.0007272488,0,1
1.387585e-05,-0.0007351899,0,1
7.6271e-05,-0.0007047217,0,1
0.0001244044,-0.0006353577,0,1
0.000143204,-0.0005334187,0,1
0.0001266733,-0.0004113835,0,1
7.837785e-05,-0.0002794623,0,1
1.1769e-05,-0.0001327933,0,1
-5.872941e-05,6.379197e-05,0,1
-0.0001126972,0.0003525924,0,1
-0.0001316588,0.0007212912,0,1
-0.0001070249,0.001094366,0,1
-4.268495e-05,0.001365178,0,1
4.094075e-05,0.001447831,0,1
0.0001218114,0.001321744,0,1
0.000187934,0.001042667,0,1
0.0002378501,0.0007161052,0,1
0.0002709115,0.0004394595,0,1
0.0002892249,0.0002603772,0,1
0.0002971661,0.0001746447,0,1
0.0003013798,0.0001579519,0,1
0.0003049452,0.000185503,0,1
0.000304297,0.0002386605,0,1
0.0002890628,0.000302028,0,1
0.0002576221,0.0003606957,0,1
0.000220185,0.0003991052,0,1
0.0001845306,0.0004033189,0,1
0.0001516314,0.0003670162,0,1
0.0001216493,0.0003005694,0,1
9.377406e-05,0.0002247229,0,1
6.217132e-05,0.0001587623,0,1
2.246531e-05,0.0001124116,0,1
-2.696461e-05,8.858796e-05,0,1
-7.153257e-05,8.194328e-05,0,1
-7.947377e-05,8.599492e-05,0,1
-3.053005e-05,9.118101e-05,0,1
7.027458e-05,8.939829e-05,0,1
0.0001961994,7.497447e-05,0,1
0.0003007315,4.628891e-05,0,1
0.0003449753,5.934648e-06,0,1
0.0003154794,-3.895745e-05,0,1
0.0002211574,-8.465986e-05,0,1
8.84259e-05,-0.0001303623,0,1
-4.625038e-05,-0.0001729855,0,1
-0.0001558065,-0.0002058847,0,1
-0.0002285739,-0.0002220912,0,1
-0.0002700626,-0.0002180396,0,1
-0.0002912931,-0.0002023193,0,1
-0.0003053928,-0.0001927574,0,1
-0.0003188442,-0.000201671,0,1
-0.0003275957,-0.0002259808,0,1
-0.0003298647,-0.000251101,0,1
-0.000325651,-0.0002656868,0,1
-0.0003201407,-0.0002677937,0,1
-0.0003167374,-0.0002617972,0,1
-0.0003186821,-0.0002551526,0,1
-0.000328082,-0.0002566112,0,1
-0.0003423437,-0.0002723315,0,1
-0.0003587123,-0.0002974516,0,1
-0.0003676259,-0.0003138202,0,1
-0.0003566054,-0.0003015032,0,1
-0.0003251648,-0.0002519113,0,1
-0.0002846485,-0.000174444,0,1
-0.000243808,-8.887356e-05,0,1
-0.0002096122,-1.448558e-05,0,1
-0.0001763888,3.478228e-05,0,1
-0.0001224211,5.56887e-05,0,1
-3.409549e-05,5.19612e-05,0,1
8.631905e-05,3.332369e-05,0,1
0.0002218057,6.258778e-06,0,1
0.000349027,-2.356124e-05,0,1
0.0004485351,-5.775702e-05,0,1
0.0005136854,-9.551824e-05,0,1
0.0005525811,-0.0001311726,0,1
0.0005738117,-0.0001579134,0,1
0.0005830494,-0.000171851,0,1
0.0005853184,-0.0001707166,0,1
0.0005817529,-0.0001468929,0,1
0.000569598,-9.811128e-05,0,1
0.0005407503,-3.393342e-05,0,1
0.000485324,2.554455e-05,0,1
0.0004052637,6.233338e-05,0,1
0.0003182346,8.016057e-05,0,1
0.0002457913,9.847395e-05,0,1
0.0002012234,0.0001409351,0,1
0.0001824238,0.0002122438,0,1
0.0001726999,0.0002910076,0,1
0.0001451488,0.0003418961,0,1
7.967438e-05,0.0003410858,0,1
-2.42095e-05,0.0002829043,0,1
-0.0001438137,0.0001864754,0,1
-0.0002507768,7.837785e-05,0,1
-0.0003259751,-1.594417e-05,0,1
-0.000365519,-8.174268e-05,0,1
-0.000380267,-0.0001185315,0,1
-0.0003835083,-0.000134576,0,1
-0.0003875599,-0.0001386276,0,1
-0.0003961493,-0.0001376552,0,1
-0.0004032803,-0.0001313347,0,1
-0.0004018217,-0.0001177212,0,1
-0.000387722,-9.2439e-05,0,1
-0.0003590364,-5.257093e-05,0,1
-0.000325813,-5.479652e-07,0,1
-0.0002953447,5.925414e-05,0,1
-0.0002643903,0.0001242423,0,1
-0.0002259808,0.0001884202,0,1
-0.0001677994,0.0002441707,0,1
-8.692878e-05,0.0002804733,0,1
2.369211e-06,0.0002947351,0,1
7.221937e-05,0.0002908455,0,1
0.0001013911,0.0002744769,0,1
8.42122e-05,0.0002469258,0,1
3.380988e-05,0.000200413,0,1
-2.988179e-05,0.000128456,0,1
-9.049421e-05,3.802358e-05,0,1
-0.0001449482,-5.629844e-05,0,1
-0.0001977815,-0.0001340898,0,1
-0.000251101,-0.0001835197,0,1
-0.0002961551,-0.0002062088,0,1
-0.0003259751,-0.0002151224,0,1
-0.0003426678,-0.0002251705,0,1
-0.0003536883,-0.0002444563,0,1
-0.000365357,-0.0002749245,0,1
-0.0003788084,-0.0003130099,0,1
-0.0003932322,-0.0003522297,0,1
-0.0004128421,-0.0003820497,0,1
-0.0004395829,-0.0003865875,0,1
-0.0004744269,-0.0003575778,0,1
-0.0005073262,-0.0002934,0,1
-0.0005189948,-0.0002003745,0,1
-0.0004971161,-0.0001010285,0,1
-0.0004382863,-1.886135e-05,0,1
-0.0003533641,2.408596e-05,0,1
-0.0002616352,1.501031e-05,0,1
-0.0001835197,-4.171256e-05,0,1
-0.0001306864,-0.0001282554,0,1
-9.924574e-05,-0.0002224154,0,1
-6.91016e-05,-0.000301017,0,1
-1.643037e-05,-0.0003491504,0,1
6.897806e-05,-0.0003574158,0,1
0.0001785342,-0.0003250027,0,1
0.0002976523,-0.0002566112,0,1
0.0004141773,-0.0001674752,0,1
0.0005193577,-8.125649e-05,0,1
0.0006071971,-1.821308e-05,0,1
0.0006689441,1.322759e-05,0,1
0.0006981159,1.419998e-05,0,1
0.0006930918,-6.544382e-06,0,1
0.0006584098,-3.328516e-05,0,1
0.0006052523,-5.22468e-05,0,1
0.0005457744,-5.257093e-05,0,1
0.0004872688,-2.534396e-05,0,1
0.0004392974,2.910999e-05,0,1
0.0004122325,0.0001007429,0,1
0.0004119083,0.0001667035,0,1
0.0004326527,0.0002115956,0,1
0.0004483731,0.0002310434,0,1
0.00043087,0.0002308813,0,1
0.0003581026,0.0002149989,0,1
0.0002205092,0.0001958752,0,1
3.202716e-05,0.0001788584,0,1
-0.0001708786,0.0001676758,0,1
-0.0003476919,0.0001660552,0,1
-0.0004703753,0.0001761032,0,1
-0.0005251534,0.0001947408,0,1
-0.0005198052,0.0002125679,0,1
-0.0004741028,0.0002232643,0,1
-0.0004049009,0.0002281262,0,1
-0.0003165753,0.0002321778,0,1
-0.0002068571,0.000235095,0,1
-7.639453e-05,0.0002269918,0,1
6.654708e-05,0.0001919856,0,1
0.0002091646,0.000118408,0,1
0.0003357376,7.717366e-06,0,1
0.0004336251,-0.0001269589,0,1
0.0004919686,-0.0002617972,0,1
0.0005078511,-0.0003698948,0,1
0.0004859722,-0.0004339106,0,1
0.0004313562,-0.0004454172,0,1
0.0003506476,-0.0004091146,0,1
0.0002444948,-0.0003344025,0,1
0.0001163011,-0.0002350565,0,1
-2.015787e-05,-0.0001266348,0,1
-0.0001413827,-2.501983e-05,0,1
-0.0002267911,5.844381e-05,0,1
-0.0002608248,0.0001218114,0,1
-0.0002402425,0.0001717275,0,1
-0.0001786577,0.0002208333,0,1
-9.892161e-05,0.0002777182,0,1
-2.501983e-05,0.000339141,0,1
1.808955e-05,0.0003958639,0,1
1.452411e-05,0.0004368664,0,1
-3.198864e-05,0.0004496696,0,1
-9.681477e-05,0.0004276287,0,1
-0.0001564548,0.0003760919,0,1
-0.0001896782,0.0003125623,0,1
-0.0001846542,0.0002569738,0,1
-0.0001454344,0.0002235884,0,1
-8.790117e-05,0.00021273,0,1
-2.874733e-05,0.0002161334,0,1
1.241726e-05,0.0002208333,0,1
2.230325e-05,0.000210137,0,1
-7.354709e-06,0.0001801549,0,1
-6.48879e-05,0.0001352628,0,1
-0.000114804,8.534666e-05,0,1
-0.0001177212,4.126489e-05,0,1
-6.099833e-05,3.989864e-06,0,1
3.769945e-05,-2.955766e-05,0,1
0.000133318,-6.051213e-05,0,1
0.0001842065,-8.563225e-05,0,1
0.0001702689,-9.649064e-05,0,1
0.0001038221,-9.130454e-05,0,1
1.938607e-05,-7.412562e-05,0,1
-4.80331e-05,-5.59743e-05,0,1
-8.012204e-05,-4.835724e-05,0,1
-7.250496e-05,-5.32192e-05,0,1
-3.749886e-05,-6.780507e-05,0,1
-1.682422e-06,-8.303922e-05,0,1
1.322759e-05,-9.373552e-05,0,1
-1.196227e-06,-9.762509e-05,0,1
-3.490581e-05,-9.778715e-05,0,1
-6.829127e-05,-0.0001016767,0,1
-8.82253e-05,-0.0001161005,0,1
-9.746302e-05,-0.000144624,0,1
-0.0001024871,-0.0001804405,0,1
-0.0001003802,-0.0002144742,0,1
-8.222889e-05,-0.0002335979,0,1
-4.884343e-05,-0.0002272773,0,1
-2.291298e-05,-0.0001981056,0,1
-3.247483e-05,-0.0001600202,0,1
-9.519411e-05,-0.0001259865,0,1
-0.0002055606,-0.0001060525,0,1
-0.0003293785,-0.0001042698,0,1
-0.0004303451,-0.0001170729,0,1
-0.0004839888,-0.0001326312,0,1
-0.0004864197,-0.0001405724,0,1
-0.0004455793,-0.0001290658,0,1
-0.0003715154,-9.616651e-05,0,1
-0.000271197,-4.462973e-05,0,1
-0.0001527273,1.873781e-05,0,1
-2.696461e-05,8.712937e-05,0,1
9.231547e-05,0.0001595726,0,1
0.0001944166,0.0002386605,0,1
0.0002701012,0.0003250413,0,1
0.000314345,0.0003965121,0,1
0.0003290929,0.0004214702,0,1
0.000324393,0.0003780367,0,1
0.0003114278,0.0002707494,0,1
0.0002953834,0.0001295905,0,1
0.0002799871,2.855407e-06,0,1
0.0002699391,-6.359137e-05,0,1
0.0002652392,-5.062615e-05,0,1
0.0002637806,2.34377e-05,0,1
0.0002759355,0.0001222976,0,1
0.0003183966,0.000210137,0,1
0.0004033189,0.000259729,0,1
0.0005224369,0.000257298,0,1
0.000629076,0.0002055991,0,1
0.0006726716,0.0001187321,0,1
0.0006248623,1.387585e-05,0,1
0.0004929411,-9.000802e-05,0,1
0.0003154794,-0.0001728234,0,1
0.0001393144,-0.0002237119,0,1
-5.57199e-06,-0.0002400805,0,1
-0.0001141558,-0.0002122053,0,1
-0.00019924,-0.0001248521,0,1
-0.0002724935,2.441009e-05,0,1
-0.0003295405,0.0002115956,0,1
-0.000362926,0.0003932708,0,1
-0.0003710293,0.0005234093,0,1
-0.000360333,0.0005738117,0,1
-0.0003415334,0.0005564707,0,1
-0.0003262992,0.0005138475,0,1
-0.0003162512,0.0004812723,0,1
-0.0003086341,0.0004555039,0,1
-0.0002914552,0.0004065602,0,1
-0.0002535319,0.0003075383,0,1
-0.0001974573,0.0001587623,0,1
-0.0001436516,-2.210265e-05,0,1
-0.0001120489,-0.0002102605,0,1
-0.0001034594,-0.000380267,0,1
-9.713889e-05,-0.0005068399,0,1
-6.650855e-05,-0.0005648594,0,1
-4.437533e-06,-0.0005458977,0,1
6.995045e-05,-0.0004632444,0,1
0.0001338042,-0.0003444506,0,1
0.0001744826,-0.0002193361,0,1
0.0001893926,-0.0001162626,0,1
0.0001851789,-5.759496e-05,0,1
0.0001717275,-5.240886e-05,0,1
0.0001568175,-9.811128e-05,0,1
0.0001495245,-0.0001762268,0,1
0.0001508211,-0.0002617972,0,1
0.0001514693,-0.0003321336,0,1
0.0001404489,-0.0003786463,0,1
0.0001114392,-0.0003963114,0,1
6.654708e-05,-0.0003862634,0,1
1.630683e-05,-0.0003522297,0,1
-2.372331e-05,-0.0002972895,0,1
-4.576419e-05,-0.0002204706,0,1
-5.483985e-05,-0.0001255003,0,1
-5.759496e-05,-3.117831e-05,0,1
-5.532604e-05,3.93201e-05,0,1
-5.013995e-05,6.476436e-05,0,1
-4.138842e-05,3.526847e-05,0,1
-2.015787e-05,-3.879538e-05,0,1
2.197911e-05,-0.0001361966,0,1
8.972242e-05,-0.0002295462,0,1
0.0001749688,-0.0002972895,0,1
0.0002577842,-0.0003334301,0,1
0.0003203414,-0.0003384541,0,1
0.0003624784,-0.000325651,0,1
0.0003910019,-0.0003144685,0,1
0.0004098015,-0.0003173856,0,1
0.0004115842,-0.0003321336,0,1
0.0003895433,-0.0003463953,0,1
0.0003405996,-0.0003438023,0,1
0.0002632944,-0.000318358,0,1
0.0001636242,-0.0002767073,0,1
5.601284e-05,-0.0002250084,0,1
-4.965376e-05,-0.0001624512,0,1
-0.0001527273,-8.595638e-05,0,1
-0.0002530457,4.151929e-06,0,1
-0.0003494746,0.000103498,0,1
-0.0004407173,0.0001994406,0,1
-0.0005303394,0.0002715597,0,1
-0.0006173685,0.0003051073,0,1
-0.000695646,0.0002908455,0,1
-0.000750262,0.0002388225,0,1
-0.0007627411,0.0001746447,0,1
-0.0007210903,0.0001214872,0,1
-0.0006348715,9.701536e-05,0,1
-0.0005295291,0.0001122495,0,1
-0.0004358554,0.0001725378,0,1
-0.0003673017,0.0002786906,0,1
-0.0003212752,0.0004219564,0,1
-0.0002817312,0.0005733255,0,1
-0.0002274394,0.0006976296,0,1
-0.0001468929,0.0007652109,0,1
-5.013995e-05,0.0007606731,0,1
3.575467e-05,0.0006814231,0,1
8.275361e-05,0.0005475571,0,1
7.935024e-05,0.0003908399,0,1
3.202716e-05,0.0002467637,0,1
-3.766092e-05,0.0001459591,0,1
-0.0001016767,0.0001017153,0,1
-0.0001324691,0.000103498,0,1
-0.0001186936,0.0001201907,0,1
-6.861539e-05,0.0001203528,0,1
-6.868513e-06,8.972242e-05,0,1
3.640293e-05,3.543054e-05,0,1
4.920609e-05,-2.064406e-05,0,1
3.786152e-05,-5.791909e-05,0,1
1.387585e-05,-6.683268e-05,0,1
-5.409925e-06,-5.32192e-05,0,1
-1.189254e-05,-3.344723e-05,0,1
-6.544382e-06,-2.372331e-05,0,1
6.582909e-06,-3.036798e-05,0,1
2.133085e-05,-5.159854e-05,0,1
2.927205e-05,-8.239095e-05,0,1
2.278944e-05,-0.000119666,0,1
5.772582e-06,-0.0001585616,0,1
-9.623623e-06,-0.0001929195,0,1
-1.594417e-05,-0.0002147983,0,1
-6.868513e-06,-0.0002206326,0,1
2.894792e-05,-0.0002136638,0,1
0.0001054428,-0.0002062088,0,1
0.0002402811,-0.0002094502,0,1
0.0004380009,-0.0002243602,0,1
0.0006892023,-0.0002447804,0,1
0.0009575827,-0.0002567732,0,1
0.00118723,-0.0002580697,0,1
0.001327416,-0.0002506147,0,1
0.00134573,-0.0002366771,0,1
0.001242008,-0.0002232257,0,1
0.001045422,-0.0002126914,0,1
0.000797624,-0.0001940539,0,1
0.0005409124,-0.0001532135,0,1
0.0003101313,-9.000802e-05,0,1
0.0001197045,-2.696461e-05,0,1
-3.68506e-05,-1.682422e-06,0,1
-0.0001712027,-3.166451e-05,0,1
-0.0002854588,-0.0001011905,0,1
-0.000370381,-0.0001851404,0,1
-0.0004202971,-0.0002600145,0,1
-0.000435045,-0.0003066893,0,1
-0.000422566,-0.0003173856,0,1
-0.0003933943,-0.0002992343,0,1
-0.0003630881,-0.0002669833,0,1
-0.0003347266,-0.0002298704,0,1
-0.0003099306,-0.0001900023,0,1
-0.0002958309,-0.0001431655,0,1
-0.0003050687,-8.530812e-05,0,1
-0.0003441264,-1.286493e-05,0,1
-0.0004023079,6.849186e-05,0,1
-0.0004564377,0.0001393144,0,1
-0.0004880404,0.0001788584,0,1
-0.0004912817,0.0001830721,0,1
-0.0004729683,0.0001574657,0,1
-0.0004420138,0.0001171115,0,1
-0.0004040906,8.42122e-05,0,1
-0.0003559572,7.918817e-05,0,1
-0.0002908069,0.0001192183,0,1
-0.0002057227,0.0002085163,0,1
-0.0001125351,0.0003326584,0,1
-2.761287e-05,0.0004595556,0,1
3.753739e-05,0.0005580913,0,1
7.6271e-05,0.0006075213,0,1
9.004655e-05,0.0006109247,0,1
8.388807e-05,0.0005864528,0,1
6.395404e-05,0.0005517708,0,1
3.915804e-05,0.0005159543,0,1
2.408596e-05,0.0004819206,0,1
3.413401e-05,0.0004498317,0,1
6.978839e-05,0.0004180668,0,1
0.0001148425,0.0003819262,0,1
0.0001527658,0.0003386548,0,1
0.0001748067,0.0002923041,0,1
0.0001825859,0.0002478982,0,1
0.0001905271,0.0002158093,0,1
0.0002080301,0.0002090025,0,1
0.0002326641,0.0002346088,0,1
0.0002534084,0.0002914938,0,1
0.000252274,0.0003649094,0,1
0.0002174299,0.0004277907,0,1
0.0001488763,0.0004498317,0,1
5.52025e-05,0.0004132049,0,1
-3.328516e-05,0.000324231,0,1
-8.563225e-05,0.0002083542,0,1
-8.709085e-05,0.0001009049,0,1
-4.90055e-05,2.538249e-05,0,1
7.069105e-06,-1.383732e-05,0,1
6.168512e-05,-2.583016e-05,0,1
0.000103498,-2.615429e-05,0,1
0.0001235941,-2.7937e-05,0,1
0.000128294,-3.668853e-05,0,1
0.0001321835,-5.775702e-05,0,1
0.0001419075,-9.503204e-05,0,1
0.0001493625,-0.0001442999,0,1
0.0001427178,-0.0001953505,0,1
0.0001125736,-0.0002361909,0,1
6.055066e-05,-0.0002622834,0,1
7.485573e-07,-0.0002741142,0,1
-4.527799e-05,-0.0002741142,0,1
-6.278104e-05,-0.0002647144,0,1
-4.38194e-05,-0.000253856,0,1
4.151929e-06,-0.0002499665,0,1
6.298164e-05,-0.0002519113,0,1
0.0001151667,-0.0002548284,0,1
0.0001467694,-0.0002595283,0,1
0.0001509831,-0.000268766,0,1
0.0001323456,-0.0002869174,0,1
0.0001007429,-0.0003170615,0,1
6.881599e-05,-0.0003553089,0,1
4.02925e-05,-0.0003922598,0,1
9.986281e-06,-0.0004207833,0,1
-3.409549e-05,-0.0004358554,0,1
-9.146661e-05,-0.0004363416,0,1
-0.0001449482,-0.0004253211,0,1
-0.000169258,-0.0004092767,0,1
-0.0001498101,-0.0003904771,0,1
-9.227693e-05,-0.0003711913,0,1
-2.064406e-05,-0.0003593606,0,1
3.834771e-05,-0.0003600088,0,1
6.83298e-05,-0.0003749188,0,1
6.897806e-05,-0.0003932322,0,1
4.904402e-05,-0.0004019837,0,1
2.34377e-05,-0.0003946908,0,1
1.234753e-06,-0.0003739464,0,1
-1.983374e-05,-0.0003470436,0,1
-4.284701e-05,-0.0003212752,0,1
-7.574627e-05,-0.0002971275,0,1
-0.0001240417,-0.0002664971,0,1
-0.0001846542,-0.0002253326,0,1
-0.0002418632,-0.0001791439,0,1
-0.0002741142,-0.0001368449,0,1
-0.0002635799,-0.0001013526,0,1
-0.0002028055,-6.958779e-05,0,1
-9.519411e-05,-3.247483e-05,0,1
3.672706e-05,1.711715e-05,0,1
0.000155521,7.400208e-05,0,1
0.0002278021,0.000128456,0,1
0.0002393087,0.0001728619,0,1
0.0002023578,0.0002080301,0,1
0.0001441764,0.0002401191,0,1
8.84259e-05,0.0002704253,0,1
4.337174e-05,0.0002957075,0,1
5.448452e-06,0.000311914,0,1
-2.858527e-05,0.0003203414,0,1
-7.461182e-05,0.0003198552,0,1
-0.0001527273,0.0003041349,0,1
-0.0002721694,0.0002696149,0,1
-0.0004209454,0.0002188885,0,1
-0.0005687489,0.0001636242,0,1
-0.0006791154,0.0001203528,0,1
-0.0007316245,0.0001022015,0,1
-0.00072028,0.000113384,0,1
-0.0006575607,0.0001479039,0,1
-0.000574097,0.0001900409,0,1
-0.0005031124,0.0002237505,0,1
-0.0004681064,0.0002388225,0,1
-0.0004679443,0.0002352571,0,1
-0.0004839888,0.0002182402,0,1
-0.0004914437,0.0001989545,0,1
-0.0004674581,0.0001832341,0,1
-0.0004107352,0.0001764274,0,1
-0.0003379679,0.0001864754,0,1
-0.0002718453,0.0002279642,0,1
-0.0002219292,0.0003067279,0,1
-0.000181737,0.0004067223,0,1
-0.0001391138,0.0004955341,0,1
-8.579432e-05,0.0005376711,0,1
-1.950961e-05,0.0005107683,0,1
6.152305e-05,0.0004112601,0,1
0.0001504969,0.0002563256,0,1
0.0002261814,7.951231e-05,0,1
0.0002615117,-8.417367e-05,0,1
0.000242388,-0.0002081536,0,1
0.00018291,-0.0002726556,0,1
0.0001222976,-0.0002559629,0,1
9.928428e-05,-0.0001522411,0,1
0.0001200286,1.322759e-05,0,1
0.0001574657,0.0001840444,0,1
0.0001843686,0.0002966799,0,1
0.0001973338,0.0003051073,0,1
0.0002162954,0.0001963614,0,1
0.0002683184,-5.085794e-06,0,1
0.0003576164,-0.0002418632,0,1
0.0004665244,-0.0004510895,0,1
0.0005700842,-0.0005935449,0,1
0.0006447964,-0.0006617744,0,1
0.0006716992,-0.0006752257,0,1
0.0006433378,-0.000658371,0,1
0.0005736496,-0.0006277406,0,1
0.0004837033,-0.0005927345,0,1
0.0003971604,-0.0005520562,0,1
0.0003253654,-0.0004990608,0,1
0.0002715597,-0.0004343968,0,1
0.0002360674,-0.000365519,0,1
0.0002137024,-0.0003002067,0,1
0.0001976579,-0.000241377,0,1
0.000178048,-0.0001853024,0,1
0.0001428799,-0.0001334415,0,1
8.129502e-05,-9.179074e-05,0,1
-7.192643e-06,-6.877746e-05,0,1
-0.0001075111,-6.213279e-05,0,1
-0.0001945401,-6.586029e-05,0,1
-0.000238784,-7.039812e-05,0,1
-0.00021415,-6.294311e-05,0,1
-0.0001186936,-3.555408e-05,0,1
2.003433e-05,1.501031e-05,0,1
0.0001668655,8.405014e-05,0,1
0.0003015418,0.0001663793,0,1
0.0004115842,0.0002561635,0,1
0.0004974789,0.0003472443,0,1
0.0005608465,0.0004326527,0,1
0.0006047662,0.0005042856,0,1
0.0006376655,0.0005543638,0,1
0.0006660269,0.000579646,0,1
0.000688392,0.0005819149,0,1
0.0006963331,0.0005731634,0,1
0.0006781818,0.0005637637,0,1
0.000631507,0.0005605224,0,1
0.0005663567,0.0005681394,0,1
0.0004966686,0.0005900182,0,1
0.0004341113,0.0006250244,0,1
0.0003814401,0.0006597064,0,1
0.0003380065,0.0006695924,0,1
0.0002999212,0.0006297242,0,1
0.0002705873,0.0005332953,0,1
0.0002529222,0.000396188,0,1
0.0002440086,0.0002415777,0,1
0.0002337985,8.875003e-05,0,1
0.0002096508,-4.754691e-05,0,1
0.0001665414,-0.0001571031,0,1
0.0001064152,-0.0002358668,0,1
4.499239e-05,-0.0002857829,0,1
-4.275467e-06,-0.0003091203,0,1
-4.009191e-05,-0.0003118754,0,1
-7.785312e-05,-0.0003036101,0,1
-0.0001292278,-0.0002990722,0,1
-0.0001932436,-0.0003057169,0,1
-0.0002575835,-0.0003230579,0,1
-0.0003049066,-0.0003423437,0,1
-0.0003303509,-0.0003449367,0,1
-0.0003371576,-0.0003170615,0,1
-0.0003368335,-0.0002617972,0,1
-0.0003462333,-0.000194216,0,1
-0.0003768636,-0.0001319829,0,1
-0.0004345588,-8.757704e-05,0,1
-0.0005134846,-6.051213e-05,0,1
-0.0005961379,-3.604027e-05,0,1
-0.0006620985,5.772582e-06,0,1
-0.0007003459,7.092284e-05,0,1
-0.0007073147,0.0001441764,0,1
-0.0006860842,0.0002088404,0,1
-0.0006416783,0.0002508154,0,1
-0.0005796073,0.0002619979,0,1
-0.0005134846,0.0002394708,0,1
-0.0004625961,0.0001926339,0,1
-0.0004400691,0.0001344524,0,1
-0.0004433104,7.416415e-05,0,1
-0.0004606514,1.306552e-05,0,1
-0.0004786406,-5.127441e-05,0,1
-0.0004831784,-0.0001186936,0,1
-0.0004664857,-0.0001781716,0,1
-0.0004287245,-0.0002199844,0,1
-0.0003775118,-0.0002399184,0,1
-0.0003274337,-0.0002441321,0,1
-0.0002865932,-0.0002431597,0,1
-0.0002515871,-0.0002428356,0,1
-0.0002133397,-0.0002442942,0,1
-0.0001724993,-0.0002509389,0,1
-0.0001392759,-0.0002616352,0,1
-0.00012469,-0.0002700626,0,1
-0.0001329553,-0.0002694143,0,1
-0.0001640719,-0.000256287,0,1
-0.0002151224,-0.0002261429,0,1
-0.0002754107,-0.0001784957,0,1
-0.0003308371,-0.000122259,0,1
-0.0003713534,-7.056019e-05,0,1
-0.0003893426,-2.955766e-05,0,1
-0.0003807532,1.002961e-07,0,1
-0.0003439643,2.603075e-05,0,1
-0.000286107,5.406805e-05,0,1
-0.0002198223,8.291568e-05,0,1
-0.0001543479,0.0001117633,0,1
-9.746302e-05,0.0001347766,0,1
-4.155049e-05,0.0001436902,0,1
3.364782e-05,0.0001349386,0,1
0.0001365593,0.0001094944,0,1
0.0002550291,7.643307e-05,0,1
0.0003606957,4.871989e-05,0,1
0.0004342734,3.202716e-05,0,1
0.000473007,3.008238e-05,0,1
0.0004934272,4.709924e-05,0,1
0.0005141716,7.983644e-05,0,1
0.0005354022,0.0001175977,0,1
0.0005504743,0.0001398006,0,1
0.0005506363,0.0001313732,0,1
0.000532485,9.280167e-05,0,1
0.0004968306,4.013043e-05,0,1
0.000443349,-9.461558e-06,0,1
0.0003833848,-4.738484e-05,0,1
0.000324393,-7.817725e-05,0,1
0.0002694529,-0.0001024871,0,1
0.0002203471,-0.0001149661,0,1
0.0001790204,-0.00010978,0,1
0.0001522796,-8.644259e-05,0,1
0.0001445005,-5.516398e-05,0,1
0.0001584381,-2.89094e-05,0,1
0.0001887444,-1.837515e-05,0,1
0.0002166196,-2.339918e-05,0,1
0.0002146748,-3.928157e-05,0,1
0.0001597346,-6.099833e-05,0,1
5.325772e-05,-9.179074e-05,0,1
-8.303922e-05,-0.0001331174,0,1
-0.0002182017,-0.0001827094,0,1
-0.0003319715,-0.0002301945,0,1
-0.0004209454,-0.0002590421,0,1
-0.0004904714,-0.0002527216,0,1
-0.0005420081,-0.0002036158,0,1
-0.0005705316,-0.0001109144,0,1
-0.0005679386,9.824215e-06,0,1
-0.0005322842,0.0001302388,0,1
-0.000464703,0.0002261814,0,1
-0.0003676259,0.0002929524,0,1
-0.0002434839,0.0003352514,0,1
-0.0001104282,0.0003606957,0,1
9.106227e-07,0.0003696093,0,1
6.735741e-05,0.0003618301,0,1
7.546067e-05,0.0003396272,0,1
3.380988e-05,0.0003106175,0,1
-3.247483e-05,0.000287118,0,1
-8.773911e-05,0.00027707,0,1
-0.0001002181,0.0002788527,0,1
-5.257093e-05,0.0002816078,0,1
4.402e-05,0.0002705873,0,1
0.0001621656,0.0002394708,0,1
0.000267346,0.0001897167,0,1
0.0003349273,0.0001304008,0,1
0.0003610198,6.946425e-05,0,1
0.0003593992,1.274139e-05,0,1
0.0003512959,-3.506788e-05,0,1
0.0003558337,-6.537409e-05,0,1
0.0003710679,-7.282909e-05,0,1
0.0003793332,-6.39155e-05,0,1
0.0003644232,-5.338126e-05,0,1
0.0003200173,-5.921561e-05,0,1
0.0002529222,-9.308726e-05,0,1
0.000173024,-0.000152079,0,1
9.863601e-05,-0.0002212809,0,1
4.871989e-05,-0.000285945,0,1
3.348575e-05,-0.0003400748,0,1
4.888196e-05,-0.0003851289,0,1
8.518459e-05,-0.0004237005,0,1
0.0001244044,-0.000454817,0,1
0.0001490383,-0.0004786406,0,1
0.000148228,-0.000496954,0,1
0.0001221355,-0.0005154294,0,1
7.740546e-05,-0.00053666,0,1
2.716521e-05,-0.0005601594,0,1
-1.448558e-05,-0.0005731247,0,1
-4.349527e-05,-0.0005637249,0,1
-5.872941e-05,-0.0005240189,0,1
-6.326724e-05,-0.0004556273,0,1
-5.64605e-05,-0.0003664914,0,1
-3.474375e-05,-0.0002653627,0,1
-1.358292e-06,-0.0001660166,0,1
2.829966e-05,-8.012204e-05,0,1
3.413401e-05,-1.351319e-05,0,1
1.883015e-06,3.462021e-05,0,1
-6.002594e-05,7.221937e-05,0,1
-0.0001183694,0.0001169494,0,1
-0.0001279313,0.0001762653,0,1
-5.354332e-05,0.000237526,0,1
0.0001078737,0.0002785285,0,1
0.0003222862,0.0002864697,0,1
0.0005258403,0.0002632944,0,1
0.0006587339,0.0002245608,0,1
0.0006953608,0.0001876099,0,1
0.0006472273,0.0001634622,0,1
0.0005420469,0.0001573037,0,1
0.0004119083,0.000168,0,1
0.0002819319,0.0001887444,0,1
0.0001670276,0.000217754,0,1
7.52986e-05,0.0002556773,0,1
5.448452e-06,0.0003030004,0,1
-4.770897e-05,0.0003524304,0,1
-8.320128e-05,0.0003979707,0,1
-9.017008e-05,0.0004402698,0,1
-6.229485e-05,0.0004827309,0,1
-1.513384e-05,0.0005164405,0,1
2.230325e-05,0.0005284334,0,1
2.133085e-05,0.0005131993,0,1
-2.826114e-05,0.000473007,0,1
-0.0001034594,0.0004179048,0,1
-0.0001695821,0.0003571303,0,1
-0.0002013469,0.0002958695,0,1
-0.0001914609,0.000237526,0,1
-0.0001504584,0.0001820997,0,1
-9.989401e-05,0.0001318594,0,1
-6.06742e-05,9.069481e-05,0,1
-5.078821e-05,6.136099e-05,0,1
-7.590833e-05,4.483033e-05,0,1
-0.0001323071,3.316162e-05,0,1
-0.0002053985,1.744129e-05,0,1
-0.0002812451,9.106227e-07,0,1
-0.0003491504,-8.489166e-06,0,1
-0.0004092767,-1.497178e-05,0,1
-0.0004681064,-2.647842e-05,0,1
-0.0005238568,-4.657452e-05,0,1
-0.0005710179,-7.623246e-05,0,1
-0.0006094273,-0.0001149661,0,1
-0.0006429748,-0.0001556445,0,1
-0.0006713362,-0.0001900023,0,1
-0.000685436,-0.0002071812,0,1
-0.0006697156,-0.0001958367,0,1
-0.0006066722,-0.0001527273,0,1
-0.0004937127,-8.303922e-05,0,1
-0.0003428299,3.503668e-06,0,1
-0.0001835197,9.68533e-05,0,1
-4.819517e-05,0.0001863134,0,1
4.304761e-05,0.0002566497,0,1
8.615699e-05,0.0002880904,0,1
9.26396e-05,0.0002696149,0,1
8.194328e-05,0.0002064095,0,1
7.108491e-05,0.000111115,0,1
7.319176e-05,2.369211e-06,0,1
9.26396e-05,-9.746302e-05,0,1
0.0001240803,-0.0001656925,0,1
0.000155521,-0.0001932436,0,1
0.0001798307,-0.0001830335,0,1
0.0001965235,-0.0001499722,0,1
0.000210299,-0.0001165867,0,1
0.0002266676,-9.762509e-05,0,1
0.0002485465,-9.632857e-05,0,1
0.0002744769,-0.0001091317,0,1
0.0003017039,-0.0001274451,0,1
0.0003260137,-0.0001408965,0,1
0.0003396272,-0.0001423551,0,1
0.0003352514,-0.000129714,0,1
0.0003088348,-0.0001054042,0,1
0.0002639427,-7.120844e-05,0,1
0.0002059233,-3.198864e-05,0,1
0.0001346145,2.623614e-07,0,1
4.045456e-05,1.1769e-05,0,1
-7.833932e-05,-1.520357e-06,0,1
-0.0002070192,-2.907146e-05,0,1
-0.0003172236,-5.775702e-05,0,1
-0.0003814014,-7.60704e-05,0,1
-0.0003857772,-7.817725e-05,0,1
-0.0003324577,-6.197072e-05,0,1
-0.0002397564,-3.020592e-05,0,1
-0.0001358725,9.013889e-06,0,1
-5.095028e-05,4.191315e-05,0,1
-7.354709e-06,5.601284e-05,0,1
-7.030578e-06,4.790957e-05,0,1
-2.84232e-05,2.619281e-05,0,1
-4.544006e-05,2.207145e-06,0,1
-3.26369e-05,-2.113026e-05,0,1
1.857574e-05,-4.47918e-05,0,1
9.733949e-05,-7.363943e-05,0,1
0.0001809652,-0.0001094559,0,1
0.0002407673,-0.0001477033,0,1
0.0002516257,-0.000174444,0,1
0.0002086784,-0.0001759026,0,1
0.0001328318,-0.0001509446,0,1
5.844381e-05,-0.0001109144,0,1
1.241726e-05,-5.791909e-05,0,1
-1.520357e-06,1.9224e-05,0,1
1.371378e-05,0.0001323456,0,1
5.244739e-05,0.0002757735,0,1
0.0001072255,0.0004230909,0,1
0.0001697827,0.0005391297,0,1
0.0002279642,0.0005958526,0,1
0.0002733424,0.0005759185,0,1
0.000304297,0.0004806241,0,1
0.0003218,0.0003334687,0,1
0.000324231,0.0001739964,0,1
0.0003065659,4.02925e-05,0,1
0.0002645909,-4.560212e-05,0,1
0.0002072198,-7.931171e-05,0,1
0.0001496866,-7.461182e-05,0,1
0.0001088461,-5.419158e-05,0,1
9.766362e-05,-3.409549e-05,0,1
0.0001174356,-1.837515e-05,0,1
0.0001550348,-2.006553e-06,0,1
0.0001893926,1.371378e-05,0,1
0.000200413,1.760335e-05,0,1
0.0001746447,3.665733e-06,0,1
0.000111115,-2.696461e-05,0,1
1.582063e-05,-6.926366e-05,0,1
-9.730096e-05,-0.0001157764,0,1
-0.0002099363,-0.0001598582,0,1
-0.0003047445,-0.0001969711,0,1
-0.0003650328,-0.0002301945,0,1
-0.0003794566,-0.0002676316,0,1
-0.0003507711,-0.0003139823,0,1
-0.0002946965,-0.000367788,0,1
-0.0002305186,-0.0004149489,0,1
-0.0001763888,-0.0004384484,0,1
-0.0001462447,-0.0004298589,0,1
-0.0001477033,-0.0003911253,0,1
-0.0001789819,-0.0003322956,0,1
-0.0002334358,-0.0002626076,0,1
-0.0003047445,-0.0001833576,0,1
-0.0003796187,-9.114248e-05,0,1
-0.0004334244,5.772582e-06,0,1
-0.0004425001,8.631905e-05,0,1
-0.000402794,0.0001312112,0,1
-0.0003297026,0.000133318,0,1
-0.0002498044,9.280167e-05,0,1
-0.0001869231,1.825161e-05,0,1
-0.0001502963,-7.720486e-05,0,1
-0.0001327933,-0.0001721751,0,1
-0.0001126972,-0.0002399184,0,1
-7.18567e-05,-0.0002605007,0,1
-8.651231e-06,-0.0002329496,0,1
6.525056e-05,-0.0001765509,0,1
0.0001352628,-0.0001139937,0,1
0.0001906891,-5.986387e-05,0,1
0.0002323399,-1.335113e-05,0,1
0.0002683184,3.008238e-05,0,1
0.0003049452,6.476436e-05,0,1
0.0003381686,7.157111e-05,0,1
0.0003610198,3.478228e-05,0,1
0.000361506,-4.754691e-05,0,1
0.0003266619,-0.0001634236,0,1
0.0002469258,-0.0002942103,0,1
0.0001312112,-0.0004194868,0,1
6.582909e-06,-0.0005185087,0,1
-8.741498e-05,-0.000576528,0,1
-0.0001191798,-0.0005852795,0,1
-8.40116e-05,-0.0005535148,0,1
1.558884e-06,-0.0004988988,0,1
0.0001163011,-0.0004293727,0,1
0.0002342847,-0.0003478539,0,1
0.0003354135,-0.0002570974,0,1
0.0004080188,-0.0001642339,0,1
0.0004488593,-7.542214e-05,0,1
0.0004592314,2.369211e-06,0,1
0.0004486972,6.330578e-05,0,1
0.000428277,0.0001046324,0,1
0.0004086671,0.0001300767,0,1
0.0003974845,0.0001470936,0,1
0.0003981328,0.0001649207,0,1
0.0004094774,0.0001914995,0,1
0.0004219564,0.0002302331,0,1
0.0004200116,0.00027707,0,1
0.0003953777,0.0003297412,0,1
0.0003527545,0.0003905157,0,1
0.0003023522,0.0004621486,0,1
0.0002535705,0.0005456123,0,1
0.0002012234,0.0006405826,0,1
0.000130725,0.0007402529,0,1
3.024445e-05,0.0008358715,0,1
-9.973194e-05,0.0009149595,0,1
-0.0002449425,0.0009679549,0,1
-0.0003818876,0.00098562,0,1
-0.0004833405,0.0009616343,0,1
-0.0005387668,0.0008971323,0,1
-0.0005570802,0.0008058894,0,1
-0.0005475183,0.0007057329,0,1
-0.0005167259,0.0006054144,0,1
-0.0004698891,0.0005057442,0,1
-0.0004160834,0.0004051016,0,1
-0.0003668155,0.0003008936,0,1
-0.0003314853,0.000195389,0,1
-0.000318196,9.896015e-05,0,1
-0.0003347266,2.181705e-05,0,1
-0.0003882082,-3.182657e-05,0,1
-0.0004719959,-6.667062e-05,0,1
-0.0005698834,-9.017008e-05,0,1
-0.0006697156,-0.0001031353,0,1
-0.0007622549,-0.0001079973,0,1
-0.0008364808,-0.0001136696,0,1
-0.0008863969,-0.0001269589,0,1
-0.0009170272,-0.0001489998,0,1
-0.0009355026,-0.0001763888,0,1
-0.0009499265,-0.0001989159,0,1
-0.0009507368,-0.0002002124,0,1
-0.0009095722,-0.0001674752,0,1
-0.0007951541,-0.0001008664,0,1
-0.0006000275,-1.99958e-05,0,1
-0.00035304,4.110282e-05,0,1
-0.0001094559,5.19612e-05,0,1
8.194328e-05,8.527692e-06,0,1
0.0002036544,-7.007399e-05,0,1
0.0002738286,-0.0001514308,0,1
0.0003256896,-0.0002053985,0,1
0.0003867882,-0.0002224154,0,1
0.0004611762,-0.0002170672,0,1
0.0005370228,-0.0002068571,0,1
0.0006047662,-0.0002019951,0,1
0.0006575995,-0.0002010227,0,1
0.0006924436,-0.0002050744,0,1
0.0007086502,-0.0002206326,0,1
0.0007086502,-0.0002579077,0,1
0.0006943883,-0.0003279199,0,1
0.0006652166,-0.0004258073,0,1
0.0006209727,-0.0005322842,0,1
0.0005676532,-0.0006206098,0,1
0.000515144,-0.0006676087,0,1
0.0004765725,-0.0006642053,0,1
0.000462959,-0.0006146134,0,1
0.000487755,-0.0005309877,0,1
0.0005540397,-0.0004272659,0,1
0.0006506307,-0.0003130099,0,1
0.0007566215,-0.0002023193,0,1
0.0008478644,-0.0001112386,0,1
0.000903939,-4.722278e-05,0,1
0.0009104217,-1.140634e-05,0,1
0.0008658536,-1.358292e-06,0,1
0.0007789865,-1.270286e-05,0,1
0.0006657028,-3.539201e-05,0,1
0.0005370228,-6.0188e-05,0,1
0.0004034809,-7.65566e-05,0,1
0.0002751252,-7.785312e-05,0,1
0.0001542244,-6.278104e-05,0,1
3.60788e-05,-3.279896e-05,0,1
-8.498399e-05,1.193106e-05,0,1
-0.0002006986,7.465034e-05,0,1
-0.000300855,0.0001579519,0,1
-0.000385291,0.0002555152,0,1
-0.0004544929,0.0003556717,0,1
-0.0004993849,0.000443349,0,1
-0.000511864,0.0005059062,0,1
-0.0004877163,0.000537509,0,1
-0.0004347209,0.0005357263,0,1
-0.0003640605,0.0005025029,0,1
-0.0002878898,0.0004449697,0,1
-0.0002250084,0.0003722023,0,1
-0.0001927574,0.0002942489,0,1
-0.0001976194,0.0002216436,0,1
-0.0002282497,0.0001613553,0,1
-0.0002585559,0.0001161391,0,1
-0.0002561249,8.84259e-05,0,1
-0.0001947022,8.178122e-05,0,1
-6.48879e-05,9.604298e-05,0,1
0.0001188942,0.0001240803,0,1
0.0003140208,0.0001576278,0,1
0.0004725208,0.0001816135,0,1
0.0005580913,0.0001880961,0,1
0.0005563086,0.0001764274,0,1
0.0004756001,0.0001477418,0,1
0.0003370341,0.0001067393,0,1
0.0001722137,6.200925e-05,0,1
1.727922e-05,2.052053e-05,0,1
-9.535618e-05,-1.691656e-05,0,1
-0.00015451,-4.754691e-05,0,1
-0.000166827,-6.407757e-05,0,1
-0.0001407345,-6.310517e-05,0,1
-9.114248e-05,-4.819517e-05,0,1
-4.236082e-05,-3.085418e-05,0,1
-1.724069e-05,-2.242678e-05,0,1
-2.84232e-05,-2.664048e-05,0,1
-7.444975e-05,-4.398147e-05,0,1
-0.0001504584,-7.590833e-05,0,1
-0.000248832,-0.0001255003,0,1
-0.0003614674,-0.000194216,0,1
-0.0004775062,-0.0002768693,0,1
-0.0005843072,-0.0003590364,0,1
-0.0006731189,-0.0004267797,0,1
-0.0007348658,-0.0004768579,0,1
-0.0007609584,-0.0005152673,0,1
-0.0007489655,-0.0005483287,0,1
-0.000703101,-0.0005747453,0,1
-0.0006300096,-0.0005919242,0,1
-0.000541846,-0.0005977586,0,1
-0.0004591928,-0.0005865761,0,1
-0.0004066836,-0.0005535148,0,1
-0.0003998769,-0.0004940368,0,1
-0.000422566,-0.0004128421,0,1
-0.0004434724,-0.0003248407,0,1
-0.0004342347,-0.000248832,0,1
-0.0003875599,-0.0002018331,0,1
-0.000320789,-0.0001912988,0,1
-0.0002635799,-0.0002138259,0,1
-0.0002327876,-0.0002553146,0,1
-0.0002284118,-0.0002979378,0,1
-0.000236353,-0.0003250027,0,1
-0.0002391081,-0.0003222476,0,1
-0.0002222533,-0.0002877277,0,1
-0.0001781716,-0.0002290601,0,1
-0.0001138316,-0.0001634236,0,1
-3.555408e-05,-0.0001078352,0,1
4.304761e-05,-7.072225e-05,0,1
0.0001125736,-4.560212e-05,0,1
0.0001714034,-2.080613e-05,0,1
0.0002222919,1.031041e-05,0,1
0.000267184,4.839576e-05,0,1
0.0003026763,9.344993e-05,0,1
0.0003250413,0.0001504969,0,1
0.0003315239,0.000225209,0,1
0.0003222862,0.0003347652,0,1
0.0002974902,0.0004948858,0,1
0.0002689667,0.0006995744,0,1
0.0002525981,0.0009220903,0,1
0.0002569738,0.0011284,0,1
0.0002777182,0.00128609,0,1
0.0003049452,0.001368095,0,1
0.0003295791,0.001358533,0,1
0.0003503235,0.001255459,0,1
0.0003650715,0.001081563,0,1
0.0003743092,0.0008801154,0,1
0.000376416,0.0006981159,0,1
0.0003707437,0.0005712186,0,1
0.0003506476,0.0005114165,0,1
0.0003064038,0.0005013684,0,1
0.0002370398,0.0005143337,0,1
0.0001504969,0.0005274609,0,1
5.844381e-05,0.0005264886,0,1
-2.534396e-05,0.0004994237,0,1
-9.179074e-05,0.0004362182,0,1
-0.0001425172,0.0003320101,0,1
-0.0001854645,0.0001835583,0,1
-0.0002280877,-2.492749e-06,0,1
-0.0002681178,-0.0002107467,0,1
-0.0002958309,-0.0004121938,0,1
-0.0002972895,-0.0005669662,0,1
-0.0002656868,-0.0006473506,0,1
-0.0001984297,-0.0006499436,0,1
-0.0001029732,-0.0005950035,0,1
7.717366e-06,-0.000514457,0,1
0.0001195424,-0.0004368278,0,1
0.0002184023,-0.0003784843,0,1
0.0002887387,-0.0003394265,0,1
0.0003203414,-0.0003123616,0,1
0.000309321,-0.0002916173,0,1
0.0002684805,-0.0002713591,0,1
0.0002185644,-0.0002452666,0,1
0.000178048,-0.00019924,0,1
0.0001558451,-0.0001209625,0,1
0.0001543865,-9.137427e-06,0,1
0.0001696206,0.0001195424,0,1
0.0001944166,0.0002359054,0,1
0.0002140265,0.0003153174,0,1
0.0002182402,0.0003512959,0,1
0.0002073819,0.0003595612,0,1
0.0001918236,0.0003530786,0,1
0.0001741585,0.0003354135,0,1
0.0001521176,0.0003010556,0,1
0.0001156529,0.0002357433,0,1
5.163707e-05,0.0001402868,0,1
-4.414354e-05,2.846173e-05,0,1
-0.0001635857,-7.866345e-05,0,1
-0.000288538,-0.0001588858,0,1
-0.0003974459,-0.0002002124,0,1
-0.0004766958,-0.0002094502,0,1
-0.0005274223,-0.0002036158,0,1
-0.0005608077,-0.0002002124,0,1
-0.0005830107,-0.0002084778,0,1
-0.0005904656,-0.0002287359,0,1
-0.0005729626,-0.0002546664,0,1
-0.000524181,-0.0002814071,0,1
-0.0004450931,-0.0003044204,0,1
-0.0003459091,-0.0003285682,0,1
-0.0002392702,-0.000353202,0,1
-0.0001302002,-0.0003692465,0,1
-2.339918e-05,-0.0003694086,0,1
7.20573e-05,-0.0003525538,0,1
0.0001386662,-0.0003235441,0,1
0.0001560072,-0.0002945344,0,1
0.0001158149,-0.0002741142,0,1
3.721326e-05,-0.000268766,0,1
-3.717473e-05,-0.0002720074,0,1
-6.829127e-05,-0.0002731418,0,1
-4.365734e-05,-0.0002645523,0,1
2.100672e-05,-0.0002470493,0,1
9.652917e-05,-0.0002280877,0,1
0.0001539003,-0.0002112329,0,1
0.0001793446,-0.000196647,0,1
0.0001683241,-0.0001822232,0,1
0.0001263492,-0.0001677994,0,1
6.978839e-05,-0.0001559686,0,1
2.538249e-05,-0.0001480274,0,1
1.419998e-05,-0.0001399241,0,1
3.753739e-05,-0.0001277692,0,1
8.194328e-05,-0.0001149661,0,1
0.0001370455,-0.000107349,0,1
0.0001966855,-0.0001034594,0,1
0.0002613496,-0.0001018388,0,1
0.0003326584,-0.000104756,0,1
0.0004041292,-0.0001139937,0,1
0.000468145,-0.0001214487,0,1
0.000515144,-0.0001138316,0,1
0.0005362125,-8.206682e-05,0,1
0.0005308643,-2.566809e-05,0,1
0.0005120648,4.434413e-05,0,1
0.0004968306,0.0001138702,0,1
0.0004931031,0.0001722137,0,1
0.0004984512,0.0002148369,0,1
0.0005039615,0.000244981,0,1
0.0005093097,0.0002654013,0,1
0.0005191956,0.0002804733,0,1
0.0005362125,0.0002913317,0,1
0.0005608465,0.0002914938,0,1
0.000594556,0.0002788527,0,1
0.0006297242,0.0002553532,0,1
0.0006571133,0.0002315296,0,1
0.0006585719,0.0002161334,0,1
0.0006169211,0.0002117576,0,1
0.0005219508,0.0002132162,0,1
0.0003794953,0.00021273,0,1
0.0002070577,0.0002000889,0,1
2.457216e-05,0.0001689724,0,1
-0.0001452723,0.0001218114,0,1
-0.000288538,7.076078e-05,0,1
-0.000405063,3.283749e-05,0,1
-0.0004993849,2.181705e-05,0,1
-0.0005775004,3.93201e-05,0,1
-0.0006369784,7.659513e-05,0,1
-0.0006723086,0.000120839,0,1
-0.0006774947,0.0001602208,0,1
-0.0006502678,0.0001900409,0,1
-0.0005833348,0.000220185,0,1
-0.0004776682,0.0002626462,0,1
-0.0003519055,0.000316938,0,1
-0.0002347323,0.0003699334,0,1
-0.0001551583,0.0003973225,0,1
-0.0001327933,0.0003783608,0,1
-0.0001674752,0.000309321,0,1
-0.0002376495,0.0002086784,0,1
-0.00030831,0.0001094944,0,1
-0.0003493125,3.98063e-05,0,1
-0.0003413713,6.582909e-06,0,1
-0.0002838381,-2.81688e-06,0,1
-0.0001885437,-6.544382e-06,0,1
-7.801519e-05,-1.010982e-05,0,1
2.230325e-05,-1.545797e-05,0,1
9.393612e-05,-2.518189e-05,0,1
0.0001321835,-3.652646e-05,0,1
0.0001480659,-4.495386e-05,0,1
0.0001573037,-5.32192e-05,0,1
0.0001684862,-7.23429e-05,0,1
0.0001691344,-0.0001081593,0,1
0.0001508211,-0.0001622891,0,1
0.0001127357,-0.000224036,0,1
5.714729e-05,-0.0002802727,0,1
-1.059602e-05,-0.000320789,0,1
-8.012204e-05,-0.0003452609,0,1
-0.0001407345,-0.0003626019,0,1
-0.000189192,-0.000387722,0,1
-0.0002220912,-0.0004262935,0,1
-0.0002358668,-0.0004732924,0,1
-0.0002276015,-0.0005139708,0,1
-0.0002000504,-0.0005360117,0,1
-0.0001690959,-0.000526774,0,1
-0.0001543479,-0.0004792889,0,1
-0.0001648822,-0.000400201,0,1
-0.0001977815,-0.000305879,0,1
-0.0002451045,-0.0002130156,0,1
-0.0002927517,-0.0001358725,0,1
-0.000328244,-7.882551e-05,0,1
-0.0003478539,-4.122636e-05,0,1
-0.0003528779,-1.286493e-05,0,1
-0.0003425058,1.808955e-05,0,1
-0.0003123616,6.136099e-05,0,1
-0.0002588801,0.000120839,0,1
-0.0001854645,0.0001843686,0,1
-0.0001151281,0.0002365536,0,1
-7.380149e-05,0.0002618358,0,1
-7.137051e-05,0.0002506533,0,1
-9.19528e-05,0.000210299,0,1
-0.0001131834,0.0001543865,0,1
-0.0001188556,9.977047e-05,0,1
-0.0001109144,5.471631e-05,0,1
-9.859748e-05,2.538249e-05,0,1
-9.130454e-05,1.792748e-05,0,1
-9.081835e-05,2.910999e-05,0,1
-9.584238e-05,4.45062e-05,0,1
-0.0001008664,5.017848e-05,0,1
-9.681477e-05,4.466826e-05,0,1
-6.310517e-05,3.55926e-05,0,1
2.214118e-05,3.93201e-05,0,1
0.0001697827,6.654708e-05,0,1
0.000359075,0.0001132219,0,1
0.0005503122,0.0001663793,0,1
0.000696009,0.000220023,0,1
0.0007614834,0.0002696149,0,1
0.0007344186,0.000316776,0,1
0.0006287518,0.0003621543,0,1
0.0004793275,0.0004046154,0,1
0.0003229345,0.0004409181,0,1
0.0001832341,0.000462959,0,1
6.476436e-05,0.0004645796,0,1
-3.717473e-05,0.0004521006,0,1
-0.0001243659,0.0004384871,0,1
-0.0001935677,0.0004324906,0,1
-0.0002412149,0.0004263322,0,1
-0.0002652006,0.0004078567,0,1
-0.000266173,0.0003704196,0,1
-0.0002486699,0.0003187208,0,1
-0.0002162569,0.0002556773,0,1
-0.0001760647,0.0001848548,0,1
-0.0001355484,0.0001091703,0,1
-0.000104756,3.121684e-05,0,1
-9.098041e-05,-4.722278e-05,0,1
-9.762509e-05,-0.0001243659,0,1
-0.000122097,-0.0001989159,0,1
-0.0001535376,-0.0002733039,0,1
-0.0001804405,-0.0003489884,0,1
-0.0001971332,-0.000422566,0,1
-0.0002112329,-0.0004922541,0,1
-0.0002293842,-0.0005548113,0,1
-0.0002579077,-0.0006081308,0,1
-0.0002946965,-0.0006528608,0,1
-0.0003352128,-0.0006864083,0,1
-0.0003651949,-0.0007042355,0,1
-0.0003674638,-0.0006996976,0,1
-0.0003348887,-0.0006745775,0,1
-0.0002749245,-0.0006332509,0,1
-0.0001963229,-0.0005817142,0,1
-0.0001131834,-0.0005219121,0,1
-4.47918e-05,-0.0004554653,0,1
-1.124428e-05,-0.0003856151,0,1
-1.918548e-05,-0.0003091203,0,1
-6.537409e-05,-0.0002248464,0,1
-0.0001340898,-0.0001267968,0,1
-0.000209126,-1.464765e-05,0,1
-0.0002773555,0.0001080358,0,1
-0.0003322956,0.000227478,0,1
-0.0003771877,0.0003230965,0,1
-0.0004193247,0.0003733368,0,1
-0.0004600031,0.0003696093,0,1
-0.000489661,0.000319369,0,1
-0.0004854474,0.0002441707,0,1
-0.0004313175,0.0001731861,0,1
-0.0003316474,0.0001244044,0,1
-0.0002034537,9.977047e-05,0,1
-6.715681e-05,9.296373e-05,0,1
6.103686e-05,9.523264e-05,0,1
0.0001723757,9.733949e-05,0,1
0.0002725321,9.588091e-05,0,1
0.0003678266,9.361199e-05,0,1
0.000463121,9.847395e-05,0,1
0.0005501501,0.0001128978,0,1
0.0006222692,0.0001341283,0,1
0.000678668,0.0001500107,0,1
0.0007204809,0.0001466074,0,1
0.0007496527,0.0001188942,0,1
0.0007668316,7.286763e-05,0,1
0.0007750969,2.149292e-05,0,1
0.0007828761,-2.89094e-05,0,1
0.0007948689,-7.299116e-05,0,1
0.0008165857,-0.0001026491,0,1
0.0008493229,-0.0001081593,0,1
0.0008835187,-9.778715e-05,0,1
0.0008945392,-8.498399e-05,0,1
0.0008580745,-7.914964e-05,0,1
0.0007684522,-8.07703e-05,0,1
0.0006396103,-8.514606e-05,0,1
0.0004968306,-8.790117e-05,0,1
0.0003671783,-8.547019e-05,0,1
0.0002681563,-7.671866e-05,0,1
0.0002072198,-5.532604e-05,0,1
0.0001850168,-1.173047e-05,0,1
0.0001866375,6.233338e-05,0,1
0.0001914995,0.000158114,0,1
0.0001871237,0.0002587566,0,1
0.0001722137,0.0003556717,0,1
0.0001516314,0.0004417284,0,1
0.0001273216,0.0005177371,0,1
0.0001033359,0.000599418,0,1
7.999851e-05,0.0007070294,0,1
5.698522e-05,0.000844461,0,1
3.154097e-05,0.0009921027,0,1
1.072688e-06,0.001115759,0,1
-3.360929e-05,0.001176695,0,1
-7.169464e-05,0.001143472,0,1
-0.0001128592,0.001003285,0,1
-0.0001592099,0.0007660213,0,1
-0.0002175534,0.000467983,0,1
-0.0002880518,0.0001545486,0,1
-0.0003630881,-0.0001314967,0,1
-0.0004353692,-0.0003685983,0,1
-0.0005018159,-0.000554163,0,1
-0.0005582146,-0.000693053,0,1
-0.0006005137,-0.000784944,0,1
-0.0006222305,-0.0008254603,0,1
-0.0006207718,-0.0008168708,0,1
-0.0005992171,-0.0007721409,0,1
-0.0005671282,-0.0007116905,0,1
-0.0005345531,-0.0006548056,0,1
-0.000514457,-0.0006084549,0,1
-0.0005107295,-0.0005684248,0,1
-0.0005185087,-0.0005220741,0,1
-0.0005293671,-0.0004557894,0,1
-0.0005321222,-0.0003606571,0,1
-0.0005126743,-0.000238946,0,1
-0.0004666478,-9.454585e-05,0,1
-0.0003997148,6.200925e-05,0,1
-0.0003211132,0.0002164575,0,1
-0.0002352185,0.000346596,0,1
-0.0001412206,0.0004349216,0,1
-3.620233e-05,0.0004747897,0,1
7.189524e-05,0.0004764104,0,1
0.0001654069,0.0004647417,0,1
0.0002344468,0.0004610142,0,1
0.0002741528,0.0004700898,0,1
0.0002906835,0.000478031,0,1
0.0002957075,0.000462959,0,1
0.0002989488,0.0004125566,0,1
0.000304297,0.0003277964,0,1
0.0003091589,0.0002174299,0,1
0.0003059176,9.377406e-05,0,1
0.000289549,-3.360929e-05,0,1
0.0002600531,-0.000151917,0,1
0.0002247229,-0.0002455907,0,1
0.0001908512,-0.0002993964,0,1
0.0001676758,-0.0003060411,0,1
0.0001590864,-0.0002689281,0,1
0.0001590864,-0.000201671,0,1
0.0001613553,-0.0001235555,0,1
0.0001597346,-5.419158e-05,0,1
0.0001569795,-5.409925e-06,0,1
0.0001647587,1.954813e-05,0,1
0.0001944166,2.214118e-05,0,1
0.0002383363,2.623614e-07,0,1
0.0002762596,-4.527799e-05,0,1
0.000287118,-0.0001109144,0,1
0.0002644289,-0.0001827094,0,1
0.0002164575,-0.0002475355,0,1
0.0001550348,-0.0002963172,0,1
9.798775e-05,-0.0003224097,0,1
5.94162e-05,-0.0003154408,0,1
3.705119e-05,-0.0002676316,0,1
1.776542e-05,-0.0001869231,0,1
-1.20546e-05,-9.470791e-05,0,1
-5.030202e-05,-2.064406e-05,0,1
-8.482193e-05,1.387585e-05,0,1
-0.0001010285,7.555301e-06,0,1
-9.519411e-05,-2.258885e-05,0,1
-7.60704e-05,-5.759496e-05,0,1
-6.164659e-05,-8.854943e-05,0,1
-6.359137e-05,-0.0001130213,0,1
-7.671866e-05,-0.0001277692,0,1
-9.065628e-05,-0.0001305243,0,1
-9.924574e-05,-0.0001214487,0,1
-0.0001062146,-0.000107349,0,1
-0.0001177212,-9.681477e-05,0,1
-0.0001400862,-9.19528e-05,0,1
-0.0001712027,-8.919769e-05,0,1
-0.0002081536,-9.422172e-05,0,1
-0.0002467252,-0.0001182074,0,1
-0.000283514,-0.0001687718,0,1
-0.0003139823,-0.0002394322,0,1
-0.0003415334,-0.000310741,0,1
-0.0003681121,-0.0003622777,0,1
-0.0003955011,-0.0003745947,0,1
-0.0004157593,-0.000342992,0,1
-0.0004170558,-0.000276059,0,1
-0.0003909633,-0.0001849783,0,1
-0.0003394265,-9.260107e-05,0,1
-0.0002700626,-2.518189e-05,0,1
-0.0001890299,2.531276e-06,0,1
-0.0001045939,-9.785688e-06,0,1
-2.988179e-05,-4.868137e-05,0,1
1.468618e-05,-8.984595e-05,0,1
1.355172e-05,-0.000112373,0,1
-3.069211e-05,-0.0001068628,0,1
-0.0001015147,-7.688073e-05,0,1
-0.0001823853,-3.134038e-05,0,1
-0.0002627696,1.517237e-05,0,1
-0.0003344025,5.244739e-05,0,1
-0.0003792946,7.951231e-05,0,1
-0.0003724878,0.0001039842,0,1
-0.0002972895,0.000130887,0,1
-0.000159534,0.0001545486,0,1
1.160693e-05,0.0001644345,0,1
0.0001783722,0.0001579519,0,1
0.0003091589,0.0001372076,0,1
0.0003830607,0.0001086841,0,1
0.0003939191,7.983644e-05,0,1
0.0003585888,5.56887e-05,0,1
0.0003030004,3.55926e-05,0,1
0.0002487085,1.873781e-05,0,1
0.0002122438,7.23117e-06,0,1
0.00019782,6.420843e-06,0,1
0.0002008992,1.711715e-05,0,1
0.0002088404,3.364782e-05,0,1
0.0002119197,5.455425e-05,0,1
0.0002085163,7.546067e-05,0,1
0.0002034923,0.000101067,0,1
0.0001996027,0.00013818,0,1
0.0001973338,0.0001874478,0,1
0.0001908512,0.0002386605,0,1
0.0001772377,0.0002754493,0,1
0.000160545,0.0002887387,0,1
0.0001475797,0.000274801,0,1
0.0001440143,0.0002368777,0,1
0.0001438522,0.0001838824,0,1
0.0001351007,0.0001286181,0,1
0.0001022015,7.935024e-05,0,1
3.640293e-05,4.126489e-05,0,1
-5.921561e-05,1.501031e-05,0,1
-0.0001622891,-7.100305e-07,0,1
-0.0002399184,-6.868513e-06,0,1
-0.0002676316,-1.520357e-06,0,1
-0.0002478596,1.565857e-05,0,1
-0.0002049123,3.688912e-05,0,1
-0.0001666649,5.763349e-05,0,1
-0.0001473791,7.772959e-05,0,1
-0.0001397621,0.0001004187,0,1
-0.000122259,0.0001265113,0,1
-8.255302e-05,0.0001545486,0,1
-2.809907e-05,0.0001799928,0,1
2.230325e-05,0.0002000889,0,1
5.374392e-05,0.0002221298,0,1
6.670914e-05,0.000254867,0,1
6.83298e-05,0.0003012177,0,1
6.573675e-05,0.000353889,0,1
6.800567e-05,0.0003947294,0,1
8.712937e-05,0.0004112601,0,1
0.0001299146,0.000403643,0,1
0.0001900409,0.0003832228,0,1
0.0002516257,0.0003626405,0,1
0.0002940868,0.000346596,0,1
0.0002989488,0.0003321722,0,1
0.0002616738,0.0003148312,0,1
0.0001942546,0.0002955454,0,1
0.0001221355,0.0002736666,0,1
6.557468e-05,0.0002433604,0,1
2.992031e-05,0.0001965235,0,1
8.689758e-06,0.0001289422,0,1
-1.844488e-06,4.483033e-05,0,1
-3.951337e-06,-4.932962e-05,0,1
5.286387e-06,-0.0001441378,0,1
2.846173e-05,-0.0002269532,0,1
6.557468e-05,-0.000290969,0,1
0.0001116012,-0.0003369955,0,1
0.0001586002,-0.0003689224,0,1
0.0002012234,-0.000392746,0,1
0.0002386605,-0.0004081422,0,1
0.0002629703,-0.0004152731,0,1
0.0002642668,-0.0004104111,0,1
0.0002295848,-0.0003924218,0,1
0.0001594105,-0.0003627639,0,1
6.557468e-05,-0.0003262992,0,1
-3.020592e-05,-0.0002901587,0,1
-0.0001055663,-0.0002605007,0,1
-0.0001473791,-0.0002365151,0,1
-0.0001548341,-0.0002122053,0,1
-0.0001373311,-0.0001831956,0,1
-0.0001052422,-0.0001488377,0,1
-7.120844e-05,-0.0001101041,0,1
-4.462973e-05,-7.33153e-05,0,1
-3.328516e-05,-5.078821e-05,0,1
-2.809907e-05,-4.85193e-05,0,1
-1.529591e-05,-6.748094e-05,0,1
7.879432e-06,-0.0001016767,0,1
2.76514e-05,-0.0001391138,0,1
1.727922e-05,-0.0001705545,0,1
-4.365734e-05,-0.0001929195,0,1
-0.0001498101,-0.0002052365,0,1
-0.000261311,-0.0002086398,0,1
-0.0003264613,-0.0002073433,0,1
-0.0003139823,-0.000206695,0,1
-0.0002212809,-0.0002084778,0,1
-6.974985e-05,-0.0002105846,0,1
9.620504e-05,-0.000208964,0,1
0.0002355812,-0.0002013469,0,1
0.0003273102,-0.0001877334,0,1
0.0003640991,-0.0001720131,0,1
0.000356644,-0.0001567789,0,1
0.0003190449,-0.0001473791,0,1
0.0002683184,-0.0001408965,0,1
0.0002141886,-0.0001303623,0,1
0.0001597346,-0.0001050801,0,1
0.0001049566,-6.586029e-05,0,1
5.649903e-05,-2.210265e-05,0,1
2.052053e-05,1.322759e-05,0,1
-1.034161e-06,3.721326e-05,0,1
-1.545797e-05,5.56887e-05,0,1
-3.296103e-05,7.870197e-05,0,1
-5.840528e-05,0.000113546,0,1
-8.773911e-05,0.0001595726,0,1
-0.0001182074,0.0002060853,0,1
-0.0001462447,0.0002436845,0,1
-0.0001702304,0.0002675081,0,1
-0.0001901644,0.0002738286,0,1
-0.0002105846,0.0002527602,0,1
-0.0002368392,0.0002031682,0,1
-0.0002692523,0.0001409351,0,1
-0.0002987481,9.377406e-05,0,1
-0.0003105789,7.870197e-05,0,1
-0.0002955068,9.669123e-05,0,1
-0.0002606628,0.0001365593,0,1
-0.0002297083,0.0001827479,0,1
-0.0002233878,0.0002245608,0,1
-0.0002417012,0.0002579462,0,1
-0.0002728177,0.0002843629,0,1
-0.0003023136,0.0003000832,0,1
-0.0003212752,0.000299435,0,1
-0.0003261372,0.0002791768,0,1
-0.0003190063,0.0002438466,0,1
-0.0003039342,0.0002034923,0,1
-0.0002812451,0.0001675138,0,1
-0.0002528836,0.0001425557,0,1
-0.0002224154,0.0001269974,0,1
-0.0001976194,0.0001188942,0,1
-0.0001830335,0.0001180839,0,1
-0.0001780095,0.0001221355,0,1
-0.0001825473,0.0001257009,0,1
-0.0001927574,0.0001140322,0,1
-0.0002037779,8.064677e-05,0,1
-0.000201509,3.121684e-05,0,1
-0.0001771992,-1.62683e-05,0,1
-0.0001256624,-4.398147e-05,0,1
-5.289507e-05,-3.879538e-05,0,1
2.846173e-05,-2.492749e-06,0,1
0.0001017153,4.515445e-05,0,1
0.0001543865,7.967438e-05,0,1
0.0001733481,8.550872e-05,0,1
0.0001550348,6.136099e-05,0,1
0.00010366,8.203562e-06,0,1
3.494434e-05,-6.958779e-05,0,1
-2.518189e-05,-0.0001618029,0,1
-5.030202e-05,-0.0002496423,0,1
-3.474375e-05,-0.000313334,0,1
7.23117e-06,-0.0003444506,0,1
5.163707e-05,-0.0003447747,0,1
8.307774e-05,-0.000325813,0,1
9.604298e-05,-0.0002995585,0,1
8.972242e-05,-0.0002700626,0,1
6.914012e-05,-0.0002308428,0,1
4.02925e-05,-0.0001707166,0,1
1.079661e-05,-9.405965e-05,0,1
-8.165035e-06,-1.967167e-05,0,1
-1.221667e-05,2.667901e-05,0,1
2.623614e-07,2.781346e-05,0,1
2.943412e-05,-1.707863e-05,0,1
7.351589e-05,-9.29252e-05,0,1
0.0001226217,-0.0001762268,0,1
0.000162976,-0.0002418632,0,1
0.0001874478,-0.0002716832,0,1
0.0001958752,-0.0002567732,0,1
0.0001944166,-0.0001985918,0,1
0.0001884202,-0.0001092938,0,1
0.00018291,-5.409925e-06,0,1
0.0001773998,9.620504e-05,0,1
0.000160545,0.0001785342,0,1
0.0001161391,0.0002302331,0,1
4.158902e-05,0.0002532463,0,1
-4.949169e-05,0.0002621599,0,1
-0.0001428413,0.0002666978,0,1
-0.0002220912,0.0002730183,0,1
-0.0002757348,0.0002843629,0,1
-0.0003006929,0.0002940868,0,1
-0.0002946965,0.0002958695,0,1
-0.0002580697,0.0002807975,0,1
-0.0001937298,0.0002480603,0,1
-0.0001092938,0.0002013854,0,1
-1.853722e-05,0.0001433661,0,1
6.865393e-05,7.90261e-05,0,1
0.0001464453,1.64689e-05,0,1
0.000217754,-3.928157e-05,0,1
0.000282256,-8.935975e-05,0,1
0.0003346032,-0.0001389517,0,1
0.0003780367,-0.0001982676,0,1
0.000418391,-0.000271197,0,1
0.00046069,-0.0003572537,0,1
0.0005025029,-0.0004491447,0,1
0.000534754,-0.0005386047,0,1
0.0005467468,-0.0006241752,0,1
0.0005339436,-0.000703101,0,1
0.0005029891,-0.0007688995,0,1
0.000468145,-0.0008116848,0,1
0.0004436732,-0.0008214086,0,1
0.000440756,-0.0007954782,0,1
0.0004553419,-0.0007400519,0,1
0.0004793275,-0.0006593434,0,1
0.0004992616,-0.0005504355,0,1
0.0005031512,-0.000405225,0,1
0.0004835413,-0.0002211189,0,1
0.0004464283,-6.868513e-06,0,1
0.0004088291,0.0002172679,0,1
0.0003803056,0.0004251977,0,1
0.0003611819,0.0005900182,0,1
0.0003433547,0.0007037881,0,1
0.0003185587,0.000784983,0,1
0.0002829043,0.0008613158,0,1
0.0002337985,0.0009514242,0,1
