EMG1,EMG2,class,user
-0.0003606571,0.0001291043,0,1
-0.0005327704,0.000207706,0,1
-0.000675712,0.0002864697,0,1
-0.0007818647,0.0003525924,0,1
-0.000857063,0.0003794953,0,1
-0.0009058447,0.0003474063,0,1
-0.0009329096,0.0002608634,0,1
-0.0009410129,0.0001501728,0,1
-0.0009317751,4.920609e-05,0,1
-0.000906655,-1.805102e-05,0,1
-0.0008771592,-4.009191e-05,0,1
-0.0008588458,-1.918548e-05,0,1
-0.0008661387,2.910999e-05,0,1
-0.0009144342,8.696731e-05,0,1
-0.0009990323,0.0001367214,0,1
-0.001088006,0.0001675138,0,1
-0.001133871,0.0001812893,0,1
-0.001099999,0.0001830721,0,1
-0.000981205,0.0001793446,0,1
-0.0008060125,0.0001725378,0,1
-0.000618503,0.0001582761,0,1
-0.0004535205,0.0001273216,0,1
-0.000328082,6.962632e-05,0,1
-0.0002384598,-2.291298e-05,0,1
-0.0001699062,-0.0001447861,0,1
-0.0001162626,-0.0002799486,0,1
-8.190475e-05,-0.0004023079,0,1
-7.704279e-05,-0.0004917679,0,1
-0.0001020008,-0.0005387668,0,1
-0.0001439758,-0.000541846,0,1
-0.0001827094,-0.0005086227,0,1
-0.0002032917,-0.0004471999,0,1
-0.0002002124,-0.0003666535,0,1
-0.0001786577,-0.0002794623,0,1
-0.0001501342,-0.0001968091,0,1
-0.0001237176,-0.0001186936,0,1
-9.519411e-05,-4.462973e-05,0,1
-5.937768e-05,2.052053e-05,0,1
-1.043395e-05,7.011252e-05,0,1
5.99024e-05,0.0001033359,0,1
0.0001589243,0.0001172735,0,1
0.000284687,0.0001047945,0,1
0.0004255218,6.508849e-05,0,1
0.0005533914,-4.275467e-06,0,1
0.0006341,-9.762509e-05,0,1
0.0006417171,-0.0002034537,0,1
0.0005668429,-0.0003123616,0,1
0.0004217943,-0.0004092767,0,1
0.000232502,-0.0004768579,0,1
3.640293e-05,-0.000509433,0,1
-0.0001303623,-0.0005112157,0,1
-0.0002574215,-0.0004901472,0,1
-0.000355633,-0.0004564377,0,1
-0.0004390967,-0.0004130042,0,1
-0.0005078124,-0.0003593606,0,1
-0.0005505976,-0.0002977757,0,1
-0.0005543251,-0.0002269532,0,1
-0.000519481,-0.0001417068,0,1
-0.0004580583,-3.749886e-05,0,1
-0.0003833462,8.129502e-05,0,1
-0.0003074997,0.0002044647,0,1
-0.0002305186,0.0003290929,0,1
-0.0001464067,0.0004585832,0,1
-5.111234e-05,0.000594556,0,1
6.006447e-05,0.0007225877,0,1
0.0001880961,0.000814803,0,1
0.0003333067,0.000851916,0,1
0.0004840274,0.0008379783,0,1
0.0006214589,0.0007945448,0,1
0.0007243705,0.0007485182,0,1
0.0007772038,0.0007177258,0,1
0.0007744487,0.0007067053,0,1
0.0007327979,0.0007068674,0,1
0.0006819093,0.0007115673,0,1
0.0006441481,0.0007101087,0,1
0.0006251864,0.0006955228,0,1
0.000611735,0.0006691061,0,1
0.0005861287,0.0006412309,0,1
0.000532647,0.0006174073,0,1
0.0004499937,0.0005979594,0,1
0.0003491891,0.0005755944,0,1
0.0002556773,0.0005433434,0,1
0.0001908512,0.0004984512,0,1
0.0001650828,0.0004375147,0,1
0.0001725378,0.0003611819,0,1
0.0001926339,0.0002679943,0,1
0.0002060853,0.0001616794,0,1
0.0002051129,5.423012e-05,0,1
0.0002015475,-3.830919e-05,0,1
0.0002107852,-9.632857e-05,0,1
0.0002511395,-0.0001105903,0,1
0.0003281205,-8.838737e-05,0,1
0.0004240633,-4.819517e-05,0,1
0.0005119027,-1.108221e-05,0,1
0.0005733255,1.144487e-05,0,1
0.0005997422,2.262738e-05,0,1
0.0005835356,2.522042e-05,0,1
0.0005133613,2.035846e-05,0,1
0.0003905157,6.90704e-06,0,1
0.0002420638,-1.594417e-05,0,1
0.0001125736,-4.414354e-05,0,1
3.737532e-05,-7.55842e-05,0,1
2.133085e-05,-0.0001075111,0,1
4.807163e-05,-0.0001412206,0,1
9.652917e-05,-0.0001820611,0,1
0.0001527658,-0.0002371633,0,1
0.0002117576,-0.0003023136,0,1
0.0002683184,-0.0003726499,0,1
0.0003015418,-0.0004389346,0,1
0.0002916559,-0.000492092,0,1
0.0002313675,-0.0005360117,0,1
0.0001414213,-0.0005805797,0,1
5.390598e-05,-0.0006309819,0,1
-6.706447e-06,-0.0006851118,0,1
-2.550602e-05,-0.0007314624,0,1
1.072688e-06,-0.0007557723,0,1
6.152305e-05,-0.000752693,0,1
0.0001422316,-0.0007254661,0,1
0.00022764,-0.0006763602,0,1
0.0003098072,-0.0006069963,0,1
0.0003835469,-0.0005121881,0,1
0.0004535592,-0.0003875599,0,1
0.0005238955,-0.000236353,0,1
0.0005976353,-7.833932e-05,0,1
0.0006699165,6.606088e-05,0,1
0.0007242084,0.0001876099,0,1
0.0007421977,0.0002838767,0,1
0.0007102708,0.000354051,0,1
0.0006196762,0.0004031568,0,1
0.0004741415,0.0004350837,0,1
0.0002971661,0.00046069,0,1
0.0001250527,0.0004875929,0,1
-1.610624e-05,0.0005167646,0,1
-0.0001180453,0.0005436675,0,1
-0.0001911368,0.0005598741,0,1
-0.0002447804,0.0005601982,0,1
-0.0002899966,0.0005480433,0,1
-0.0003467195,0.0005243817,0,1
-0.0004376381,0.0004905101,0,1
-0.0005676145,0.0004459421,0,1
-0.0007189835,0.0003875985,0,1
-0.0008714869,0.0003135347,0,1
-0.001016535,0.0002260194,0,1
-0.001144567,0.0001300767,0,1
-0.001234351,2.959619e-05,0,1
-0.001261578,-7.088431e-05,0,1
-0.001223169,-0.0001642339,0,1
-0.001135167,-0.000246239,0,1
-0.001030959,-0.0003160891,0,1
-0.0009468472,-0.0003801049,0,1
-0.0008962828,-0.0004405553,0,1
-0.0008685697,-0.0004980884,0,1
-0.0008531735,-0.0005462218,0,1
-0.0008479874,-0.0005745832,0,1
-0.0008601423,-0.0005697213,0,1
-0.0008894761,-0.0005211017,0,1
-0.0009188099,-0.0004280762,0,1
-0.0009269132,-0.0003049066,0,1
-0.0009034137,-0.0001752544,0,1
-0.0008552803,-6.099833e-05,0,1
-0.0008040677,2.797553e-05,0,1
-0.0007714926,8.680524e-05,0,1
-0.0007753822,0.0001143563,0,1
-0.0008291878,0.000108522,0,1
-0.0009355026,7.254349e-05,0,1
-0.001074879,1.387585e-05,0,1
-0.001214255,-5.176061e-05,0,1
-0.001320894,-0.0001091317,0,1
-0.001364814,-0.0001468929,0,1
-0.001315384,-0.0001592099,0,1
-0.001152508,-0.0001502963,0,1
-0.000881697,-0.0001295519,0,1
-0.0005337428,-0.0001131834,0,1
-0.0001561307,-0.0001146419,0,1
0.0001987924,-0.0001360346,0,1
0.0004911583,-0.0001676373,0,1
0.0007099467,-0.000191623,0,1
0.0008647192,-0.0001964849,0,1
0.0009692514,-0.0001822232,0,1
0.001034564,-0.0001583996,0,1
0.001068111,-0.0001374932,0,1
0.001080104,-0.0001227452,0,1
0.001081887,-0.0001161005,0,1
0.001084804,-0.0001178833,0,1
0.001102307,-0.0001258245,0,1
0.001141527,-0.0001357104,0,1
0.001199222,-0.0001417068,0,1
0.001265993,-0.0001405724,0,1
0.001328875,-0.0001285796,0,1
0.001383491,-0.0001028112,0,1
0.001427249,-6.310517e-05,0,1
0.00144929,-1.383732e-05,0,1
0.001429194,2.959619e-05,0,1
0.001343947,5.666109e-05,0,1
0.001184636,6.573675e-05,0,1
0.0009624446,5.94162e-05,0,1
0.0007039502,4.645098e-05,0,1
0.000438325,4.547859e-05,0,1
0.0002017096,7.594687e-05,0,1
2.457216e-05,0.0001323456,0,1
-8.02841e-05,0.0001869616,0,1
-0.0001224211,0.0002187264,0,1
-0.0001267968,0.0002219677,0,1
-0.0001159385,0.0002094887,0,1
-0.0001104282,0.0001939304,0,1
-0.0001209625,0.0001871237,0,1
-0.0001410586,0.0001991165,0,1
-0.0001533756,0.0002417397,0,1
-0.0001399241,0.0003229345,0,1
-8.514606e-05,0.00044578,0,1
1.841368e-05,0.000599256,0,1
0.0001574657,0.0007577559,0,1
0.0003021901,0.0008840049,0,1
0.0004112601,0.0009412141,0,1
0.0004367043,0.0009131767,0,1
0.0003433547,0.0008079963,0,1
0.0001386662,0.0006600305,0,1
-0.000119828,0.0005120648,0,1
-0.0003614674,0.0003981328,0,1
-0.0005350393,0.0003260137,0,1
-0.0006183409,0.000279663,0,1
-0.0006147755,0.0002415777,0,1
-0.0005455735,0.0002068957,0,1
-0.0004392588,0.0001851789,0,1
-0.00032322,0.0001890685,0,1
-0.0002196603,0.0002231022,0,1
-0.0001407345,0.0002773941,0,1
-8.854943e-05,0.0003381686,0,1
-5.64605e-05,0.0003905157,0,1
-3.296103e-05,0.0004251977,0,1
-1.124428e-05,0.0004368664,0,1
5.124321e-06,0.0004269804,0,1
1.97102e-05,0.0003968363,0,1
3.915804e-05,0.0003534027,0,1
5.585077e-05,0.0003013798,0,1
4.936815e-05,0.0002365536,0,1
1.209313e-05,0.0001514693,0,1
-4.122636e-05,4.256141e-05,0,1
-8.854943e-05,-8.563225e-05,0,1
-0.0001154523,-0.0002186879,0,1
-0.0001201522,-0.00033813,0,1
-0.000104918,-0.0004366657,0,1
-7.120844e-05,-0.0005180225,0,1
-1.62683e-05,-0.0005998655,0,1
6.768154e-05,-0.0007035872,0,1
0.00018291,-0.0008564148,0,1
0.0003081865,-0.001065803,0,1
0.0004016982,-0.00131587,0,1
0.0004156358,-0.001566261,0,1
0.0003221241,-0.001774029,0,1
0.0001289422,-0.001913243,0,1
-0.0001201522,-0.001968345,0,1
-0.0003634122,-0.001936742,0,1
-0.0005518941,-0.001825079,0,1
-0.0006599916,-0.001645511,0,1
-0.0006927288,-0.001413595,0,1
-0.0006703638,-0.001148619,0,1
-0.00061121,-0.00086938,0,1
-0.0005280706,-0.0005869002,0,1
-0.0004290486,-0.0003021515,0,1
-0.0003190063,-9.947754e-06,0,1
-0.0002075054,0.0002864697,0,1
-9.843541e-05,0.0005736496,0,1
5.610517e-06,0.0008402473,0,1
9.669123e-05,0.001078484,0,1
0.0001558451,0.001265993,0,1
0.0001647587,0.001369067,0,1
0.0001158149,0.001363071,0,1
1.873781e-05,0.001248004,0,1
-0.0001096179,0.001050446,0,1
-0.0002485079,0.0008190167,0,1
-0.0003658432,0.0006115729,0,1
-0.0004326141,0.0004734932,0,1
-0.0004327761,0.0004240633,0,1
-0.0003611433,0.0004511282,0,1
-0.0002146363,0.0005195198,0,1
7.485573e-07,0.0005955285,0,1
0.0002516257,0.0006600305,0,1
0.0004888894,0.0007062191,0,1
0.0006584098,0.0007274497,0,1
0.0007266394,0.0007138362,0,1
0.0006877437,0.0006537099,0,1
0.0005713807,0.0005342677,0,1
0.0004334631,0.0003467581,0,1
0.0003213138,9.798775e-05,0,1
0.0002535705,-0.0001861127,0,1
0.0002245608,-0.0004689167,0,1
0.000222616,-0.0007137973,0,1
0.0002329882,-0.0009089239,0,1
0.0002456293,-0.001058996,0,1
0.0002529222,-0.001177628,0,1
0.0002462775,-0.001269357,0,1
0.0002216436,-0.001328673,0,1
0.0001819376,-0.001338559,0,1
0.0001370455,-0.001287833,0,1
9.831188e-05,-0.001173252,0,1
6.995045e-05,-0.001006325,0,1
5.001642e-05,-0.0008087676,0,1
3.040651e-05,-0.0006027826,0,1
-7.354709e-06,-0.0004005251,0,1
-8.109443e-05,-0.0001888679,0,1
-0.0001823853,4.969229e-05,0,1
-0.0002838381,0.0002879283,0,1
-0.0003527159,0.000450642,0,1
-0.0003741085,0.000480462,0,1
-0.0003559572,0.0003848434,0,1
-0.0003152788,0.0002318537,0,1
-0.0002695764,0.0001078737,0,1
-0.0002360289,7.416415e-05,0,1
-0.0002360289,0.0001365593,0,1
-0.0002802727,0.0002607014,0,1
-0.0003515814,0.0004015361,0,1
-0.0004083043,0.0005245438,0,1
-0.0004049009,0.0006112488,0,1
-0.000325813,0.0006647304,0,1
-0.0001971332,0.000703464,0,1
-7.542214e-05,0.0007449528,0,1
-6.706447e-06,0.0007940586,0,1
-2.654814e-06,0.0008433265,0,1
-4.009191e-05,0.0008833567,0,1
-7.315322e-05,0.0009041011,0,1
-6.375344e-05,0.0009019942,0,1
1.883015e-06,0.0008763879,0,1
0.000111115,0.0008261476,0,1
0.0002341226,0.0007507871,0,1
0.0003427064,0.0006559788,0,1
0.0004281149,0.0005517708,0,1
0.0004888894,0.0004480489,0,1
0.0005167646,0.0003504856,0,1
0.0004987754,0.0002701012,0,1
0.0004336251,0.0002187264,0,1
0.0003333067,0.0002000889,0,1
0.0002248849,0.0002064095,0,1
0.000135749,0.0002138645,0,1
7.756752e-05,0.0001923098,0,1
4.45062e-05,0.0001137081,0,1
2.359977e-05,-3.555408e-05,0,1
3.503668e-06,-0.0002519113,0,1
-1.562004e-05,-0.00052175,0,1
-2.501983e-05,-0.0008183295,0,1
-1.983374e-05,-0.00108752,0,1
1.002961e-07,-0.001261092,0,1
2.732727e-05,-0.001299663,0,1
4.888196e-05,-0.001215065,0,1
5.406805e-05,-0.001054945,0,1
3.526847e-05,-0.0008776453,0,1
-6.382317e-06,-0.0007322728,0,1
-4.932962e-05,-0.0006358439,0,1
-7.461182e-05,-0.0005812279,0,1
-8.206682e-05,-0.000549139,0,1
-9.049421e-05,-0.0005176983,0,1
-0.0001208004,-0.0004656754,0,1
-0.0001825473,-0.0003864254,0,1
-0.0002720074,-0.0002869174,0,1
-0.0003637363,-0.0001746061,0,1
-0.0004332623,-4.203669e-05,0,1
-0.0004643789,0.0001313732,0,1
-0.000452224,0.0003632887,0,1
-0.0003948528,0.0006465791,0,1
-0.000303448,0.0009520725,0,1
-0.0001968091,0.00123747,0,1
-0.0001067007,0.001459014,0,1
-5.808115e-05,0.001576835,0,1
-5.548811e-05,0.001566139,0,1
-8.757704e-05,0.001438755,0,1
-0.0001298761,0.001239739,0,1
-0.0001647201,0.001035212,0,1
-0.000189192,0.0008807636,0,1
-0.0002070192,0.0007990826,0,1
-0.0002180396,0.0007861174,0,1
-0.0002188499,0.000807348,0,1
-0.0002083157,0.0008125341,0,1
-0.0001857886,0.0007674799,0,1
-0.0001464067,0.0006684579,0,1
-9.276313e-05,0.0005410745,0,1
-3.312309e-05,0.0004204978,0,1
1.954813e-05,0.0003328204,0,1
5.649903e-05,0.0002801492,0,1
6.914012e-05,0.0002444948,0,1
5.228533e-05,0.0002018716,0,1
1.274139e-05,0.0001373696,0,1
-4.333321e-05,4.77475e-05,0,1
-0.0001099421,-6.002594e-05,0,1
-0.000174282,-0.0001784957,0,1
-0.0002207947,-0.0002976137,0,1
-0.0002335979,-0.0004097628,0,1
-0.0001951884,-0.0005112157,0,1
-9.681477e-05,-0.0006000275,0,1
5.666109e-05,-0.0006791154,0,1
0.000249843,-0.0007486413,0,1
0.0004512903,-0.0008060125,0,1
0.0006222692,-0.0008475012,0,1
0.000728098,-0.0008769971,0,1
0.0007538663,-0.000904224,0,1
0.0007060571,-0.0009337199,0,1
0.0006127074,-0.0009622434,0,1
0.0005093097,-0.0009870394,0,1
0.000420984,-0.001004543,0,1
0.0003603715,-0.00100746,0,1
0.0003346032,-0.0009897945,0,1
0.0003576164,-0.0009570573,0,1
0.0004290873,-0.000921403,0,1
0.0005287575,-0.0008957966,0,1
0.0006206486,-0.0008831556,0,1
0.0006746164,-0.00086938,0,1
0.0006760749,-0.0008277292,0,1
0.0006306967,-0.0007363244,0,1
0.0005644119,-0.0005852795,0,1
0.0005086614,-0.0003862634,0,1
0.0004744656,-0.0001762268,0,1
0.0004472386,1.883015e-06,0,1
0.0003922984,0.000125863,0,1
0.0002832284,0.0002180782,0,1
0.0001161391,0.0003368721,0,1
-8.482193e-05,0.0005297299,0,1
-0.0002783279,0.0007861174,0,1
-0.0004282383,0.001030188,0,1
-0.0005162397,0.001177668,0,1
-0.000539091,0.001168916,0,1
-0.0005081365,0.0009963163,0,1
-0.000447362,0.0007057329,0,1
-0.0003776739,0.0003725265,0,1
-0.0003162512,7.189524e-05,0,1
-0.0002718453,-0.0001502963,0,1
-0.0002546664,-0.0002801106,0,1
-0.0002702246,-0.0003206269,0,1
-0.0003117133,-0.0002815692,0,1
-0.0003664914,-0.0001755785,0,1
-0.0004128421,-2.323711e-05,0,1
-0.000430021,0.0001412592,0,1
-0.0004079801,0.0002785285,0,1
-0.000350447,0.0003569682,0,1
-0.000278652,0.0003734989,0,1
-0.0002211189,0.0003449753,0,1
-0.0001963229,0.0002986247,0,1
-0.0002071812,0.0002581083,0,1
-0.0002350565,0.0002326641,0,1
-0.0002473734,0.0002124059,0,1
-0.0002109087,0.0001786963,0,1
-0.0001070249,0.0001177597,0,1
6.946425e-05,3.478228e-05,0,1
0.000304297,-4.884343e-05,0,1
0.0005603603,-9.875954e-05,0,1
0.000797462,-8.595638e-05,0,1
0.0009857821,-9.137427e-06,0,1
0.001107331,0.000108522,0,1
0.001137638,0.0002393087,0,1
0.001042829,0.0003606957,0,1
0.0007956792,0.0004637693,0,1
0.0004119083,0.000547233,0,1
-3.490581e-05,0.0005984457,0,1
-0.0004365036,0.000596825,0,1
-0.0007125008,0.0005284334,0,1
-0.0008415048,0.0004008879,0,1
-0.0008525252,0.0002396328,0,1
-0.0007979092,8.259155e-05,0,1
-0.0007240074,-3.749886e-05,0,1
-0.0006640433,-0.0001114006,0,1
-0.0006340612,-0.0001548341,0,1
-0.0006358439,-0.0001932436,0,1
-0.00065594,-0.0002426735,0,1
-0.0006619364,-0.0002943724,0,1
-0.0006128307,-0.0003277578,0,1
-0.0004799371,-0.0003261372,0,1
-0.000271035,-0.0002872415,0,1
-3.279896e-05,-0.0002310048,0,1
0.0001720516,-0.0001846542,0,1
0.0002944109,-0.0001707166,0,1
0.0003128864,-0.0001950263,0,1
0.0002321778,-0.0002454286,0,1
7.740546e-05,-0.0003062031,0,1
-0.0001130213,-0.0003650328,0,1
-0.0002956689,-0.0004108973,0,1
-0.0004425001,-0.0004306693,0,1
-0.0005486528,-0.0004066836,0,1
-0.0006134789,-0.0003348887,0,1
-0.0006316302,-0.0002486699,0,1
-0.0005987309,-0.0001930815,0,1
-0.0005279084,-0.0001846542,0,1
-0.0004421759,-0.0002120432,0,1
-0.0003562813,-0.0002527216,0,1
-0.0002684419,-0.0002840002,0,1
-0.0001637477,-0.0002942103,0,1
-3.393342e-05,-0.0002878898,0,1
0.0001211631,-0.0002789762,0,1
0.0002989488,-0.0002844864,0,1
0.0004861343,-0.00032322,0,1
0.0006558168,-0.0004045768,0,1
0.0007729901,-0.0005151053,0,1
0.0008110755,-0.0006262821,0,1
0.000760349,-0.0007196317,0,1
0.0006370172,-0.0008124951,0,1
0.0004837033,-0.0009290201,0,1
0.0003488649,-0.001074068,0,1
0.0002540567,-0.001222358,0,1
0.0002013854,-0.001332887,0,1
0.0001816135,-0.001370486,0,1
0.0001882582,-0.001318301,0,1
0.0002124059,-0.001181032,0,1
0.0002467637,-0.000978774,0,1
0.0002827423,-0.0007418346,0,1
0.0003010556,-0.0005011677,0,1
0.0002830664,-0.0002775176,0,1
0.00022764,-8.757704e-05,0,1
0.0001514693,6.670914e-05,0,1
6.946425e-05,0.0001973338,0,1
-2.113026e-05,0.0003180725,0,1
-0.0001308485,0.0004281149,0,1
-0.0002590421,0.0005290816,0,1
-0.0003814014,0.0006357207,0,1
-0.0004682684,0.0007656972,0,1
-0.0005047331,0.0009277626,0,1
-0.0004963057,0.001105549,0,1
-0.0004617858,0.001260483,0,1
-0.000417542,0.00135043,0,1
-0.000367788,0.001356102,0,1
-0.0003130099,0.001296624,0,1
-0.0002596904,0.001210891,0,1
-0.0002151224,0.001137313,0,1
-0.0001715269,0.001093069,0,1
-0.0001157764,0.001069246,0,1
-4.138842e-05,0.001043477,0,1
5.115087e-05,0.0009903199,0,1
0.0001547106,0.0008925945,0,1
0.0002585945,0.0007550009,0,1
0.0003495132,0.0006008766,0,1
0.0004088291,0.0004517764,0,1
0.0004200116,0.0003218,0,1
0.0003908399,0.0002161334,0,1
0.0003360618,0.0001312112,0,1
0.0002642668,5.860588e-05,0,1
0.0001736723,-1.25408e-05,0,1
5.390598e-05,-9.794922e-05,0,1
-9.940781e-05,-0.0002120432,0,1
-0.0002763831,-0.0003579019,0,1
-0.000444769,-0.0005152673,0,1
-0.0005632387,-0.0006442713,0,1
-0.0006091032,-0.0007165525,0,1
-0.0005830107,-0.0007408622,0,1
-0.000514295,-0.0007395657,0,1
-0.0004483344,-0.0007287074,0,1
-0.0004214316,-0.0007095836,0,1
-0.0004439586,-0.000680574,0,1
-0.0004948471,-0.0006382749,0,1
-0.0005327704,-0.000578797,0,1
-0.0005261258,-0.0004940368,0,1
-0.0004783165,-0.000365357,0,1
-0.0004188385,-0.0001689338,0,1
-0.0003796187,0.0001180839,0,1
-0.0003728119,0.0004880791,0,1
-0.0003859393,0.0008961599,0,1
-0.00039777,0.001262914,0,1
-0.0003830221,0.001520761,0,1
-0.0003141443,0.001650899,0,1
-0.0001721751,0.001696764,0,1
5.860588e-05,0.001713295,0,1
0.0003675024,0.001717346,0,1
0.0006979538,0.001683151,0,1
0.0009671446,0.001571487,0,1
0.001118838,0.001371822,0,1
0.001150927,0.001118352,0,1
0.00110409,0.0008682846,0,1
0.001022085,0.0006780197,0,1
0.0009412141,0.0005734875,0,1
0.0008830326,0.0005433434,0,1
0.0008504574,0.0005520949,0,1
0.0008324682,0.0005561466,0,1
0.0008126961,0.0005140096,0,1
0.0007778521,0.0004072085,0,1
0.0007242084,0.0002459534,0,1
0.0006426895,6.541262e-05,0,1
0.0005243817,-0.0001031353,0,1
0.0003733368,-0.0002444563,0,1
0.0002068957,-0.000365357,0,1
4.288554e-05,-0.0004760476,0,1
-9.859748e-05,-0.0005804176,0,1
-0.0002034537,-0.0006794395,0,1
-0.0002684419,-0.0007701961,0,1
-0.0003073376,-0.0008531735,0,1
-0.0003452609,-0.0009298304,0,1
-0.0003930701,-0.001003408,0,1
-0.0004412035,-0.001074717,0,1
-0.0004800992,-0.001134519,0,1
-0.0005011677,-0.001164177,0,1
-0.0005045711,-0.001149105,0,1
-0.0004977643,-0.001091734,0,1
-0.0005005194,-0.001010377,0,1
-0.0005288809,-0.0009267511,0,1
-0.0005885208,-0.0008500942,0,1
-0.0006603158,-0.0007765166,0,1
-0.0007016424,-0.0006949978,0,1
-0.0006672846,-0.0005954896,0,1
-0.0005356876,-0.0004755614,0,1
-0.0003261372,-0.0003442885,0,1
-8.125649e-05,-0.0002212809,0,1
0.000165569,-0.0001229073,0,1
0.0004080188,-5.127441e-05,0,1
0.0006556547,1.883015e-06,0,1
0.0009170663,4.337174e-05,0,1
0.001178316,8.064677e-05,0,1
0.00141088,0.0001167873,0,1
0.001585425,0.0001511452,0,1
0.001686392,0.0001923098,0,1
0.001707947,0.000249843,0,1
0.001654627,0.0003196932,0,1
0.001525136,0.0003778746,0,1
0.001317692,0.0003866261,0,1
0.001043315,0.0003248792,0,1
0.0007439804,0.0002049509,0,1
0.0004731691,5.876794e-05,0,1
0.0002730183,-7.704279e-05,0,1
0.0001558451,-0.000176713,0,1
9.68533e-05,-0.0002293842,0,1
4.369587e-05,-0.0002384598,0,1
-5.192267e-05,-0.0002172293,0,1
-0.0002102605,-0.000181737,0,1
-0.0004091146,-0.000134576,0,1
-0.0005948414,-7.120844e-05,0,1
-0.0007168766,9.013889e-06,0,1
-0.000757555,9.182927e-05,0,1
-0.0007306521,0.000153252,0,1
-0.0006674466,0.0001733481,0,1
-0.0005927345,0.000150659,0,1
-0.0005092709,0.000105929,0,1
-0.0004107352,6.557468e-05,0,1
-0.0003016653,4.288554e-05,0,1
-0.0002032917,3.996837e-05,0,1
-0.0001417068,5.601284e-05,0,1
-0.0001353863,9.507057e-05,0,1
-0.0001750923,0.0001540623,0,1
-0.0002305186,0.0002222919,0,1
-0.0002648765,0.0002775562,0,1
-0.000261149,0.0002983005,0,1
-0.0002394322,0.0002701012,0,1
-0.0002347323,0.0002031682,0,1
-0.0002809209,0.0001182459,0,1
-0.0003943667,3.299956e-05,0,1
-0.0005653456,-3.312309e-05,0,1
-0.0007546378,-6.731888e-05,0,1
-0.0009192961,-6.780507e-05,0,1
-0.001031445,-4.625038e-05,0,1
-0.001076986,-2.583016e-05,0,1
-0.00105689,-3.198864e-05,0,1
-0.000976019,-6.845333e-05,0,1
-0.0008413427,-0.0001190177,0,1
-0.0006752257,-0.0001757406,0,1
-0.0005164018,-0.0002522354,0,1
-0.0003979321,-0.0003598467,0,1
-0.0003309991,-0.0004859335,0,1
-0.0003024756,-0.0006068342,0,1
-0.0002854588,-0.0006953219,0,1
-0.0002556388,-0.0007231971,0,1
-0.0002042641,-0.0006721465,0,1
-0.0001336036,-0.0005509217,0,1
-5.176061e-05,-0.0003980942,0,1
3.056858e-05,-0.0002619593,0,1
0.0001046324,-0.0001771992,0,1
0.0001610312,-0.0001611547,0,1
0.0001895547,-0.0002078295,0,1
0.0001876099,-0.0002904828,0,1
0.0001671896,-0.00036795,0,1
0.0001467694,-0.000400201,0,1
0.0001428799,-0.0003698948,0,1
0.0001590864,-0.0002827037,0,1
0.0001918236,-0.0001566169,0,1
0.000242388,-2.583016e-05,0,1
0.0003148312,6.136099e-05,0,1
0.0004039671,6.525056e-05,0,1
0.0004921307,-2.194059e-05,0,1
0.0005619809,-0.0001729855,0,1
0.0006010387,-0.000340561,0,1
0.0006118971,-0.0004859335,0,1
0.0006003904,-0.0005990551,0,1
0.0005699221,-0.000698077,0,1
0.0005114165,-0.000804878,0,1
0.0004094774,-0.0009293442,0,1
0.0002645909,-0.001051866,0,1
9.928428e-05,-0.001131926,0,1
-4.819517e-05,-0.001130791,0,1
-0.0001507825,-0.001031607,0,1
-0.0002154466,-0.0008525252,0,1
-0.0002707109,-0.0006358439,0,1
-0.0003371576,-0.0004238625,0,1
-0.0004180282,-0.000241377,0,1
-0.0004979264,-8.222889e-05,0,1
-0.0005619422,8.453633e-05,0,1
-0.000611048,0.0002861456,0,1
-0.0006577228,0.0005153061,0,1
-0.0007230351,0.0007327979,0,1
-0.0008149261,0.0008891911,0,1
-0.0009207547,0.0009579068,0,1
-0.001016535,0.0009502898,0,1
-0.001086061,0.0009062079,0,1
-0.001117016,0.0008671501,0,1
-0.00110243,0.0008520781,0,1
-0.001034687,0.0008579124,0,1
-0.0009097343,0.0008718501,0,1
-0.0007335693,0.0008786568,0,1
-0.0005230465,0.000861802,0,1
-0.0002997205,0.0008196649,0,1
-8.239095e-05,0.00076278,0,1
0.0001214872,0.0007067053,0,1
0.0003065659,0.0006580857,0,1
0.0004647417,0.0006075213,0,1
0.0005840218,0.0005428572,0,1
0.0006650545,0.0004644175,0,1
0.000725667,0.0003957018,0,1
0.0007869278,0.0003624784,0,1
0.0008626123,0.0003718782,0,1
0.0009473725,0.0004132049,0,1
0.001029864,0.0004662003,0,1
0.00109939,0.0005067165,0,1
0.001142662,0.0005128751,0,1
0.001153844,0.0004707381,0,1
0.001136179,0.000383871,0,1
0.001097283,0.0002718839,0,1
0.001045746,0.000162976,0,1
0.0009903199,7.513654e-05,0,1
0.0009387831,1.257933e-05,0,1
0.0008948633,-4.187462e-05,0,1
0.0008580745,-0.000119666,0,1
0.0008217718,-0.000241377,0,1
0.0007744487,-0.0004087905,0,1
0.0007042743,-0.0005975965,0,1
0.0006151384,-0.0007617687,0,1
0.0005251921,-0.000857063,0,1
0.0004553419,-0.0008575493,0,1
0.0004145014,-0.0007594998,0,1
0.0003991052,-0.0005786349,0,1
0.0003893813,-0.0003334301,0,1
0.0003581026,-3.004385e-05,0,1
0.0002874421,0.0003592371,0,1
0.0001806411,0.0008708776,0,1
5.795762e-05,0.001487213,0,1
-6.731888e-05,0.002101443,0,1
-0.0002010227,0.002549555,0,1
-0.000353202,0.002687798,0,1
-0.0005186707,0.002481325,0,1
-0.0006698776,0.002020247,0,1
-0.0007721409,0.001454638,0,1
-0.0008063366,0.000921118,0,1
-0.0007766787,0.000495372,0,1
-0.0007071526,0.0001919856,0,1
-0.0006322784,-1.562004e-05,0,1
-0.000588845,-0.0001577513,0,1
-0.0006039171,-0.0002459149,0,1
-0.0006689052,-0.0002744383,0,1
-0.0007418346,-0.0002400805,0,1
-0.000767603,-0.0001598582,0,1
-0.0007063423,-7.412562e-05,0,1
-0.0005587008,-1.886135e-05,0,1
-0.0003596847,-3.303076e-06,0,1
-0.0001627754,-1.578211e-05,0,1
-8.975362e-06,-3.798505e-05,0,1
8.307774e-05,-6.0188e-05,0,1
0.0001206769,-8.417367e-05,0,1
0.0001286181,-0.0001219349,0,1
0.0001321835,-0.0001802784,0,1
0.0001365593,-0.0002473734,0,1
0.0001295905,-0.0003049066,0,1
9.977047e-05,-0.0003413713,0,1
5.066468e-05,-0.0003536883,0,1
5.124321e-06,-0.0003517435,0,1
-1.059602e-05,-0.0003499608,0,1
1.59827e-05,-0.000360333,0,1
7.918817e-05,-0.0003854531,0,1
0.0001526038,-0.0004155972,0,1
0.0002023578,-0.000435045,0,1
0.0002146748,-0.0004311555,0,1
0.0001937684,-0.000395339,0,1
0.0001592484,-0.000325651,0,1
0.0001286181,-0.0002303566,0,1
0.0001122495,-0.0001208004,0,1
0.000110953,-1.67545e-05,0,1
0.000121001,5.61749e-05,0,1
0.0001297526,7.870197e-05,0,1
0.000128456,3.883391e-05,0,1
0.0001153287,-5.208474e-05,0,1
9.63671e-05,-0.0001648822,0,1
7.951231e-05,-0.000268604,0,1
6.670914e-05,-0.0003467195,0,1
6.136099e-05,-0.0003946908,0,1
6.946425e-05,-0.0004178661,0,1
8.891209e-05,-0.0004272659,0,1
0.0001125736,-0.0004322899,0,1
0.0001289422,-0.0004332623,0,1
0.0001216493,-0.000422566,0,1
7.513654e-05,-0.0003967976,0,1
-1.043395e-05,-0.0003564434,0,1
-0.000117235,-0.0003039342,0,1
-0.000231329,-0.0002460769,0,1
-0.0003485022,-0.0001989159,0,1
-0.0004625961,-0.0001874093,0,1
-0.0005624284,-0.0002305186,0,1
-0.0006444334,-0.0003274337,0,1
-0.0007074767,-0.0004582204,0,1
-0.0007434553,-0.0005911139,0,1
-0.0007394037,-0.0006899738,0,1
-0.0006815463,-0.0007293556,0,1
-0.0005596732,-0.0007022907,0,1
-0.0003776739,-0.0006238511,0,1
-0.0001663408,-0.0005100812,0,1
3.089271e-05,-0.0003783222,0,1
0.0001676758,-0.0002473734,0,1
0.0002117576,-0.0001319829,0,1
0.000158114,-4.495386e-05,0,1
3.688912e-05,6.90704e-06,0,1
-9.908367e-05,2.635488e-05,0,1
-0.0001998883,1.841368e-05,0,1
-0.0002373254,-1.043395e-05,0,1
-0.0002131776,-5.095028e-05,0,1
-0.0001548341,-8.741498e-05,0,1
-9.859748e-05,-0.0001112386,0,1
-6.683268e-05,-0.0001250141,0,1
-6.342931e-05,-0.0001397621,0,1
-8.190475e-05,-0.0001724993,0,1
-0.0001037836,-0.0002344082,0,1
-0.000107349,-0.0003251648,0,1
-7.039812e-05,-0.0004296969,0,1
1.64689e-05,-0.000519481,0,1
0.0001474177,-0.0005676145,0,1
0.0002950592,-0.0005731247,0,1
0.0004200116,-0.0005559457,0,1
0.0004874308,-0.0005408737,0,1
0.000487755,-0.000541684,0,1
0.0004354078,-0.0005588629,0,1
0.0003542131,-0.0005878726,0,1
0.0002585945,-0.0006204477,0,1
0.0001521176,-0.0006467023,0,1
3.640293e-05,-0.0006586951,0,1
-7.120844e-05,-0.0006471885,0,1
-0.0001300382,-0.0006022964,0,1
-9.503204e-05,-0.0005063537,0,1
4.337174e-05,-0.0003439643,0,1
0.0002406053,-0.0001182074,0,1
0.0004196875,0.0001477418,0,1
0.0005190336,0.0004192013,0,1
0.0005148199,0.0006541961,0,1
0.000425846,0.0008133444,0,1
0.0003000832,0.0008718501,0,1
0.0001835583,0.000834575,0,1
9.733949e-05,0.0007362012,0,1
3.332369e-05,0.0006310208,0,1
-2.09682e-05,0.0005681394,0,1
-6.634648e-05,0.0005663567,0,1
-9.098041e-05,0.0006146522,0,1
-8.433573e-05,0.000683692,0,1
-5.743289e-05,0.0007425218,0,1
-3.506788e-05,0.0007671557,0,1
-3.004385e-05,0.0007483562,0,1
-3.928157e-05,0.0006945504,0,1
-5.386745e-05,0.0006211348,0,1
-6.48879e-05,0.0005417228,0,1
-7.526008e-05,0.0004616624,0,1
-9.470791e-05,0.0003822504,0,1
-0.0001402483,0.000309321,0,1
-0.0002199844,0.0002440086,0,1
-0.0003188442,0.0001885823,0,1
-0.0003995528,0.0001402868,0,1
-0.0004172179,9.280167e-05,0,1
-0.0003514194,4.920609e-05,0,1
-0.0002136638,1.355172e-05,0,1
-4.916756e-05,-2.210265e-05,0,1
9.069481e-05,-6.893953e-05,0,1
0.0001683241,-0.0001326312,0,1
0.0001733481,-0.0002079916,0,1
0.0001088461,-0.0002852967,0,1
-8.975362e-06,-0.0003491504,0,1
-0.0001554824,-0.0003775118,0,1
-0.0002979378,-0.0003553089,0,1
-0.0003984183,-0.0002788141,0,1
-0.000437314,-0.000156941,0,1
-0.0004177041,-6.868513e-06,0,1
-0.0003574158,0.0001516314,0,1
-0.0002817312,0.0002997591,0,1
-0.000216419,0.0004277907,0,1
-0.0001729855,0.0005290816,0,1
-0.0001502963,0.000604442,0,1
-0.0001407345,0.0006592202,0,1
-0.0001361966,0.0006987641,0,1
-0.0001368449,0.000715619,0,1
-0.0001483515,0.0007024916,0,1
-0.0001634236,0.0006593822,0,1
-0.0001600202,0.0005898562,0,1
-0.0001199901,0.0005023408,0,1
-4.673658e-05,0.0004065602,0,1
4.110282e-05,0.0003156415,0,1
0.0001245665,0.0002297469,0,1
0.0001895547,0.0001409351,0,1
0.0002320158,4.158902e-05,0,1
0.0002431983,-7.250496e-05,0,1
0.0002261814,-0.0001968091,0,1
0.0002005751,-0.0003180339,0,1
0.0001908512,-0.0004235384,0,1
0.0002109473,-0.0005037607,0,1
0.000257298,-0.0005514079,0,1
0.0003188828,-0.0005585388,0,1
0.0003773884,-0.0005269361,0,1
0.0004247115,-0.0004702132,0,1
0.0004749518,-0.0004143007,0,1
0.000539778,-0.0003857772,0,1
0.0006243761,-0.0004118697,0,1
0.0007311772,-0.0005024642,0,1
0.0008541849,-0.0006452437,0,1
0.0009723307,-0.0008076332,0,1
0.001057091,-0.0009515471,0,1
0.001085128,-0.001047004,0,1
0.001044126,-0.001079255,0,1
0.0009373245,-0.001054945,0,1
0.0007770417,-0.000995953,0,1
0.0005882355,-0.0009269132,0,1
0.0004034809,-0.0008722972,0,1
0.000247412,-0.0008460426,0,1
0.0001344524,-0.0008406945,0,1
6.881599e-05,-0.0008277292,0,1
4.158902e-05,-0.0007766787,0,1
2.894792e-05,-0.0006637191,0,1
-4.923729e-06,-0.0004765338,0,1
-7.914964e-05,-0.0002079916,0,1
-0.000181737,0.0001561692,0,1
-0.00027849,0.0006319932,0,1
-0.0003322956,0.00121316,0,1
-0.0003251648,0.00183063,0,1
-0.000261149,0.002358965,0,1
-0.0001673132,0.002661867,0,1
-7.882551e-05,0.002641123,0,1
-2.453363e-05,0.002294139,0,1
-1.918548e-05,0.001725125,0,1
-5.678463e-05,0.001105386,0,1
-0.0001143178,0.0006005525,0,1
-0.0001676373,0.0003025142,0,1
-0.0001977815,0.0002078681,0,1
-0.0002042641,0.0002433604,0,1
-0.0002000504,0.0003222862,0,1
-0.000204102,0.0003843572,0,1
-0.0002295462,0.0004119083,0,1
-0.0002741142,0.0004182289,0,1
-0.0003319715,0.0004219564,0,1
-0.0003992286,0.0004242253,0,1
-0.0004768579,0.0004145014,0,1
-0.0005655076,0.0003921364,0,1
-0.0006570745,0.0003794953,0,1
-0.0007397278,0.000401212,0,1
-0.0007922369,0.0004603659,0,1
-0.0007906163,0.000537509,0,1
-0.000720442,0.000599256,0,1
-0.0006026206,0.0006065489,0,1
-0.0004864197,0.0005376711,0,1
-0.0004128421,0.0003984569,0,1
-0.0003966356,0.0002239125,0,1
-0.0004256453,5.974033e-05,0,1
-0.000474589,-6.602235e-05,0,1
-0.0005159156,-0.0001530514,0,1
-0.0005339049,-0.0002193361,0,1
-0.0005185087,-0.0002925897,0,1
-0.0004710235,-0.0003893426,0,1
-0.0004029561,-0.0005086227,0,1
-0.0003230579,-0.0006308199,0,1
-0.0002366771,-0.0007368106,0,1
-0.0001392759,-0.0008116848,0,1
-3.506788e-05,-0.0008436117,0,1
6.41161e-05,-0.0008306464,0,1
0.0001487142,-0.0007876991,0,1
0.0002122438,-0.0007343796,0,1
0.0002534084,-0.0006755499,0,1
0.0002701012,-0.0005941931,0,1
0.0002602152,-0.0004535205,0,1
0.00024255,-0.0002282497,0,1
0.0002529222,8.210535e-05,0,1
0.0003274723,0.0004402698,0,1
0.0004647417,0.0007694247,0,1
0.0006250244,0.0009794616,0,1
0.0007459252,0.001009282,0,1
0.0007788245,0.0008575883,0,1
0.00071335,0.000579484,0,1
0.0005752703,0.0002600531,0,1
0.0004067223,-2.015787e-05,0,1
0.0002514636,-0.0002135018,0,1
0.0001378558,-0.0003113892,0,1
7.124698e-05,-0.0003360231,0,1
3.397195e-05,-0.0003298647,0,1
2.369211e-06,-0.0003339163,0,1
-4.203669e-05,-0.0003736223,0,1
-9.875954e-05,-0.0004682684,0,1
-0.0001543479,-0.0006241752,0,1
-0.0001861127,-0.000819788,0,1
-0.0001729855,-0.001016211,0,1
-0.0001041077,-0.001182814,0,1
1.614476e-05,-0.001296746,0,1
0.0001722137,-0.00134958,0,1
0.000331686,-0.001348121,0,1
0.0004514523,-0.001307442,0,1
0.0004968306,-0.001243913,0,1
0.0004519385,-0.001169849,0,1
0.000326824,-0.001084279,0,1
0.0001571416,-0.0009766672,0,1
-1.010982e-05,-0.0008406945,0,1
-0.000144462,-0.0006779809,0,1
-0.0002436459,-0.0005013297,0,1
-0.0003151167,-0.0003191683,0,1
-0.0003635742,-0.0001282554,0,1
-0.0003942046,7.416415e-05,0,1
-0.0004173799,0.0002769079,0,1
-0.0004442827,0.0004540453,0,1
-0.0004794509,0.0005741358,0,1
-0.0005206155,0.0006255105,0,1
-0.0005609698,0.0006319932,0,1
-0.000586414,0.0006362069,0,1
-0.0005922483,0.0006666752,0,1
-0.0005771763,0.0007165913,0,1
-0.0005313118,0.0007584042,0,1
-0.0004381243,0.0007652109,0,1
-0.0002878898,0.0007340944,0,1
-9.276313e-05,0.0006763991,0,1
0.0001156529,0.0006104385,0,1
0.0002931144,0.0005522569,0,1
0.0004042913,0.0005138475,0,1
0.0004405939,0.0005072028,0,1
0.000428439,0.0005378332,0,1
0.0003971604,0.0005906665,0,1
0.0003683128,0.0006415551,0,1
0.000344165,0.0006674855,0,1
0.000314345,0.0006512789,0,1
0.0002688046,0.0005874252,0,1
0.0002106232,0.0004859722,0,1
0.0001561692,0.0003636129,0,1
0.0001274836,0.0002360674,0,1
0.0001422316,0.0001156529,0,1
0.000200251,3.665733e-06,0,1
0.0002806354,-0.0001042698,0,1
0.0003488649,-0.0002169052,0,1
0.0003884089,-0.000330675,0,1
0.0004020224,-0.0004334244,0,1
0.0003989431,-0.0005104054,0,1
0.0003840331,-0.0005556216,0,1
0.0003558337,-0.0005760419,0,1
0.0003120761,-0.0005847933,0,1
0.0002532463,-0.0006000275,0,1
0.000185341,-0.0006290372,0,1
0.0001201907,-0.0006710121,0,1
7.027458e-05,-0.000720442,0,1
4.580272e-05,-0.0007664686,0,1
3.899597e-05,-0.0007987196,0,1
2.959619e-05,-0.0008110365,0,1
-8.165035e-06,-0.0008055263,0,1
-8.790117e-05,-0.0007906163,0,1
-0.0001955125,-0.0007703581,0,1
-0.0003013411,-0.0007434553,0,1
-0.0003815635,-0.0007087733,0,1
-0.0004334244,-0.0006666363,0,1
-0.0004603272,-0.0006150996,0,1
-0.0004588687,-0.0005543251,0,1
-0.0004154351,-0.0004851232,0,1
-0.0003212752,-0.0004083043,0,1
-0.0001937298,-0.0003149546,0,1
-6.051213e-05,-0.0001953505,0,1
4.645098e-05,-5.159854e-05,0,1
0.0001000946,9.960841e-05,0,1
9.280167e-05,0.0002370398,0,1
4.515445e-05,0.0003469201,0,1
-1.416145e-05,0.0004256839,0,1
-6.44017e-05,0.0004765725,0,1
-9.859748e-05,0.0004997478,0,1
-0.0001185315,0.0004979651,0,1
-0.0001287416,0.0004781931,0,1
-0.0001350622,0.0004537212,0,1
-0.0001342519,0.0004315182,0,1
-0.0001253383,0.0004127187,0,1
-0.0001195039,0.0003960259,0,1
-0.0001279313,0.0003820883,0,1
-0.0001535376,0.0003720403,0,1
-0.0001893541,0.0003705817,0,1
-0.0002199844,0.0003859779,0,1
-0.0002279256,0.000418553,0,1
-0.0002011848,0.0004608521,0,1
-0.0001295519,0.0005015305,0,1
-5.89612e-06,0.0005368608,0,1
0.0001667035,0.0005657084,0,1
0.0003581026,0.0005872631,0,1
0.0005206542,0.0005976353,0,1
0.0006104385,0.0005922872,0,1
0.000604442,0.0005699221,0,1
0.0005073649,0.0005305402,0,1
0.0003525924,0.0004793275,0,1
0.0001790204,0.0004326527,0,1
2.538249e-05,0.000410936,0,1
-7.866345e-05,0.0004200116,0,1
-0.0001256624,0.0004490213,0,1
-0.0001240417,0.0004827309,0,1
-9.470791e-05,0.0005183853,0,1
-6.180866e-05,0.0005618189,0,1
-4.106429e-05,0.000621783,0,1
-3.604027e-05,0.0006997365,0,1
-4.365734e-05,0.0007888725,0,1
-6.132246e-05,0.0008647192,0,1
-8.741498e-05,0.0008972943,0,1
-0.0001250141,0.0008686088,0,1
-0.0001733096,0.0007820658,0,1
-0.0002254946,0.0006639201,0,1
-0.0002726556,0.0005436675,0,1
-0.0003089583,0.0004323286,0,1
-0.0003361852,0.0003177483,0,1
-0.0003595226,0.0001890685,0,1
-0.0003715154,4.693717e-05,0,1
-0.0003438023,-9.875954e-05,0,1
-0.0002525595,-0.0002334358,0,1
-9.227693e-05,-0.0003442885,0,1
0.0001130598,-0.0004188385,0,1
0.0003122381,-0.0004518998,0,1
0.0004495075,-0.0004533584,0,1
0.0004955341,-0.0004437966,0,1
0.0004537212,-0.0004394208,0,1
0.000353889,-0.0004489826,0,1
0.0002362295,-0.0004661616,0,1
0.0001312112,-0.0004760476,0,1
5.277153e-05,-0.0004595169,0,1
4.47606e-06,-0.0004036044,0,1
-1.464765e-05,-0.0003209511,0,1
-1.237873e-05,-0.000253856,0,1
8.203562e-06,-0.0002501286,0,1
4.369587e-05,-0.0003384541,0,1
8.761557e-05,-0.000509595,0,1
0.0001313732,-0.0007280591,0,1
0.0001587623,-0.0009560849,0,1
0.000158114,-0.001159963,0,1
0.0001315353,-0.00131506,0,1
8.372601e-05,-0.00141084,0,1
1.144487e-05,-0.001452491,0,1
-9.713889e-05,-0.001445684,0,1
-0.0002472114,-0.001392041,0,1
-0.0004165696,-0.001293019,0,1
-0.0005604835,-0.001152184,0,1
-0.0006376266,-0.00097375,0,1
-0.0006309819,-0.0007530171,0,1
-0.0005462218,-0.0004765338,0,1
-0.0004061974,-0.0001154523,0,1
-0.0002386219,0.0003467581,0,1
-7.23429e-05,0.0008694191,0,1
7.918817e-05,0.001341192,0,1
0.000215161,0.001622052,0,1
0.0003339549,0.001609087,0,1
0.000425846,0.001293707,0,1
0.0004739794,0.0007742866,0,1
0.0004624728,0.0002051129,0,1
0.00038614,-0.0002669833,0,1
0.0002602152,-0.000549139,0,1
0.0001201907,-0.0006266062,0,1
7.879432e-06,-0.0005424943,0,1
-4.544006e-05,-0.0003666535,0,1
-3.166451e-05,-0.0001614788,0,1
3.640293e-05,3.640293e-05,0,1
0.000133318,0.0002216436,0,1
0.0002218057,0.0004015361,0,1
0.0002712356,0.0005768909,0,1
0.0002701012,0.0007421977,0,1
0.000230071,0.0008958358,0,1
0.0001715654,0.001039588,0,1
0.0001141943,0.001172968,0,1
7.999851e-05,0.001294841,0,1
9.118101e-05,0.001406829,0,1
0.000150659,0.00149564,0,1
0.0002443328,0.001526595,0,1
0.0003436788,0.001457231,0,1
0.0004174185,0.001279283,0,1
0.0004368664,0.001031647,0,1
0.0003864641,0.0007823899,0,1
0.0002686426,0.0005981215,0,1
0.0001103047,0.0005120648,0,1
-4.819517e-05,0.0005093097,0,1
-0.0001650443,0.0005407503,0,1
-0.0002053985,0.0005579292,0,1
-0.0001481895,0.0005365367,0,1
2.855407e-06,0.0004767345,0,1
0.0002125679,0.0003853296,0,1
0.0004297355,0.0002728562,0,1
0.0006037938,0.0001412592,0,1
0.0006971435,-1.189254e-05,0,1
0.0006856368,-0.0001820611,0,1
0.0005684635,-0.000365519,0,1
0.0003707437,-0.0005551354,0,1
0.0001375317,-0.0007410243,0,1
-8.255302e-05,-0.0009097343,0,1
-0.0002554767,-0.001043924,0,1
-0.0003676259,-0.001126578,0,1
-0.0004280762,-0.001149591,0,1
-0.0004554653,-0.001120257,0,1
-0.0004645409,-0.001057376,0,1
-0.0004527101,-0.000986067,0,1
-0.0004068457,-0.0009298304,0,1
-0.0003168994,-0.0008995241,0,1
-0.0001930815,-0.0009003344,0,1
-6.407757e-05,-0.0009335579,0,1
2.878586e-05,-0.0009948185,0,1
5.228533e-05,-0.001068234,0,1
-7.192643e-06,-0.001128522,0,1
-0.0001373311,-0.00115818,0,1
-0.0003049066,-0.001155263,0,1
-0.0004677822,-0.001127712,0,1
-0.0005935449,-0.001081361,0,1
-0.0006629088,-0.001012646,0,1
-0.0006718224,-0.0009233478,0,1
-0.0006334129,-0.0008194639,0,1
-0.0005679386,-0.0007160662,0,1
-0.0004967919,-0.0006280648,0,1
-0.0004316416,-0.000556756,0,1
-0.000360333,-0.0004898231,0,1
-0.0002694143,-0.0004066836,0,1
-0.0001514308,-0.0002903207,0,1
-6.706447e-06,-0.0001442999,0,1
0.0001496866,5.286387e-06,0,1
0.0002918179,0.0001247285,0,1
0.0003947294,0.0001884202,0,1
0.0004376768,0.0001996027,0,1
0.0004127187,0.000195389,0,1
0.0003310377,0.0002229401,0,1
0.0002161334,0.0003047831,0,1
8.923623e-05,0.0004154738,0,1
-4.511593e-05,0.0004961824,0,1
-0.0001934057,0.0004990995,0,1
-0.0003551469,0.0004239012,0,1
-0.0005178604,0.0003240689,0,1
-0.0006664743,0.0002783665,0,1
-0.0007810544,0.0003470822,0,1
-0.0008429634,0.0005256782,0,1
-0.0008436117,0.0007428459,0,1
-0.0007927231,0.0009028045,0,1
-0.0007146077,0.0009441312,0,1
-0.0006324406,0.0008673123,0,1
-0.0005527044,0.000720643,0,1
-0.0004689167,0.0005679773,0,1
-0.0003767015,0.0004619866,0,1
-0.0002771934,0.0004337872,0,1
-0.0001710407,0.0004885653,0,1
-5.872941e-05,0.0006007145,0,1
5.779555e-05,0.0007233981,0,1
0.0001692965,0.0007995688,0,1
0.0002678322,0.000782552,0,1
0.0003589129,0.0006517651,0,1
0.0004597176,0.000425846,0,1
0.0005793219,0.0001618415,0,1
0.0007024916,-7.623246e-05,0,1
0.0008034584,-0.0002501286,0,1
0.0008630985,-0.000358064,0,1
0.0008750914,-0.0004212695,0,1
0.0008491609,-0.0004600031,0,1
0.000809941,-0.0004830164,0,1
0.0007836864,-0.0004958195,0,1
0.000772666,-0.0005042469,0,1
0.0007533802,-0.0005048952,0,1
0.0007013571,-0.0004875542,0,1
0.0006128695,-0.0004425001,0,1
0.0005007202,-0.0003664914,0,1
0.000383709,-0.000266011,0,1
0.0002785285,-0.0001489998,0,1
0.0001966855,-2.356124e-05,0,1
0.0001363972,0.0001002567,0,1
9.26396e-05,0.0002159713,0,1
6.119892e-05,0.0003273102,0,1
4.936815e-05,0.0004451317,0,1
5.925414e-05,0.0005728393,0,1
7.6271e-05,0.0006966573,0,1
8.356394e-05,0.0007869278,0,1
7.20573e-05,0.0008224201,0,1
4.466826e-05,0.0008105893,0,1
6.744974e-06,0.000784983,0,1
-4.074016e-05,0.000772666,0,1
-9.616651e-05,0.0007658592,0,1
-0.0001493239,0.000728098,0,1
-0.0001887058,0.0006250244,0,1
-0.0002044261,0.0004438352,0,1
-0.0001976194,0.0002065715,0,1
-0.0001864369,-3.717473e-05,0,1
-0.0001969711,-0.0002373254,0,1
-0.0002525595,-0.0003669776,0,1
-0.0003574158,-0.0004327761,0,1
-0.0004946851,-0.0004658375,0,1
-0.0006308199,-0.0005035987,0,1
-0.000730328,-0.0005635628,0,1
-0.0007732753,-0.0006379507,0,1
-0.0007622549,-0.000708125,0,1
-0.0007191455,-0.0007630652,0,1
-0.0006669604,-0.0007983954,0,1
-0.0006163961,-0.0008110365,0,1
-0.0005651835,-0.000789806,0,1
-0.0005066779,-0.0007214144,0,1
-0.0004433104,-0.0006222305,0,1
-0.0003797808,-0.0005429805,0,1
-0.0003185201,-0.0005358497,0,1
-0.0002629317,-0.0006126686,0,1
-0.000216419,-0.0007347037,0,1
-0.0001794681,-0.0008478253,0,1
-0.0001528894,-0.0009079515,0,1
-0.0001384655,-0.0008927174,0,1
-0.0001355484,-0.0008056884,0,1
-0.0001384655,-0.0006575607,0,1
-0.0001339277,-0.0004535205,0,1
-0.0001028112,-0.0002112329,0,1
-2.647842e-05,3.818565e-05,0,1
0.0001031738,0.0002632944,0,1
0.0002743149,0.0004336251,0,1
0.0004514523,0.0005295678,0,1
0.0005939078,0.0005464226,0,1
0.0006854748,0.0005034753,0,1
0.0007323117,0.0004331389,0,1
0.0007483562,0.000361506,0,1
0.0007363633,0.0003018659,0,1
0.0006926056,0.0002616738,0,1
0.0006115729,0.0002517878,0,1
0.0004952099,0.0002838767,0,1
0.0003551855,0.000356644,0,1
0.0002203471,0.0004517764,0,1
0.0001244044,0.0005362125,0,1
8.777764e-05,0.0005733255,0,1
0.0001041462,0.0005490156,0,1
0.0001438522,0.0004736553,0,1
0.0001702689,0.0003705817,0,1
0.0001610312,0.0002585945,0,1
0.0001119254,0.0001495245,0,1
3.543054e-05,4.807163e-05,0,1
-5.483985e-05,-3.766092e-05,0,1
-0.0001396,-9.730096e-05,0,1
-0.0002063709,-0.0001217728,0,1
-0.000251263,-0.0001042698,0,1
-0.0002697385,-5.354332e-05,0,1
-0.0002600145,1.825161e-05,0,1
-0.0002274394,9.507057e-05,0,1
-0.0001783336,0.0001654069,0,1
-0.0001159385,0.0002310434,0,1
-4.187462e-05,0.0003039728,0,1
4.434413e-05,0.0003919743,0,1
0.0001376938,0.0004833792,0,1
0.0002221298,0.0005491778,0,1
0.0002780424,0.0005660325,0,1
0.0002944109,0.0005295678,0,1
0.0002773941,0.0004637693,0,1
0.0002438466,0.0004029947,0,1
0.0002135403,0.0003666921,0,1
0.0001973338,0.0003561579,0,1
0.0001950649,0.0003605336,0,1
0.0002013854,0.0003631267,0,1
0.0002012234,0.000356482,0,1
0.0001764274,0.0003409237,0,1
0.000115977,0.0003237448,0,1
2.797553e-05,0.0003140208,0,1
-7.104638e-05,0.000319369,0,1
-0.0001677994,0.0003451374,0,1
-0.0002548284,0.0003840331,0,1
-0.0003277578,0.0004188772,0,1
-0.0003831841,0.0004320045,0,1
-0.0004133283,0.0004169324,0,1
-0.0004117076,0.0003762539,0,1
-0.0003755671,0.0003203414,0,1
-0.0003089583,0.0002584324,0,1
-0.0002224154,0.0001882582,0,1
-0.0001386276,9.21534e-05,0,1
-7.720486e-05,-4.787104e-05,0,1
-4.657452e-05,-0.0002293842,0,1
-4.414354e-05,-0.0004303451,0,1
-6.083626e-05,-0.0006204477,0,1
-8.02841e-05,-0.0007729512,0,1
-9.179074e-05,-0.000871811,0,1
-8.660465e-05,-0.0009087619,0,1
-5.613637e-05,-0.0008888278,0,1
6.420843e-06,-0.0008434496,0,1
9.717743e-05,-0.0008108745,0,1
0.0002031682,-0.00080974,0,1
0.0003125623,-0.0008257844,0,1
0.0004156358,-0.0008233535,0,1
0.0005012064,-0.0007654962,0,1
0.0005564707,-0.0006364922,0,1
0.0005734875,-0.0004431483,0,1
0.0005503122,-0.0001968091,0,1
0.0004942376,0.0001151667,0,1
0.0004151496,0.0005123889,0,1
0.0003253654,0.0009770306,0,1
0.0002410915,0.001425466,0,1
0.0001790204,0.001739387,0,1
0.0001423936,0.001824148,0,1
0.0001265113,0.001655437,0,1
0.0001244044,0.001287062,0,1
0.0001255389,0.0008242028,0,1
0.0001180839,0.0003765781,0,1
9.669123e-05,2.505836e-05,0,1
6.298164e-05,-0.0001984297,0,1
2.39239e-05,-0.0003104168,0,1
-2.015787e-05,-0.0003574158,0,1
-7.65566e-05,-0.0003820497,0,1
-0.0001512687,-0.0004065215,0,1
-0.0002371633,-0.0004363416,0,1
-0.0003149546,-0.0004585445,0,1
-0.0003557951,-0.0004611376,0,1
-0.000343154,-0.0004441207,0,1
-0.0002802727,-0.0004134903,0,1
-0.0001812508,-0.0003770257,0,1
-6.893953e-05,-0.0003460712,0,1
3.348575e-05,-0.000328244,0,1
0.0001112771,-0.0003301888,0,1
0.0001577899,-0.0003515814,0,1
0.0001735102,-0.0003810773,0,1
0.0001749688,-0.0004063595,0,1
0.000185503,-0.0004181903,0,1
0.0002180782,-0.0004117076,0,1
0.0002775562,-0.0003781601,0,1
0.0003619922,-0.0003117133,0,1
0.0004627969,-0.0002173914,0,1
0.0005553362,-0.0001081593,0,1
0.0006049282,1.002961e-07,0,1
0.0005874252,9.717743e-05,0,1
0.0005062304,0.0001733481,0,1
0.0003971604,0.000217592,0,1
0.0003041349,0.0002247229,0,1
0.0002504913,0.0001999268,0,1
0.0002247229,0.0001571416,0,1
0.0001913374,0.0001127357,0,1
0.0001151667,7.57848e-05,0,1
-9.461558e-06,5.115087e-05,0,1
-0.0001614788,3.364782e-05,0,1
-0.000310741,1.760335e-05,0,1
-0.0004371519,-4.923729e-06,0,1
-0.0005277464,-3.863332e-05,0,1
-0.0005822003,-8.40116e-05,0,1
-0.000601162,-0.0001311726,0,1
-0.0005830107,-0.0001733096,0,1
-0.0005232086,-0.0002034537,0,1
-0.00042759,-0.000216581,0,1
-0.0003230579,-0.0002071812,0,1
-0.0002429977,-0.0001723372,0,1
-0.0002024813,-0.0001206384,0,1
-0.0001987538,-6.294311e-05,0,1
-0.0002219292,-1.140634e-05,0,1
-0.0002705488,2.554455e-05,0,1
-0.0003412093,5.098881e-05,0,1
-0.0004214316,7.351589e-05,0,1
-0.0004891749,9.831188e-05,0,1
-0.0005181845,0.0001224596,0,1
-0.0005039228,0.0001393144,0,1
-0.0004624341,0.0001448246,0,1
-0.0004202971,0.0001331559,0,1
-0.0004061974,0.0001047945,0,1
-0.0004284004,6.444023e-05,0,1
-0.000474589,1.257933e-05,0,1
-0.0005222362,-5.64605e-05,0,1
-0.0005522182,-0.0001459206,0,1
-0.0005552975,-0.0002559629,0,1
-0.0005454115,-0.0003765395,0,1
-0.0005426564,-0.0004865818,0,1
-0.0005596732,-0.0005653456,0,1
-0.0005843072,-0.0005975965,0,1
-0.0005802555,-0.0005830107,0,1
-0.0005159156,-0.0005421702,0,1
-0.0003825359,-0.0005055434,0,1
-0.0001958367,-0.000494523,0,1
2.489629e-05,-0.0005129984,0,1
0.0002655633,-0.0005471942,0,1
0.0005060683,-0.0005766901,0,1
0.0007097846,-0.0005857658,0,1
0.0008336026,-0.0005650214,0,1
0.0008567779,-0.0005099192,0,1
0.0007888725,-0.0004248349,0,1
0.0006653786,-0.000328244,0,1
0.0005331332,-0.0002514251,0,1
0.0004245494,-0.0002203085,0,1
0.0003535648,-0.0002391081,0,1
0.0003185587,-0.0002877277,0,1
0.0003112658,-0.000328082,0,1
0.0003213138,-0.0003193304,0,1
0.0003371962,-0.0002439701,0,1
0.0003461098,-0.0001104282,0,1
0.0003448133,5.779555e-05,0,1
0.0003456236,0.0002310434,0,1
0.0003621543,0.0003775505,0,1
0.000393757,0.0004658761,0,1
0.0004221185,0.0004751139,0,1
0.0004217943,0.0004076947,0,1
0.0003822504,0.0002882525,0,1
0.000309483,0.0001521176,0,1
0.000217592,3.624086e-05,0,1
0.0001268354,-3.21507e-05,0,1
4.871989e-05,-4.462973e-05,0,1
-1.270286e-05,-9.299493e-06,0,1
-5.435365e-05,6.071273e-05,0,1
-7.914964e-05,0.0001522796,0,1
-9.114248e-05,0.0002493568,0,1
-9.843541e-05,0.0003271482,0,1
-0.000117235,0.0003584268,0,1
-0.0001575893,0.0003313618,0,1
-0.0002107467,0.0002590807,0,1
-0.0002551526,0.0001773998,0,1
-0.0002742763,0.000120839,0,1
-0.0002600145,0.0001101427,0,1
-0.0002117191,0.0001492004,0,1
-0.0001430034,0.0002243987,0,1
-8.044617e-05,0.0003046211,0,1
-5.111234e-05,0.0003593992,0,1
-7.056019e-05,0.0003778746,0,1
-0.0001300382,0.0003696093,0,1
-0.0002100984,0.0003543751,0,1
-0.0002919414,0.0003503235,0,1
-0.0003566054,0.0003662059,0,1
-0.000387884,0.0004051016,0,1
-0.0003786463,0.0004613383,0,1
-0.0003345645,0.0005164405,0,1
-0.0002733039,0.0005420469,0,1
-0.0002233878,0.0005109303,0,1
-0.0002126914,0.0004149876,0,1
-0.0002575835,0.000274639,0,1
-0.0003486642,0.0001261871,0,1
-0.0004570859,4.244267e-07,0,1
-0.00055157,-9.762509e-05,0,1
-0.0006042412,-0.0001778474,0,1
-0.0005971103,-0.0002415391,0,1
-0.0005246671,-0.0002682799,0,1
-0.000400201,-0.0002308428,0,1
-0.0002561249,-0.0001212866,0,1
-0.0001361966,3.672706e-05,0,1
-6.974985e-05,0.00019782,0,1
-5.824322e-05,0.000331686,0,1
-7.817725e-05,0.0004428628,0,1
-9.940781e-05,0.0005589016,0,1
-0.000104756,0.0006981159,0,1
-9.373552e-05,0.0008491609,0,1
-6.926366e-05,0.0009814063,0,1
-3.879538e-05,0.001076215,0,1
-7.840905e-06,0.001139906,0,1
1.355172e-05,0.001192416,0,1
1.452411e-05,0.001252542,0,1
-1.25408e-05,0.001321906,0,1
-6.083626e-05,0.001386894,0,1
-0.0001136696,0.001416715,0,1
-0.0001493239,0.001368257,0,1
-0.0001548341,0.001207326,0,1
-0.000127121,0.0009391072,0,1
-7.072225e-05,0.0006138419,0,1
2.207145e-06,0.0003026763,0,1
7.805372e-05,6.606088e-05,0,1
0.0001412592,-7.542214e-05,0,1
0.0001785342,-0.0001467309,0,1
0.0001846927,-0.0001938919,0,1
0.0001654069,-0.0002496423,0,1
0.0001363972,-0.0003194925,0,1
0.0001197045,-0.0004014975,0,1
0.0001315353,-0.0004893369,0,1
0.0001744826,-0.0005768522,0,1
0.0002420638,-0.0006570745,0,1
0.0003329825,-0.0007275729,0,1
0.0004465904,-0.0007894818,0,1
0.0005707325,-0.0008449082,0,1
0.0006820714,-0.0008943381,0,1
0.0007582422,-0.0009320992,0,1
0.0007828761,-0.0009560849,0,1
0.0007592146,-0.0009698605,0,1
0.0007070294,-0.0009753707,0,1
0.0006527375,-0.0009752086,0,1
0.0006089798,-0.0009714811,0,1
0.0005726772,-0.0009703467,0,1
0.0005357263,-0.0009846084,0,1
0.0004940755,-0.001026097,0,1
0.0004465904,-0.001087844,0,1
0.0003957018,-0.001147808,0,1
0.0003491891,-0.001181194,0,1
0.0003114278,-0.001176494,0,1
0.0002777182,-0.001137274,0,1
0.0002431983,-0.001075365,0,1
0.0002059233,-0.001008432,0,1
0.0001611932,-0.0009521954,0,1
0.0001094944,-0.0009074653,0,1
6.249545e-05,-0.0008578734,0,1
3.089271e-05,-0.0007744097,0,1
1.54965e-05,-0.0006309819,0,1
9.824215e-06,-0.0004180282,0,1
-1.682422e-06,-0.0001464067,0,1
-3.344723e-05,0.0001504969,0,1
-9.114248e-05,0.0004352458,0,1
-0.0001797922,0.0006927677,0,1
-0.0002979378,0.0009311661,0,1
-0.0004266177,0.001160003,0,1
-0.0005314739,0.00137085,0,1
-0.000571504,0.001541181,0,1
-0.0005254775,0.001641824,0,1
-0.0004121938,0.001642796,0,1
-0.0002870794,0.00152854,0,1
-0.0002136638,0.001310886,0,1
-0.0002199844,0.001030026,0,1
-0.0002838381,0.0007386322,0,1
-0.0003640605,0.0004801379,0,1
-0.0004332623,0.0002720459,0,1
-0.0004776682,0.000106091,0,1
-0.0005006815,-4.317115e-05,0,1
-0.0005125122,-0.0002013469,0,1
-0.0005198052,-0.0003732982,0,1
-0.0005207775,-0.0005501114,0,1
-0.0005073262,-0.0007139594,0,1
-0.0004698891,-0.0008471771,0,1
-0.0003933943,-0.0009358267,0,1
-0.0002582318,-0.0009776396,0,1
-4.932962e-05,-0.000978612,0,1
0.0002273159,-0.0009434438,0,1
0.0005321609,-0.0008698662,0,1
0.0008021619,-0.0007617687,0,1
0.0009844856,-0.0006264441,0,1
0.001066329,-0.0004775062,0,1
0.001071353,-0.0003361852,0,1
0.001048664,-0.0002224154,0,1
0.001036184,-0.0001428413,0,1
0.001043964,-9.227693e-05,0,1
0.001053039,-5.889148e-05,0,1
0.001043477,-2.826114e-05,0,1
0.001011875,1.095867e-05,0,1
0.0009575827,6.119892e-05,0,1
0.0008705535,0.0001153287,0,1
0.0007425218,0.0001691344,0,1
0.0005848321,0.000217754,0,1
0.0004297355,0.0002660495,0,1
0.0003132105,0.000319207,0,1
0.0002553532,0.000373985,0,1
0.0002469258,0.0004195254,0,1
0.0002561635,0.0004392974,0,1
0.0002506533,0.0004120704,0,1
0.0002156472,0.0003282826,0,1
0.0001461212,0.0001934442,0,1
4.499239e-05,2.522042e-05,0,1
-7.979791e-05,-0.0001566169,0,1
-0.0002126914,-0.0003311612,0,1
-0.0003389403,-0.0004728062,0,1
-0.0004463896,-0.0005596732,0,1
-0.0005180225,-0.0005870623,0,1
-0.0005403875,-0.0005753936,0,1
-0.0005189948,-0.0005531906,0,1
-0.000482044,-0.0005326084,0,1
-0.0004540067,-0.0005068399,0,1
-0.0004420138,-0.0004600031,0,1
-0.000439907,-0.0003736223,0,1
-0.000439907,-0.0002352185,0,1
-0.0004382863,-3.312309e-05,0,1
-0.0004437966,0.0002435224,0,1
-0.0004632444,0.0006047662,0,1
-0.0004941989,0.001024192,0,1
-0.0005206155,0.001424332,0,1
-0.0005246671,0.001703409,0,1
-0.0004972781,0.001775042,0,1
-0.0004441207,0.001620917,0,1
-0.0003854531,0.001313479,0,1
-0.0003408851,0.0009718445,0,1
-0.00032322,0.0006968193,0,1
-0.0003368335,0.0005378332,0,1
-0.0003779981,0.0004838654,0,1
-0.0004353692,0.0005010443,0,1
-0.0004940368,0.0005535535,0,1
-0.0005452494,0.0006187038,0,1
-0.0005830107,0.0006794783,0,1
-0.0006003517,0.0007229118,0,1
-0.0005948414,0.0007472217,0,1
-0.0005692351,0.0007541905,0,1
-0.0005326084,0.0007399287,0,1
-0.0004917679,0.0006956849,0,1
-0.0004520619,0.0006125454,0,1
-0.0004181903,0.000497803,0,1
-0.0003920977,0.0003759298,0,1
-0.0003673017,0.0002783665,0,1
-0.0003350507,0.000215161,0,1
-0.0002946965,0.0001676758,0,1
-0.0002575835,0.0001052807,0,1
-0.0002370013,8.527692e-06,0,1
-0.0002378116,-0.0001219349,0,1
-0.0002558008,-0.0002639041,0,1
-0.0002791382,-0.000395177,0,1
-0.0002950206,-0.0005026262,0,1
-0.0002932379,-0.0005826865,0,1
-0.0002746004,-0.0006373025,0,1
-0.0002499665,-0.0006721465,0,1
-0.0002331117,-0.0006959701,0,1
-0.0002308428,-0.0007141214,0,1
-0.0002366771,-0.0007223868,0,1
-0.0002361909,-0.0007108802,0,1
-0.0002131776,-0.0006706879,0,1
-0.0001666649,-0.0006026206,0,1
-0.0001084835,-0.0005232086,0,1
-5.678463e-05,-0.0004509274,0,1
-1.659243e-05,-0.0003945287,0,1
1.776542e-05,-0.0003486642,0,1
5.293359e-05,-0.0002998826,0,1
9.150514e-05,-0.0002381357,0,1
0.000125863,-0.000159534,0,1
0.0001449867,-7.201877e-05,0,1
0.0001375317,9.824215e-06,0,1
0.0001112771,6.087479e-05,0,1
9.409818e-05,6.281957e-05,0,1
0.000110953,1.873781e-05,0,1
0.0001689724,-4.949169e-05,0,1
0.0002582704,-0.0001162626,0,1
0.0003626405,-0.0001621271,0,1
0.0004627969,-0.0001830335,0,1
0.0005456123,-0.0001921092,0,1
0.000604442,-0.0002117191,0,1
0.0006433378,-0.0002485079,0,1
0.0006799645,-0.0002925897,0,1
0.0007340944,-0.0003309991,0,1
0.0008128582,-0.0003541745,0,1
0.0008895152,-0.0003561192,0,1
0.0009253316,-0.000340561,0,1
0.0008974564,-0.0003115513,0,1
0.0008154513,-0.000276221,0,1
0.0007117294,-0.0002386219,0,1
0.0006200004,-0.0001982676,0,1
0.0005684635,-0.000156941,0,1
0.000564574,-0.0001170729,0,1
0.0005924492,-8.158062e-05,0,1
0.000614166,-5.500191e-05,0,1
0.0005898562,-5.062615e-05,0,1
0.0005091476,-8.109443e-05,0,1
0.000391164,-0.0001514308,0,1
0.000267346,-0.0002519113,0,1
0.0001652449,-0.0003608192,0,1
9.847395e-05,-0.0004530343,0,1
6.168512e-05,-0.000511864,0,1
3.526847e-05,-0.0005274223,0,1
9.106227e-07,-0.0004883645,0,1
-5.500191e-05,-0.000387884,0,1
-0.000137169,-0.0002442942,0,1
-0.0002266291,-9.778715e-05,0,1
-0.0002980999,1.452411e-05,0,1
-0.0003318095,8.340187e-05,0,1
-0.0003250027,0.0001271595,0,1
-0.0002958309,0.0001712413,0,1
-0.000268766,0.0002318537,0,1
-0.0002595283,0.0003049452,0,1
-0.0002653627,0.0003747954,0,1
-0.0002720074,0.0004247115,0,1
-0.0002595283,0.0004511282,0,1
-0.0002173914,0.0004650658,0,1
-0.0001468929,0.0004757621,0,1
-6.375344e-05,0.0004822447,0,1
1.517237e-05,0.0004783552,0,1
7.384002e-05,0.0004623107,0,1
0.000103498,0.0004350837,0,1
0.0001064152,0.0004046154,0,1
9.928428e-05,0.0003773884,0,1
0.0001080358,0.0003623164,0,1
0.0001438522,0.0003584268,0,1
0.0001924718,0.0003577785,0,1
0.0002214815,0.0003444891,0,1
0.0002036544,0.0003091589,0,1
0.0001338042,0.0002556773,0,1
2.165498e-05,0.0001981441,0,1
-0.0001164247,0.0001514693,0,1
-0.0002617972,0.000128456,0,1
-0.0003937184,0.0001300767,0,1
-0.000494523,0.0001466074,0,1
-0.0005627525,0.0001645966,0,1
-0.0006074825,0.000173024,0,1
-0.0006329267,0.0001624898,0,1
-0.0006338991,0.0001289422,0,1
-0.0006009999,7.173317e-05,0,1
-0.0005295291,3.179537e-06,0,1
-0.0004235384,-5.046408e-05,0,1
-0.0003029619,-6.699475e-05,0,1
-0.0001929195,-4.333321e-05,0,1
-0.0001135075,2.855407e-06,0,1
-7.007399e-05,4.709924e-05,0,1
-5.354332e-05,7.157111e-05,0,1
-4.965376e-05,6.508849e-05,0,1
-5.159854e-05,3.218923e-05,0,1
-5.921561e-05,-1.578211e-05,0,1
-7.396356e-05,-6.650855e-05,0,1
-9.600444e-05,-0.0001165867,0,1
-0.0001178833,-0.0001752544,0,1
-0.0001337657,-0.0002533699,0,1
-0.000144624,-0.0003591985,0,1
-0.0001658546,-0.0004826922,0,1
-0.0002177155,-0.0005950035,0,1
-0.0003168994,-0.0006604778,0,1
-0.0004564377,-0.0006637191,0,1
-0.0005966241,-0.0006175305,0,1
-0.0006796016,-0.0005536768,0,1
-0.0006695535,-0.0005031124,0,1
-0.0005742591,-0.0004768579,0,1
-0.0004322899,-0.0004651892,0,1
-0.0002874036,-0.0004531963,0,1
-0.0001710407,-0.0004369898,0,1
-9.811128e-05,-0.0004209454,0,1
-6.294311e-05,-0.0004092767,0,1
-4.673658e-05,-0.0003958252,0,1
-2.599222e-05,-0.0003698948,0,1
2.197911e-05,-0.000328244,0,1
0.0001086841,-0.0002757348,0,1
0.0002337985,-0.0002227395,0,1
0.0003848434,-0.0001796301,0,1
0.0005412365,-0.0001561307,0,1
0.0006781818,-0.0001558065,0,1
0.0007710453,-0.0001728234,0,1
0.0008050791,-0.0001971332,0,1
0.0007856312,-0.0002206326,0,1
0.0007268014,-0.0002327876,0,1
0.0006569512,-0.0002178775,0,1
0.0006060627,-0.0001681235,0,1
0.0005961767,-8.919769e-05,0,1
0.0006328035,8.689758e-06,0,1
0.0006943883,0.000105929,0,1
0.0007334462,0.0001767515,0,1
0.0007041123,0.0001986303,0,1
0.0005965008,0.0001707551,0,1
0.0004472386,0.0001096565,0,1
0.0003185587,3.640293e-05,0,1
0.0002550291,-3.68506e-05,0,1
0.0002529222,-9.713889e-05,0,1
0.0002804733,-0.0001274451,0,1
0.0003089969,-0.0001138316,0,1
0.0003286068,-5.111234e-05,0,1
0.0003401134,5.390598e-05,0,1
0.0003493511,0.0001770756,0,1
0.0003532407,0.0002777182,0,1
0.0003357376,0.0003209897,0,1
0.0002861456,0.000307052,0,1
0.0002141886,0.0002699391,0,1
0.0001376938,0.0002553532,0,1
6.41161e-05,0.0003054314,0,1
-1.270286e-05,0.0004334631,0,1
-9.438378e-05,0.0006180556,0,1
-0.0001728234,0.0008376542,0,1
-0.0002271153,0.001089504,0,1
-0.0002421874,0.001386408,0,1
-0.0002156086,0.001723829,0,1
-0.0001720131,0.002069029,0,1
-0.0001540238,0.002363665,0,1
-0.0001908126,0.002531404,0,1
-0.000283514,0.002501583,0,1
-0.0004023079,0.002249247,0,1
-0.0005105674,0.001815234,0,1
-0.0005799314,0.001289493,0,1
-0.0006053757,0.0007785003,0,1
-0.0005977586,0.0003613439,0,1
-0.0005684248,6.136099e-05,0,1
-0.0005225603,-0.0001442999,0,1
-0.0004630823,-0.000283514,0,1
-0.0003882082,-0.0003710293,0,1
-0.0002943724,-0.0004191627,0,1
-0.0001771992,-0.0004506033,0,1
-4.122636e-05,-0.0004985746,0,1
9.409818e-05,-0.0005896553,0,1
0.0002099749,-0.0007248178,0,1
0.0002944109,-0.0008659766,0,1
0.0003446512,-0.0009557608,0,1
0.0003653956,-0.0009609469,0,1
0.0003645853,-0.0008899623,0,1
0.0003558337,-0.0007812165,0,1
0.000349027,-0.000683167,0,1
0.0003469201,-0.0006280648,0,1
0.0003448133,-0.0006201236,0,1
0.0003289309,-0.0006470265,0,1
0.0002837146,-0.0006928909,0,1
0.0002008992,-0.0007411864,0,1
8.372601e-05,-0.0007771649,0,1
-4.576419e-05,-0.0007893197,0,1
-0.0001572651,-0.000775058,0,1
-0.0002232257,-0.0007384312,0,1
-0.0002402425,-0.000688029,0,1
-0.0002191741,-0.0006308199,0,1
-0.0001789819,-0.0005700454,0,1
-0.0001352242,-0.0005082985,0,1
-0.0001015147,-0.0004502792,0,1
-8.271508e-05,-0.0004034423,0,1
-8.141856e-05,-0.0003775118,0,1
-0.0001045939,-0.0003694086,0,1
-0.000159372,-0.0003643846,0,1
-0.0002400805,-0.0003460712,0,1
-0.0003314853,-0.0003057169,0,1
-0.0004165696,-0.0002451045,0,1
-0.0004830164,-0.0001674752,0,1
-0.0005290429,-7.688073e-05,0,1
-0.0005538389,1.727922e-05,0,1
-0.0005556216,0.0001017153,0,1
-0.0005313118,0.0001675138,0,1
-0.0004830164,0.0002124059,0,1
-0.0004157593,0.0002354192,0,1
-0.0003360231,0.0002394708,0,1
-0.0002523975,0.0002315296,0,1
-0.0001653684,0.000217754,0,1
-6.974985e-05,0.0002081922,0,1
3.073064e-05,0.0002064095,0,1
0.0001192183,0.0002093267,0,1
0.0001785342,0.0002119197,0,1
0.0002068957,0.0002109473,0,1
0.0002172679,0.000202682,0,1
0.0002237505,0.0001688103,0,1
0.0002256952,8.437427e-05,0,1
0.0002180782,-5.565017e-05,0,1
0.0002012234,-0.0002310048,0,1
0.0001846927,-0.0004170558,0,1
0.0001746447,-0.0005843072,0,1
0.0001744826,-0.0007048837,0,1
0.0001756171,-0.0007624169,0,1
0.000170431,-0.0007591756,0,1
0.0001545486,-0.00072028,0,1
0.0001292664,-0.0006828429,0,1
9.118101e-05,-0.0006716604,0,1
3.688912e-05,-0.0006802498,0,1
-3.004385e-05,-0.000685598,0,1
-9.519411e-05,-0.0006522125,0,1
-0.0001428413,-0.0005434667,0,1
-0.0001613168,-0.0003350507,0,1
-0.0001572651,-1.707863e-05,0,1
-0.0001473791,0.0004094774,0,1
-0.0001493239,0.0009217662,0,1
-0.0001759026,0.001458203,0,1
-0.0002232257,0.001926573,0,1
-0.0002739521,0.002236768,0,1
-0.0003104168,0.002337897,0,1
-0.0003217614,0.002239361,0,1
-0.0003063652,0.001999179,0,1
-0.0002729798,0.00169174,0,1
-0.0002306807,0.001388839,0,1
-0.0001864369,0.001136827,0,1
-0.0001475412,0.0009433209,0,1
-0.0001279313,0.0007867657,0,1
-0.0001405724,0.0006392861,0,1
-0.0001877334,0.0004841895,0,1
-0.0002575835,0.0003196932,0,1
-0.0003269475,0.0001535762,0,1
-0.0003708672,-3.14101e-06,0,1
-0.0003702189,-0.0001483515,0,1
-0.0003149546,-0.0002809209,0,1
-0.0002120432,-0.00039777,0,1
-8.530812e-05,-0.0004950092,0,1
3.283749e-05,-0.0005695592,0,1
0.0001119254,-0.0006194753,0,1
0.0001386662,-0.000646054,0,1
0.0001229458,-0.000646054,0,1
9.21534e-05,-0.0006121824,0,1
7.67572e-05,-0.0005460597,0,1
9.328786e-05,-0.0004658375,0,1
0.0001331559,-0.0003924218,0,1
0.0001683241,-0.0003413713,0,1
0.0001725378,-0.0003143064,0,1
0.0001467694,-0.0003050687,0,1
0.0001145184,-0.0003023136,0,1
9.814982e-05,-0.0002976137,0,1
0.0001039842,-0.0002946965,0,1
0.0001206769,-0.0003055549,0,1
0.0001318594,-0.0003363473,0,1
0.0001389903,-0.0003859393,0,1
0.0001543865,-0.0004397449,0,1
0.0001833962,-0.0004797751,0,1
0.0002140265,-0.0004935506,0,1
0.0002284504,-0.0004843129,0,1
0.0002159713,-0.0004656754,0,1
0.000185341,-0.0004562756,0,1
0.000160545,-0.00046211,0,1
0.0001579519,-0.0004766958,0,1
0.0001790204,-0.0004830164,0,1
0.0002073819,-0.0004608134,0,1
0.0002269918,-0.000400039,0,1
0.0002318537,-0.0003089583,0,1
0.0002289366,-0.0002084778,0,1
0.0002341226,-0.0001224211,0,1
0.0002663737,-5.937768e-05,0,1
0.0003357376,-1.416145e-05,0,1
0.0004399457,2.359977e-05,0,1
0.0005640878,5.99024e-05,0,1
0.0006768853,9.733949e-05,0,1
0.000745439,0.0001355869,0,1
0.0007470596,0.0001712413,0,1
0.0006733199,0.0001992786,0,1
0.0005401021,0.0002091646,0,1
0.0003926226,0.0002013854,0,1
0.0002743149,0.0001782101,0,1
0.0001983062,0.0001477418,0,1
0.0001547106,0.0001218114,0,1
0.0001295905,0.0001112771,0,1
0.0001073875,0.0001287802,0,1
8.777764e-05,0.0001759412,0,1
8.74535e-05,0.0002419018,0,1
0.0001214872,0.0003072141,0,1
0.0001820997,0.0003546993,0,1
0.0002406053,0.0003749574,0,1
0.0002668598,0.0003743092,0,1
0.0002537325,0.0003675024,0,1
0.0002198609,0.0003655576,0,1
0.0001864754,0.0003681507,0,1
0.0001548727,0.0003673404,0,1
0.0001054428,0.0003550234,0,1
1.663096e-05,0.0003258516,0,1
-0.0001214487,0.0002760976,0,1
-0.0002948586,0.0002184023,0,1
-0.0004715097,0.0001702689,0,1
-0.0006180168,0.0001490383,0,1
-0.0007197938,0.0001573037,0,1
-0.0007735994,0.0001869616,0,1
-0.0007794338,0.0002235884,0,1
-0.0007366485,0.000242388,0,1
-0.0006389232,0.000217754,0,1
-0.0004878783,0.0001346145,0,1
-0.000300855,7.485573e-07,0,1
-0.0001117248,-0.0001624512,0,1
3.964424e-05,-0.0003293785,0,1
0.000128456,-0.0004792889,0,1
0.0001589243,-0.0005974344,0,1
0.0001436902,-0.0006765223,0,1
8.615699e-05,-0.0007146077,0,1
-1.934754e-05,-0.0007078009,0,1
-0.0001629374,-0.0006539953,0,1
-0.0003092824,-0.0005538389,0,1
-0.0004104111,-0.000424997,0,1
-0.0004318037,-0.0002990722,0,1
-0.0003598467,-0.0002023193,0,1
-0.00021415,-0.0001396,0,1
-4.074016e-05,-9.66527e-05,0,1
0.0001143563,-6.213279e-05,0,1
0.0002265056,-4.673658e-05,0,1
0.0003041349,-6.861539e-05,0,1
0.0003675024,-0.0001340898,0,1
0.0004323286,-0.0002316531,0,1
0.0005102821,-0.0003366714,0,1
0.0005929354,-0.0004282383,0,1
0.0006546823,-0.000494523,0,1
0.0006640821,-0.0005360117,0,1
0.000609466,-0.0005528665,0,1
0.0005062304,-0.0005433047,0,1
0.0003846814,-0.0005071641,0,1
0.0002765838,-0.0004471999,0,1
0.0002041406,-0.0003750809,0,1
0.0001668655,-0.0003102548,0,1
0.0001453108,-0.0002592042,0,1
0.0001213252,-0.0002079916,0,1
8.777764e-05,-0.0001373311,0,1
3.737532e-05,-3.766092e-05,0,1
-3.976777e-05,8.178122e-05,0,1
-0.0001451102,0.0002010613,0,1
-0.0002653627,0.0003017039,0,1
-0.0003773498,0.0003756057,0,1
-0.0004520619,0.0004239012,0,1
-0.0004755614,0.0004493454,0,1
-0.0004583824,0.0004467524,0,1
-0.0004241867,0.0004216323,0,1
-0.0003942046,0.0003858158,0,1
-0.0003783222,0.0003602095,0,1
-0.0003750809,0.0003593992,0,1
-0.0003760533,0.000386302,0,1
-0.0003702189,0.0004286011,0,1
-0.0003527159,0.0004736553,0,1
-0.0003266234,0.0005227611,0,1
-0.000293562,0.0005940699,0,1
-0.0002570974,0.0007044364,0,1
-0.0002194982,0.0008423541,0,1
-0.0001812508,0.0009770306,0,1
-0.000151917,0.001068922,0,1
-0.0001413827,0.001084642,0,1
-0.0001566169,0.001008147,0,1
-0.0001953505,0.0008464058,0,1
-0.000248832,0.000624052,0,1
-0.0003026377,0.0003798194,0,1
-0.000333268,0.000160707,0,1
-0.0003159271,1.396819e-06,0,1
-0.0002507768,-8.741498e-05,0,1
-0.0001551583,-0.0001190177,0,1
-6.456377e-05,-0.0001240417,0,1
-1.075808e-05,-0.0001248521,0,1
-3.627206e-06,-0.0001326312,0,1
-3.150244e-05,-0.0001464067,0,1
-7.18567e-05,-0.0001577513,0,1
-0.0001062146,-0.0001571031,0,1
-0.0001277692,-0.0001415448,0,1
-0.0001412206,-0.0001178833,0,1
-0.0001561307,-9.19528e-05,0,1
-0.0001749302,-5.986387e-05,0,1
-0.0001940539,-8.975362e-06,0,1
-0.0002068571,7.157111e-05,0,1
-0.0002042641,0.0001825859,0,1
-0.0001812508,0.0003085106,0,1
-0.0001349001,0.0004227667,0,1
-7.088431e-05,0.0004958582,0,1
-5.89612e-06,0.0005153061,0,1
4.855783e-05,0.0004874308,0,1
8.518459e-05,0.0004221185,0,1
0.0001052807,0.0003261758,0,1
0.0001078737,0.0002043026,0,1
9.26396e-05,6.41161e-05,0,1
5.811968e-05,-7.461182e-05,0,1
5.934648e-06,-0.0001880575,0,1
-6.877746e-05,-0.0002622834,0,1
-0.0001621271,-0.0003039342,0,1
-0.0002608248,-0.0003309991,0,1
-0.0003459091,-0.0003591985,0,1
-0.0004053871,-0.0003933943,0,1
-0.0004389346,-0.0004301831,0,1
-0.0004444448,-0.0004533584,0,1
-0.0004172179,-0.0004462276,0,1
-0.0003507711,-0.0004060354,0,1
-0.0002428356,-0.00033813,0,1
-0.0001065387,-0.0002569353,0,1
2.635488e-05,-0.0001820611,0,1
0.0001177597,-0.0001298761,0,1
0.000145635,-0.0001165867,0,1
0.0001153287,-0.0001468929,0,1
4.807163e-05,-0.000209126,0,1
-3.474375e-05,-0.0002793003,0,1
-0.0001177212,-0.0003365093,0,1
-0.0001878955,-0.0003685983,0,1
-0.0002470493,-0.0003741085,0,1
-0.0002985861,-0.0003697327,0,1
-0.0003379679,-0.0003804291,0,1
-0.0003528779,-0.0004206212,0,1
-0.0003297026,-0.0004880404,0,1
-0.0002600145,-0.0005687489,0,1
-0.0001454344,-0.0006373025,0,1
-5.479652e-07,-0.0006659881,0,1
0.0001500107,-0.0006319543,0,1
0.0002843629,-0.0005377944,0,1
0.000393595,-0.0004099249,0,1
0.0004846757,-0.0002865932,0,1
0.0005665187,-0.0001903264,0,1
0.0006462549,-0.0001203142,0,1
0.000723236,-6.002594e-05,0,1
0.0007900069,7.23117e-06,0,1
0.0008501333,8.972242e-05,0,1
0.000911394,0.0001791825,0,1
0.0009771927,0.0002592428,0,1
0.001041371,0.0003172622,0,1
0.001090963,0.0003522683,0,1
0.001112355,0.0003722023,0,1
0.001096635,0.0003968363,0,1
0.001044126,0.0004470765,0,1
0.0009673066,0.0005303781,0,1
0.0008799533,0.0006295622,0,1
0.0007922759,0.0007092984,0,1
0.0007054088,0.0007316634,0,1
0.0006174073,0.000683692,0,1
0.0005266506,0.0005827253,0,1
0.0004347596,0.0004572867,0,1
0.0003488649,0.0003305515,0,1
0.0002735045,0.0002231022,0,1
0.0002070577,0.0001492004,0,1
0.0001435281,0.0001051186,0,1
7.837785e-05,6.670914e-05,0,1
9.986281e-06,6.744974e-06,0,1
-6.0188e-05,-8.725291e-05,0,1
-0.0001292278,-0.0002075054,0,1
-0.0002005366,-0.0003324577,0,1
-0.000273628,-0.0004493068,0,1
-0.0003415334,-0.0005538389,0,1
-0.0004014975,-0.000646054,0,1
-0.0004635685,-0.0007241695,0,1
-0.0005358497,-0.0007773269,0,1
-0.0006139652,-0.0007912645,0,1
-0.0006826808,-0.0007573929,0,1
-0.000725304,-0.0006719845,0,1
-0.0007334072,-0.0005350393,0,1
-0.0007165525,-0.0003423437,0,1
-0.000693053,-9.875954e-05,0,1
-0.000675874,0.000168162,0,1
-0.000665826,0.000403643,0,1
-0.000648323,0.000544802,0,1
-0.0006053757,0.0005629533,0,1
-0.0005332566,0.0004713863,0,1
-0.0004392588,0.0003059176,0,1
-0.0003365093,0.0001114392,0,1
-0.0002285739,-6.81292e-05,0,1
-0.0001039456,-0.0001989159,0,1
4.466826e-05,-0.0002632558,0,1
0.0002036544,-0.0002627696,0,1
0.000331848,-0.0002212809,0,1
0.0003929467,-0.0001690959,0,1
0.0003824125,-0.0001233935,0,1
0.0003302274,-8.547019e-05,0,1
0.0002858215,-5.143648e-05,0,1
0.0002911697,-1.967167e-05,0,1
0.0003563199,1.209313e-05,0,1
0.0004649037,4.320967e-05,0,1
0.0005825632,7.092284e-05,0,1
0.0006725095,9.604298e-05,0,1
0.0007065432,0.0001154908,0,1
0.0006760749,0.0001240803,0,1
0.0005965008,0.0001117633,0,1
0.0004934272,6.816773e-05,0,1
0.0003846814,-5.57199e-06,0,1
0.0002799871,-0.0001063766,0,1
0.0001799928,-0.000233922,0,1
9.16672e-05,-0.0003789705,0,1
2.197911e-05,-0.0005259637,0,1
-2.728874e-05,-0.0006572366,0,1
-6.132246e-05,-0.000752855,0,1
-9.049421e-05,-0.0007907783,0,1
-0.0001159385,-0.0007596618,0,1
-0.0001310105,-0.0006671225,0,1
-0.0001355484,-0.0005512458,0,1
-0.0001334415,-0.0004567618,0,1
-0.0001323071,-0.0004019837,0,1
-0.0001430034,-0.0003771877,0,1
-0.0001708786,-0.0003549848,0,1
-0.0002044261,-0.00030831,0,1
-0.0002279256,-0.0002180396,0,1
-0.0002332737,-7.023606e-05,0,1
-0.0002199844,0.0001513072,0,1
-0.0001934057,0.0004611762,0,1
-0.0001606685,0.0008710398,0,1
-0.0001251762,0.001351564,0,1
-8.919769e-05,0.001813451,0,1
-6.294311e-05,0.002140014,0,1
-6.537409e-05,0.002236443,0,1
-0.000104756,0.002086046,0,1
-0.0001699062,0.001759483,0,1
-0.0002361909,0.001375226,0,1
-0.0002804347,0.001042991,0,1
-0.0002904828,0.0008259855,0,1
-0.0002739521,0.0007222636,0,1
-0.0002489941,0.0006843403,0,1
-0.0002334358,0.000659058,0,1
-0.0002300324,0.0006157866,0,1
-0.000231329,0.0005567948,0,1
-0.0002279256,0.0005021787,0,1
-0.0002175534,0.0004665244,0,1
-0.0002076674,0.0004483731,0,1
-0.0002062088,0.0004344354,0,1
-0.0002159328,0.0004102877,0,1
-0.0002436459,0.0003650715,0,1
-0.0002914552,0.0002968419,0,1
-0.000348016,0.000215161,0,1
-0.0003935563,0.0001313732,0,1
-0.0004115456,5.487838e-05,0,1
-0.0003990665,-1.173047e-05,0,1
-0.0003720016,-6.683268e-05,0,1
-0.00035304,-0.0001075111,0,1
-0.0003613053,-0.0001350622,0,1
-0.0004006872,-0.0001522411,0,1
-0.0004577342,-0.0001613168,0,1
-0.0005029504,-0.0001634236,0,1
-0.0005053814,-0.000159372,0,1
-0.0004583824,-0.0001475412,0,1
-0.0003841565,-0.0001284175,0,1
-0.0003215994,-0.0001138316,0,1
-0.0002968033,-0.0001235555,0,1
-0.0003011791,-0.0001705545,0,1
-0.0003063652,-0.0002504527,0,1
-0.0002882139,-0.0003472056,0,1
-0.0002447804,-0.0004441207,0,1
-0.0001922712,-0.0005324463,0,1
-0.0001428413,-0.0006129927,0,1
-9.179074e-05,-0.000693053,0,1
-2.809907e-05,-0.0007791097,0,1
5.066468e-05,-0.0008705144,0,1
0.0001401247,-0.0009646744,0,1
0.0002266676,-0.001050245,0,1
0.0002952213,-0.001114909,0,1
0.0003370341,-0.001157532,0,1
0.0003529166,-0.001181032,0,1
0.0003488649,-0.001192376,0,1
0.0003336308,-0.001191242,0,1
0.0003190449,-0.001172766,0,1
0.0003175863,-0.001125929,0,1
0.0003354135,-0.001041493,0,1
0.0003699334,-0.0009110308,0,1
0.000408505,-0.0007313004,0,1
0.0004441593,-0.0005011677,0,1
0.0004715484,-0.0002207947,0,1
0.0004911583,9.21534e-05,0,1
0.0005062304,0.0003918123,0,1
0.0005146578,0.0006136798,0,1
0.0005046097,0.0007123777,0,1
0.0004666864,0.000681261,0,1
0.0003992672,0.0005530673,0,1
0.0003136967,0.0003832228,0,1
0.0002154851,0.0002268297,0,1
0.0001080358,0.0001235941,0,1
-3.789272e-06,8.79397e-05,0,1
-0.0001135075,0.0001124116,0,1
-0.0002086398,0.0001761032,0,1
-0.0002780038,0.0002576221,0,1
-0.0003130099,0.0003371962,0,1
-0.0003115513,0.0003948915,0,1
-0.0002765452,0.0004132049,0,1
-0.0002212809,0.0003811159,0,1
-0.0001626133,0.0003077003,0,1
-0.0001088076,0.0002104611,0,1
-5.921561e-05,0.0001081979,0,1
-1.659243e-05,1.193106e-05,0,1
1.031041e-05,-7.153257e-05,0,1
9.986281e-06,-0.0001313347,0,1
-1.724069e-05,-0.0001601823,0,1
-5.370539e-05,-0.0001553203,0,1
-7.55842e-05,-0.0001162626,0,1
-7.120844e-05,-4.673658e-05,0,1
-3.377136e-05,6.103686e-05,0,1
4.175109e-05,0.0002269918,0,1
0.0001516314,0.0004600418,0,1
0.0002710735,0.000735553,0,1
0.0003631267,0.000997775,0,1
0.0003989431,0.001179126,0,1
0.0003733368,0.001220939,0,1
0.0003000832,0.001098256,0,1
0.0002057612,0.0008352232,0,1
0.000120839,0.0004950479,0,1
6.751948e-05,0.0001534141,0,1
5.244739e-05,-0.0001274451,0,1
7.027458e-05,-0.0003170615,0,1
0.0001153287,-0.0004190006,0,1
0.0001799928,-0.00046211,0,1
0.0002561635,-0.00048723,0,1
0.0003440029,-0.0005227224,0,1
0.0004360561,-0.0005758798,0,1
0.0005203301,-0.0006381128,0,1
0.0005930975,-0.0006899738,0,1
0.0006512789,-0.0007162283,0,1
0.0006895264,-0.0007217386,0,1
0.000696009,-0.0007295177,0,1
0.000656465,-0.0007585274,0,1
0.00056976,-0.0008055263,0,1
0.0004585832,-0.0008402083,0,1
0.0003636129,-0.0008141157,0,1
0.000311914,-0.0006904599,0,1
0.0003067279,-0.0004724821,0,1
0.0003336308,-0.0001976194,0,1
0.0003720403,7.465034e-05,0,1
0.0004023465,0.0002923041,0,1
0.0004020224,0.0004253598,0,1
0.0003534027,0.0004788414,0,1
0.0002534084,0.000485486,0,1
0.0001187321,0.0004807861,0,1
-2.696461e-05,0.0004843516,0,1
-0.0001661787,0.0004968306,0,1
-0.0002912931,0.0004989374,0,1
-0.0003971218,0.0004741415,0,1
-0.0004809095,0.000416122,0,1
-0.0005447632,0.0003336308,0,1
-0.0005937069,0.000247412,0,1
-0.000631144,0.0001782101,0,1
-0.0006564262,0.0001375317,0,1
-0.0006580469,0.0001175977,0,1
-0.0006227166,9.701536e-05,0,1
-0.00055157,5.552663e-05,0,1
-0.0004554653,-1.351319e-05,0,1
-0.000350447,-0.0001036215,0,1
-0.0002567732,-0.0002010227,0,1
-0.0001955125,-0.0002916173,0,1
-0.000184168,-0.0003710293,0,1
-0.0002233878,-0.0004434724,0,1
-0.0002908069,-0.0005125122,0,1
-0.0003463953,-0.0005830107,0,1
-0.0003559572,-0.0006573986,0,1
-0.0003151167,-0.0007311383,0,1
-0.0002451045,-0.0007938576,0,1
-0.0001814128,-0.0008309705,0,1
-0.0001477033,-0.0008231914,0,1
-0.0001460826,-0.0007585274,0,1
-0.0001603444,-0.0006402197,0,1
-0.0001762268,-0.0004961436,0,1
-0.0001840059,-0.0003575778,0,1
-0.0001796301,-0.0002459149,0,1
-0.0001673132,-0.0001592099,0,1
-0.0001582375,-8.02841e-05,0,1
-0.000166827,1.679302e-05,0,1
-0.0002031296,0.0001440143,0,1
-0.0002703867,0.0002927903,0,1
-0.0003583881,0.0004384871,0,1
-0.0004470379,0.0005538776,0,1
-0.0005060296,0.0006271312,0,1
-0.0005026262,0.0006598685,0,1
-0.0004167317,0.000666189,0,1
-0.0002579077,0.0006697544,0,1
-6.164659e-05,0.0006857989,0,1
0.0001315353,0.0007094605,0,1
0.00029198,0.0007216153,0,1
0.0004075326,0.000705895,0,1
0.0004760863,0.0006610029,0,1
0.0004994237,0.0006037938,0,1
0.0004824068,0.0005540397,0,1
0.0004266563,0.0005221128,0,1
0.0003324963,0.0005055821,0,1
0.0002130541,0.0004973168,0,1
8.956036e-05,0.0004950479,0,1
-2.631635e-05,0.0005034753,0,1
-0.0001255003,0.0005276231,0,1
-0.0002018331,0.0005702463,0,1
-0.0002558008,0.0006251864,0,1
-0.0002916173,0.0006785059,0,1
-0.0003112272,0.0007118915,0,1
-0.0003159271,0.0007092984,0,1
-0.0003086341,0.0006674855,0,1
-0.0002940482,0.0005939078,0,1
-0.0002820554,0.0005020167,0,1
-0.0002729798,0.0004089912,0,1
-0.0002574215,0.0003321722,0,1
-0.000219012,0.0002777182,0,1
-0.0001504584,0.0002409294,0,1
-5.467778e-05,0.0002109473,0,1
5.212327e-05,0.0001772377,0,1
0.0001545486,0.000145635,0,1
0.0002435224,0.0001372076,0,1
0.00030689,0.0001618415,0,1
0.0003263378,0.0002007372,0,1
0.0002890628,0.0002206712,0,1
0.0002086784,0.0001965235,0,1
0.0001166253,0.000125863,0,1
3.948217e-05,2.262738e-05,0,1
-1.448558e-05,-9.568031e-05,0,1
-5.192267e-05,-0.0002178775,0,1
-8.482193e-05,-0.000338292,0,1
-0.0001209625,-0.0004465517,0,1
-0.000151917,-0.0005251534,0,1
-0.0001562927,-0.0005622663,0,1
-0.0001225832,-0.0005587008,0,1
-5.662256e-05,-0.0005337428,0,1
2.457216e-05,-0.0005160777,0,1
0.0001020394,-0.0005326084,0,1
0.0001568175,-0.0005987309,0,1
0.0001756171,-0.0007115284,0,1
0.0001548727,-0.0008515528,0,1
9.458438e-05,-0.0009907669,0,1
6.258778e-06,-0.001095785,0,1
-8.579432e-05,-0.001143108,0,1
-0.00015451,-0.001123012,0,1
-0.0001846542,-0.001044897,0,1
-0.0001773612,-0.0009277235,0,1
-0.0001459206,-0.0007909404,0,1
-0.0001076731,-0.0006492953,0,1
-7.299116e-05,-0.0005133225,0,1
-4.074016e-05,-0.0003898288,0,1
-1.196227e-06,-0.0002849726,0,1
5.536457e-05,-0.000201671,0,1
0.0001211631,-0.0001423551,0,1
0.000178048,-0.0001067007,0,1
0.0002064095,-9.276313e-05,0,1
0.0001937684,-9.66527e-05,0,1
0.000135911,-0.0001086455,0,1
3.543054e-05,-0.0001126972,0,1
-9.438378e-05,-9.162867e-05,0,1
-0.0002246843,-3.425755e-05,0,1
-0.0003188442,5.277153e-05,0,1
-0.0003515814,0.0001496866,0,1
-0.0003143064,0.0002341226,0,1
-0.000221605,0.0002879283,0,1
-9.924574e-05,0.0003088348,0,1
3.040651e-05,0.0003085106,0,1
0.0001448246,0.0003099692,0,1
0.0002278021,0.0003386548,0,1
0.0002749631,0.0004008879,0,1
0.000289549,0.0004833792,0,1
0.0002804733,0.0005532294,0,1
0.0002613496,0.0005781874,0,1
0.0002410915,0.0005506363,0,1
0.0002282883,0.000490348,0,1
0.0002245608,0.0004311941,0,1
0.0002312055,0.0003971604,0,1
0.0002641047,0.0003914881,0,1
0.0003543751,0.0004046154,0,1
0.0005258403,0.0004295735,0,1
0.000767804,0.0004691174,0,1
0.001034564,0.0005284334,0,1
0.001261618,0.00060428,0,1
0.00138187,0.0006716992,0,1
0.001354481,0.000683692,0,1
0.001177668,0.0006028214,0,1
0.0008917841,0.000416122,0,1
0.0005715428,0.0001441764,0,1
0.0002986247,-0.0001660166,0,1
0.0001276457,-0.0004569239,0,1
6.573675e-05,-0.0006872186,0,1
7.967438e-05,-0.0008440978,0,1
0.0001172735,-0.0009367992,0,1
0.0001313732,-0.0009789361,0,1
9.750156e-05,-0.0009893083,0,1
1.954813e-05,-0.0009862292,0,1
-8.044617e-05,-0.0009805568,0,1
-0.0001750923,-0.0009747224,0,1
-0.0002455907,-0.0009588401,0,1
-0.0002945344,-0.0009176755,0,1
-0.0003426678,-0.0008329154,0,1
-0.0004071698,-0.0006907841,0,1
-0.0004951713,-0.0004835025,0,1
-0.0005969483,-0.000204102,0,1
-0.0006849497,0.0001594105,0,1
-0.0007215765,0.0006057385,0,1
-0.0006846256,0.001086101,0,1
-0.0005716661,0.001511685,0,1
-0.0003972838,0.001783631,0,1
-0.0001914609,0.001830306,0,1
-7.100305e-07,0.00163291,0,1
0.0001385041,0.001236335,0,1
0.0002044647,0.0007386322,0,1
0.0001893926,0.0002464396,0,1
0.0001007429,-0.0001546721,0,1
-3.458168e-05,-0.0004188385,0,1
-0.0001801163,-0.0005413599,0,1
-0.0003049066,-0.0005457356,0,1
-0.000390315,-0.0004698891,0,1
-0.0004378002,-0.0003585502,0,1
-0.0004570859,-0.0002504527,0,1
-0.0004591928,-0.0001736337,0,1
-0.0004544929,-0.0001383035,0,1
-0.0004471999,-0.0001410586,0,1
-0.0004402311,-0.000164396,0,1
-0.0004316416,-0.0001796301,0,1
-0.0004139766,-0.0001655305,0,1
-0.0003799429,-0.0001144799,0,1
-0.0003225718,-3.555408e-05,0,1
-0.000243808,5.212327e-05,0,1
-0.0001603444,0.0001257009,0,1
-9.308726e-05,0.0001633001,0,1
-5.905355e-05,0.0001464453,0,1
-5.840528e-05,6.638502e-05,0,1
-8.352541e-05,-6.132246e-05,0,1
-0.0001232314,-0.0002034537,0,1
-0.0001626133,-0.0003190063,0,1
-0.0001846542,-0.0003846427,0,1
-0.0001874093,-0.0003997148,0,1
-0.0001771992,-0.0003788084,0,1
-0.0001632615,-0.0003389403,0,1
-0.0001541859,-0.0002843243,0,1
-0.0001538618,-0.0002162569,0,1
-0.0001532135,-0.0001423551,0,1
-0.0001404103,-7.688073e-05,0,1
-0.000104756,-2.874733e-05,0,1
-4.236082e-05,8.203562e-06,0,1
4.256141e-05,4.693717e-05,0,1
0.0001375317,9.182927e-05,0,1
0.0002308813,0.0001415833,0,1
0.0003172622,0.0001986303,0,1
0.0003913261,0.0002892249,0,1
0.0004469145,0.0004545315,0,1
0.0004720346,0.0007130259,0,1
0.0004525868,0.001032943,0,1
0.0003807918,0.001331954,0,1
0.0002629703,0.001521085,0,1
0.0001143563,0.001543936,0,1
-4.414354e-05,0.001393539,0,1
-0.0001901644,0.001102793,0,1
-0.0003026377,0.0007302048,0,1
-0.0003752429,0.000341572,0,1
-0.0004117076,-6.176923e-08,0,1
-0.0004207833,-0.0002535319,0,1
-0.0004073319,-0.0003985804,0,1
-0.0003663294,-0.0004363416,0,1
-0.0002977757,-0.0003922598,0,1
-0.0002122053,-0.0003055549,0,1
-0.0001258245,-0.0002130156,0,1
-5.22468e-05,-0.000137007,0,1
1.396819e-06,-7.720486e-05,0,1
2.732727e-05,-1.934754e-05,0,1
2.781346e-05,4.985435e-05,0,1
1.031041e-05,0.0001257009,0,1
-1.659243e-05,0.0001851789,0,1
-4.722278e-05,0.0002025199,0,1
-7.18567e-05,0.0001608691,0,1
-7.882551e-05,6.703327e-05,0,1
-6.683268e-05,-4.625038e-05,0,1
-3.571614e-05,-0.0001412206,0,1
7.717366e-06,-0.0001904885,0,1
5.341979e-05,-0.0001948643,0,1
9.182927e-05,-0.0001794681,0,1
0.0001146805,-0.0001781716,0,1
0.0001197045,-0.0002086398,0,1
0.000111115,-0.0002663351,0,1
9.944634e-05,-0.0003290543,0,1
9.993253e-05,-0.000370381,0,1
0.000125863,-0.0003737844,0,1
0.000177886,-0.000345585,0,1
0.000247412,-0.0003037722,0,1
0.0003214759,-0.0002656868,0,1
0.0003927847,-0.0002405667,0,1
0.0004571246,-0.000226467,0,1
0.0005102821,-0.0002183637,0,1
0.0005456123,-0.0002159328,0,1
0.0005542018,-0.000221443,0,1
0.0005308643,-0.0002347323,0,1
0.000475438,-0.0002532078,0,1
0.0003995914,-0.0002673075,0,1
0.000326824,-0.0002718453,0,1
0.000277232,-0.0002632558,0,1
0.0002650771,-0.0002418632,0,1
0.0002866318,-0.0002053985,0,1
0.0003172622,-0.000159372,0,1
0.0003255275,-0.0001151281,0,1
0.0002884145,-8.498399e-05,0,1
0.0002093267,-7.979791e-05,0,1
0.0001116012,-0.0001060525,0,1
2.278944e-05,-0.000159372,0,1
-3.944364e-05,-0.000231329,0,1
-7.65566e-05,-0.0003134961,0,1
-0.0001026491,-0.0004036044,0,1
-0.000137169,-0.0005052193,0,1
-0.0001924333,-0.0006275786,0,1
-0.0002671454,-0.0007753822,0,1
-0.0003489884,-0.000936475,0,1
-0.0004168937,-0.001082496,0,1
-0.0004463896,-0.001172928,0,1
-0.0004220798,-0.001169525,0,1
-0.000353202,-0.001064182,0,1
-0.0002694143,-0.0008789418,0,1
-0.0001945401,-0.0006478368,0,1
-0.000132145,-0.0004047388,0,1
-6.650855e-05,-0.0001660166,0,1
2.165498e-05,5.957827e-05,0,1
0.000135911,0.0002654013,0,1
0.0002634565,0.0004417284,0,1
0.0003819262,0.0005843459,0,1
0.0004644175,0.0006862851,0,1
0.0004973168,0.0007370116,0,1
0.0004841895,0.0007334462,0,1
0.0004375147,0.0006819093,0,1
0.0003640991,0.0006023352,0,1
0.0002694529,0.0005157923,0,1
0.0001696206,0.000435894,0,1
7.999851e-05,0.0003715541,0,1
1.22552e-05,0.0003303894,0,1
-4.106429e-05,0.0003172622,0,1
-0.0001002181,0.0003263378,0,1
-0.0001812508,0.0003394651,0,1
-0.0002815692,0.000339303,0,1
-0.0003801049,0.0003185587,0,1
-0.000449793,0.0002777182,0,1
-0.000472158,0.0002281262,0,1
-0.0004541688,0.000185341,0,1
-0.000422566,0.000163138,0,1
-0.0004029561,0.0001692965,0,1
-0.0003993907,0.0001987924,0,1
-0.0003945287,0.000237526,0,1
-0.0003687603,0.0002783665,0,1
-0.0003149546,0.0003117519,0,1
-0.0002365151,0.0003363859,0,1
-0.000144624,0.0003511338,0,1
-5.516398e-05,0.0003509718,0,1
1.59827e-05,0.0003337929,0,1
5.844381e-05,0.0003054314,0,1
7.870197e-05,0.0002720459,0,1
9.652917e-05,0.0002478982,0,1
0.0001279698,0.0002436845,0,1
0.0001808031,0.000259891,0,1
0.0002435224,0.0002882525,0,1
0.0003031625,0.0003111037,0,1
0.0003431926,0.0003140208,0,1
0.0003524304,0.0002939248,0,1
0.0003302274,0.0002582704,0,1
0.0002830664,0.0002229401,0,1
0.0002180782,0.0001987924,0,1
0.0001419075,0.000180479,0,1
6.103686e-05,0.0001553589,0,1
-1.529591e-05,0.0001163011,0,1
-7.623246e-05,6.768154e-05,0,1
-0.0001131834,2.100672e-05,0,1
-0.0001277692,-3.951337e-06,0,1
-0.0001308485,4.151929e-06,0,1
-0.0001311726,4.369587e-05,0,1
-0.0001298761,9.474644e-05,0,1
-0.0001258245,0.0001398006,0,1
-0.0001117248,0.0001702689,0,1
-8.109443e-05,0.0001842065,0,1
-3.328516e-05,0.0001833962,0,1
2.197911e-05,0.0001692965,0,1
6.606088e-05,0.0001412592,0,1
8.550872e-05,0.0001013911,0,1
8.129502e-05,4.709924e-05,0,1
6.444023e-05,-2.388537e-05,0,1
5.341979e-05,-0.0001135075,0,1
6.557468e-05,-0.0002196603,0,1
0.0001088461,-0.0003295405,0,1
0.0001764274,-0.000427428,0,1
0.0002493568,-0.0005016539,0,1
0.0003008936,-0.0005518941,0,1
0.0003151553,-0.0005893312,0,1
0.0002892249,-0.0006313061,0,1
0.0002393087,-0.0006883531,0,1
0.0001871237,-0.0007582033,0,1
0.0001522796,-0.0008251361,0,1
0.0001404489,-0.0008643559,0,1
0.0001389903,-0.0008580354,0,1
0.0001260251,-0.0008000161,0,1
8.388807e-05,-0.000695646,0,1
1.306552e-05,-0.0005609698,0,1
-6.748094e-05,-0.0004170558,0,1
-0.0001331174,-0.0002836761,0,1
-0.0001739578,-0.0001713648,0,1
-0.0001979435,-8.514606e-05,0,1
-0.0002147983,-2.550602e-05,0,1
-0.000231329,1.582063e-05,0,1
-0.0002428356,4.645098e-05,0,1
-0.0002426735,7.20573e-05,0,1
-0.000236353,8.956036e-05,0,1
-0.0002321393,9.069481e-05,0,1
-0.0002345703,7.465034e-05,0,1
-0.0002392702,4.693717e-05,0,1
-0.0002371633,2.084466e-05,0,1
-0.0002233878,1.484824e-05,0,1
-0.0001985918,4.077869e-05,0,1
-0.0001702304,9.604298e-05,0,1
-0.0001475412,0.0001654069,0,1
-0.0001327933,0.00022764,0,1
-0.0001211246,0.0002686426,0,1
-0.0001011905,0.0002854973,0,1
-6.586029e-05,0.000289549,0,1
-1.99958e-05,0.0002918179,0,1
5.772582e-06,0.0002968419,0,1
-2.275091e-05,0.0003102934,0,1
-0.0001149661,0.0003303894,0,1
-0.0002428356,0.0003537269,0,1
-0.0003596847,0.0003754436,0,1
-0.0004318037,0.0003942432,0,1
-0.0004489826,0.0004138531,0,1
-0.0004232143,0.0004396215,0,1
-0.0003779981,0.0004747897,0,1
-0.0003342404,0.000520168,0,1
-0.0003000446,0.0005624671,0,1
-0.0002639041,0.0005731634,0,1
-0.0002126914,0.0005172509,0,1
-0.0001431655,0.0003780367,0,1
-5.970181e-05,0.0001662173,0,1
1.695509e-05,-8.465986e-05,0,1
6.379197e-05,-0.0003235441,0,1
7.400208e-05,-0.0004990608,0,1
5.714729e-05,-0.0005770142,0,1
3.089271e-05,-0.0005546492,0,1
6.258778e-06,-0.0004763717,0,1
-1.189254e-05,-0.0004097628,0,1
-1.756482e-05,-0.0004029561,0,1
-8.489166e-06,-0.0004595169,0,1
6.258778e-06,-0.0005403875,0,1
1.825161e-05,-0.0005919242,0,1
2.522042e-05,-0.0005711799,0,1
3.316162e-05,-0.0004634065,0,1
4.904402e-05,-0.0002713591,0,1
7.935024e-05,5.610517e-06,0,1
0.0001218114,0.0003845193,0,1
0.0001684862,0.0008665019,0,1
0.0002033302,0.00139597,0,1
0.0002039785,0.001866771,0,1
0.0001527658,0.002169834,0,1
5.309566e-05,0.002236929,0,1
-6.926366e-05,0.00206206,0,1
-0.0001750923,0.001700005,0,1
-0.0002280877,0.001244439,0,1
-0.0002149604,0.0007916276,0,1
-0.0001498101,0.00041596,0,1
-6.958779e-05,0.0001539003,0,1
-1.383732e-05,1.558884e-06,0,1
-5.479652e-07,-7.169464e-05,0,1
-2.015787e-05,-0.0001075111,0,1
-5.305713e-05,-0.0001436516,0,1
-7.882551e-05,-0.0001972953,0,1
-8.141856e-05,-0.0002703867,0,1
-5.59743e-05,-0.0003514194,0,1
-5.085794e-06,-0.0004220798,0,1
6.622294e-05,-0.0004705373,0,1
0.0001493625,-0.0004929024,0,1
0.0002341226,-0.0004933886,0,1
0.0003117519,-0.0004839888,0,1
0.0003717161,-0.0004762096,0,1
0.0004041292,-0.0004758855,0,1
0.000401212,-0.0004847991,0,1
0.0003637749,-0.0004982505,0,1
0.0003062417,-0.000509433,0,1
0.000252436,-0.0005136467,0,1
0.0002243987,-0.0005108916,0,1
0.0002284504,-0.0005053814,0,1
0.0002585945,-0.0005003574,0,1
0.0003067279,-0.0004967919,0,1
0.000359075,-0.0005014918,0,1
0.0004052637,-0.0005167259,0,1
0.0004405939,-0.0005449253,0,1
0.0004632831,-0.00058139,0,1
0.0004749518,-0.0006056998,0,1
0.0004814344,-0.0005893312,0,1
0.0004874308,-0.0005196431,0,1
0.0004882411,-0.0004113835,0,1
0.0004832171,-0.0002953447,0,1
0.0004796517,-0.0001951884,0,1
0.0004790034,-0.0001235555,0,1
0.000465552,-8.757704e-05,0,1
0.0004153117,-8.417367e-05,0,1
0.0003096451,-9.989401e-05,0,1
0.0001522796,-0.0001118868,0,1
-3.409549e-05,-9.357346e-05,0,1
-0.0002170672,-2.339918e-05,0,1
-0.0003651949,9.831188e-05,0,1
-0.0004556273,0.0002540567,0,1
-0.0004830164,0.0004127187,0,1
-0.0004609755,0.0005430193,0,1
-0.0004092767,0.0006174073,0,1
-0.0003557951,0.0006162729,0,1
-0.0003220855,0.0005337815,0,1
-0.0003154408,0.0003846814,0,1
-0.0003293785,0.000202844,0,1
-0.0003467195,2.81376e-05,0,1
-0.0003494746,-0.0001054042,0,1
-0.000338292,-0.0001840059,0,1
-0.0003254889,-0.0002100984,0,1
-0.0003219235,-0.000201509,0,1
-0.0003327818,-0.0001781716,0,1
-0.000355633,-0.0001583996,0,1
-0.0003823738,-0.0001562927,0,1
-0.0004011734,-0.0001778474,0,1
-0.0004061974,-0.000221605,0,1
-0.0003862634,-0.0002742763,0,1
-0.0003347266,-0.0003178718,0,1
-0.0002600145,-0.0003400748,0,1
-0.0001786577,-0.0003301888,0,1
-9.713889e-05,-0.0002883759,0,1
-1.367526e-05,-0.0002284118,0,1
6.768154e-05,-0.0001695821,0,1
0.0001420695,-0.0001282554,0,1
0.0002012234,-0.000114804,0,1
0.0002448189,-0.0001280934,0,1
0.0002786906,-0.0001579134,0,1
0.0003101313,-0.0001830335,0,1
0.0003373583,-0.0001872472,0,1
0.0003532407,-0.0001621271,0,1
0.0003451374,-0.0001117248,0,1
0.0003104554,-5.889148e-05,0,1
0.0002618358,-2.631635e-05,0,1
0.0002268297,-2.907146e-05,0,1
0.0002292607,-6.877746e-05,0,1
0.0002718839,-0.0001402483,0,1
0.0003384927,-0.0002245222,0,1
0.0004041292,-0.0002914552,0,1
0.0004485351,-0.0003152788,0,1
0.000460528,-0.000288538,0,1
0.0004402698,-0.000226467,0,1
0.0003947294,-0.0001579134,0,1
0.0003347652,-0.0001114006,0,1
0.0002723701,-9.843541e-05,0,1
0.0002171058,-0.0001081593,0,1
0.0001751309,-0.0001332795,0,1
0.0001470936,-0.0001660166,0,1
0.0001315353,-0.0001972953,0,1
0.0001261871,-0.0002203085,0,1
0.0001229458,-0.0002376495,0,1
0.000108522,-0.0002564491,0,1
7.384002e-05,-0.0002865932,0,1
1.468618e-05,-0.0003266234,0,1
-6.035007e-05,-0.0003661673,0,1
-0.0001407345,-0.0003969597,0,1
-0.0002196603,-0.0004141386,0,1
-0.0002937241,-0.0004173799,0,1
-0.0003643846,-0.0003955011,0,1
-0.000435045,-0.0003400748,0,1
-0.0004980884,-0.0002478596,0,1
-0.0005364979,-0.0001238797,0,1
-0.0005287188,1.193106e-05,0,1
-0.0004724821,0.000138342,0,1
-0.000392746,0.0002477361,0,1
-0.0003227338,0.0003511338,0,1
-0.0002809209,0.0004603659,0,1
-0.0002619593,0.0005668429,0,1
-0.000243808,0.000638962,0,1
-0.0002026434,0.0006470652,0,1
-0.0001305243,0.0005883976,0,1
-4.511593e-05,0.0004849998,0,1
2.165498e-05,0.0003723644,0,1
3.899597e-05,0.0002882525,0,1
-3.303076e-06,0.0002566497,0,1
-8.676672e-05,0.0002838767,0,1
-0.0001731475,0.000356482,0,1
-0.0002267911,0.0004436732,0,1
-0.0002245222,0.000514982,0,1
-0.0001671511,0.000547233,0,1
-7.785312e-05,0.0005298919,0,1
1.419998e-05,0.0004662003,0,1
8.664318e-05,0.000381278,0,1
0.0001276457,0.0003114278,0,1
0.0001368834,0.0002897111,0,1
0.0001166253,0.0003297412,0,1
7.027458e-05,0.0004250357,0,1
1.072688e-06,0.000547233,0,1
-9.081835e-05,0.0006624615,0,1
-0.0002028055,0.0007434942,0,1
-0.0003266234,0.0007835244,0,1
-0.0004504412,0.0007935724,0,1
-0.0005548113,0.0007830382,0,1
-0.0006139652,0.0007541905,0,1
-0.0006032689,0.0007097846,0,1
-0.000514457,0.000659058,0,1
-0.0003564434,0.0006169211,0,1
-0.0001571031,0.0005952043,0,1
3.721326e-05,0.0005952043,0,1
0.0001817755,0.00060428,0,1
0.000259729,0.0006059006,0,1
0.000279663,0.0005832114,0,1
0.0002666978,0.0005307022,0,1
0.0002388225,0.0004512903,0,1
0.0002007372,0.0003487029,0,1
0.000145635,0.0002339606,0,1
6.557468e-05,0.0001271595,0,1
-3.68506e-05,5.536457e-05,0,1
-0.000142031,4.35338e-05,0,1
-0.0002282497,9.21534e-05,0,1
-0.0002793003,0.0001662173,0,1
-0.0002874036,0.0002070577,0,1
-0.0002554767,0.0001558451,0,1
-0.0001951884,-1.367526e-05,0,1
-0.0001225832,-0.0002827037,0,1
-5.419158e-05,-0.0005993792,0,1
1.396819e-06,-0.0009022792,0,1
4.337174e-05,-0.001146187,0,1
7.011252e-05,-0.001308739,0,1
8.291568e-05,-0.00138102,0,1
8.74535e-05,-0.001367083,0,1
8.84259e-05,-0.001282322,0,1
9.701536e-05,-0.001148456,0,1
0.0001205148,-0.0009862292,0,1
0.000150659,-0.0008139537,0,1
0.0001642725,-0.0006420024,0,1
0.0001388282,-0.0004762096,0,1
7.465034e-05,-0.0003219235,0,1
7.485573e-07,-0.0001806025,0,1
-4.560212e-05,-5.159854e-05,0,1
-4.949169e-05,6.265751e-05,0,1
-2.09682e-05,0.0001564933,0,1
1.322759e-05,0.00022764,0,1
3.818565e-05,0.0002764217,0,1
5.066468e-05,0.000294573,0,1
5.1475e-05,0.0002769079,0,1
4.855783e-05,0.0002209954,0,1
4.709924e-05,0.0001321835,0,1
5.341979e-05,2.667901e-05,0,1
7.286763e-05,-7.428769e-05,0,1
0.0001002567,-0.0001653684,0,1
0.0001188942,-0.000251101,0,1
0.0001112771,-0.0003369955,0,1
6.687121e-05,-0.0004271038,0,1
2.623614e-07,-0.0005105674,0,1
-5.386745e-05,-0.0005721523,0,1
-6.602235e-05,-0.000606348,0,1
-3.150244e-05,-0.0006254718,0,1
3.93201e-05,-0.0006598296,0,1
0.0001273216,-0.0007338934,0,1
0.0002115956,-0.000846853,0,1
0.0002741528,-0.0009672674,0,1
0.0003034866,-0.001050731,0,1
0.0003055935,-0.001063048,0,1
0.0002952213,-0.000986067,0,1
0.0002882525,-0.0008081193,0,1
0.0002918179,-0.0005078124,0,1
0.0003018659,-5.662256e-05,0,1
0.000309321,0.0005504743,0,1
0.0002968419,0.001247842,0,1
0.0002581083,0.00189967,0,1
0.0002057612,0.002345028,0,1
0.000168162,0.002455071,0,1
0.0001731861,0.002200141,0,1
0.0002255332,0.00167764,0,1
0.0003125623,0.001058063,0,1
0.0004028327,0.0005200059,0,1
0.0004660382,0.0001825859,0,1
0.0004819206,7.756752e-05,0,1
0.0004470765,0.0001654069,0,1
0.000376416,0.0003741471,0,1
0.0003023522,0.000629238,0,1
0.0002584324,0.0008712018,0,1
0.000259729,0.001057739,0,1
0.0002816078,0.001154979,0,1
0.0002872801,0.001135693,0,1
0.0002530843,0.0009956681,0,1
0.000185503,0.0007605111,0,1
0.0001182459,0.0004846757,0,1
8.080883e-05,0.0002284504,0,1
7.367795e-05,3.445814e-05,0,1
6.946425e-05,-8.012204e-05,0,1
3.13789e-05,-0.0001267968,0,1
-6.164659e-05,-0.000134738,0,1
-0.0002002124,-0.0001302002,0,1
-0.0003543365,-0.0001292278,0,1
-0.0004901472,-0.0001374932,0,1
-0.0005885208,-0.0001538618,0,1
-0.0006479988,-0.0001750923,0,1
-0.0006770085,-0.0002036158,0,1
-0.0006838153,-0.0002397564,0,1
-0.0006749016,-0.0002793003,0,1
-0.0006501057,-0.0003196545,0,1
-0.0006065101,-0.0003613053,0,1
-0.0005428185,-0.0004040906,0,1
-0.0004627582,-0.0004510895,0,1
-0.0003716775,-0.0005003574,0,1
-0.0002729798,-0.0005471942,0,1
-0.0001674752,-0.0005898174,0,1
-5.69467e-05,-0.0006227166,0,1
5.406805e-05,-0.0006377887,0,1
0.0001586002,-0.0006230408,0,1
0.0002448189,-0.0005732867,0,1
0.0003007315,-0.0004990608,0,1
0.0003175863,-0.0004212695,0,1
0.0002976523,-0.0003616295,0,1
0.0002517878,-0.0003374817,0,1
0.0001876099,-0.0003561192,0,1
0.0001161391,-0.0004073319,0,1
4.72613e-05,-0.0004705373,0,1
-1.318906e-05,-0.0005261258,0,1
-6.359137e-05,-0.0005632387,0,1
-0.0001071869,-0.0005844692,0,1
-0.0001465688,-0.000598893,0,1
-0.0001856265,-0.0006199615,0,1
-0.0002225774,-0.000650754,0,1
-0.0002528836,-0.0006873807,0,1
-0.0002721694,-0.0007210903,0,1
-0.0002781658,-0.0007432932,0,1
-0.0002750866,-0.0007418346,0,1
-0.0002830278,-0.000710556,0,1
-0.0003120375,-0.0006517263,0,1
-0.0003559572,-0.0005737729,0,1
-0.0003969597,-0.0004911196,0,1
-0.0004191627,-0.0004165696,0,1
-0.0004162455,-0.0003515814,0,1
-0.0003943667,-0.0002969654,0,1
-0.0003598467,-0.0002504527,0,1
-0.0003121996,-0.0002096122,0,1
-0.0002331117,-0.0001679614,0,1
-0.0001015147,-0.000119828,0,1
8.858796e-05,-6.44017e-05,0,1
0.0003221241,-6.868513e-06,0,1
0.000569598,5.698522e-05,0,1
0.0007895208,0.0001260251,0,1
0.0009421865,0.000195227,0,1
0.001001502,0.0002537325,0,1
0.0009668204,0.00029198,0,1
0.0008648812,0.0003085106,0,1
0.0007337703,0.0003102934,0,1
0.0006101143,0.0003065659,0,1
0.0005243817,0.0003072141,0,1
0.000485324,0.0003229345,0,1
0.0004790034,0.0003546993,0,1
0.0004773828,0.0003997535,0,1
0.0004553419,0.0004438352,0,1
0.000403643,0.0004817585,0,1
0.00033671,0.0005159543,0,1
0.0002759355,0.0005538776,0,1
0.0002363916,0.0005986077,0,1
0.0002247229,0.0006454446,0,1
0.0002431983,0.0006830437,0,1
0.0002798251,0.0006964952,0,1
0.0003078624,0.0006707268,0,1
0.0002989488,0.0005921251,0,1
0.0002433604,0.0004546936,0,1
0.0001524417,0.0002686426,0,1
4.628891e-05,6.897806e-05,0,1
-5.921561e-05,-0.0001060525,0,1
-0.000156941,-0.0002261429,0,1
-0.0002410529,-0.0002757348,0,1
-0.0002997205,-0.0002621213,0,1
-0.0003245165,-0.000208964,0,1
-0.0003074997,-0.0001496481,0,1
-0.000248832,-0.0001094559,0,1
-0.0001626133,-9.713889e-05,0,1
-7.18567e-05,-0.0001003802,0,1
3.179537e-06,-0.0001018388,0,1
4.564065e-05,-9.227693e-05,0,1
4.72613e-05,-7.088431e-05,0,1
6.096713e-06,-4.025397e-05,0,1
-7.056019e-05,-1.520357e-06,0,1
-0.0001731475,3.948217e-05,0,1
-0.0002906449,7.497447e-05,0,1
-0.0004060354,9.750156e-05,0,1
-0.0004976023,9.814982e-05,0,1
-0.0005468701,6.654708e-05,0,1
-0.0005488148,4.151929e-06,0,1
-0.0005102433,-7.33153e-05,0,1
-0.0004554653,-0.0001389517,0,1
-0.0004149489,-0.0001652063,0,1
-0.000410087,-0.0001379794,0,1
-0.0004339106,-6.456377e-05,0,1
-0.0004577342,3.040651e-05,0,1
-0.0004517378,0.000110953,0,1
-0.0003997148,0.0001498487,0,1
-0.0003089583,0.0001386662,0,1
-0.0002105846,9.020862e-05,0,1
-0.0001441378,3.445814e-05,0,1
-0.000127283,2.04508e-06,0,1
-0.0001491618,1.371378e-05,0,1
-0.0001830335,7.189524e-05,0,1
-0.0002078295,0.0001587623,0,1
-0.0002250084,0.0002542187,0,1
-0.0002451045,0.0003423823,0,1
-0.000268766,0.0004132049,0,1
-0.000286107,0.0004668485,0,1
-0.0002851347,0.0005153061,0,1
-0.0002595283,0.0005694359,0,1
-0.0002133397,0.0006282657,0,1
-0.0001652063,0.0006806127,0,1
-0.0001415448,0.0007070294,0,1
-0.0001629374,0.0006929298,0,1
-0.0002233878,0.0006387999,0,1
-0.000290969,0.0005658705,0,1
-0.0003264613,0.0005008822,0,1
-0.0003154408,0.0004593935,0,1
-0.0002715212,0.0004397836,0,1
-0.000216581,0.0004352458,0,1
-0.0001590478,0.0004294114,0,1
-9.924574e-05,0.0004065602,0,1
-3.360929e-05,0.0003558337,0,1
3.299956e-05,0.0002801492,0,1
9.652917e-05,0.0001974959,0,1
0.0001516314,0.0001336421,0,1
0.0001945787,0.0001107909,0,1
0.0002169437,0.0001329939,0,1
0.0002112714,0.0001814514,0,1
0.0001790204,0.0002260194,0,1
0.0001368834,0.0002384984,0,1
0.0001062531,0.0001923098,0,1
9.847395e-05,7.173317e-05,0,1
0.00010366,-0.0001157764,0,1
9.977047e-05,-0.0003378059,0,1
6.703327e-05,-0.0005530285,0,1
-8.720959e-07,-0.0007201179,0,1
-9.033215e-05,-0.000817195,0,1
-0.0001721751,-0.0008457185,0,1
-0.0002044261,-0.0008262706,0,1
-0.0001582375,-0.0007838095,0,1
-3.766092e-05,-0.0007382692,0,1
0.0001161391,-0.0006984011,0,1
0.0002480603,-0.0006614503,0,1
0.0003136967,-0.00062612,0,1
0.0003107795,-0.0005925725,0,1
0.0002681563,-0.000556756,0,1
0.0002162954,-0.0005160777,0,1
0.0001650828,-0.0004698891,0,1
0.0001047945,-0.0004212695,0,1
2.197911e-05,-0.0003707051,0,1
-7.995997e-05,-0.0003199787,0,1
-0.0001762268,-0.0002715212,0,1
-0.0002429977,-0.0002298704,0,1
-0.0002729798,-0.0001987538,0,1
-0.0002737901,-0.0001801163,0,1
-0.0002541802,-0.0001736337,0,1
-0.0002199844,-0.0001746061,0,1
-0.0001731475,-0.0001770371,0,1
-0.0001162626,-0.0001746061,0,1
-5.2733e-05,-0.0001650443,0,1
7.555301e-06,-0.0001488377,0,1
5.1475e-05,-0.0001293899,0,1
7.659513e-05,-0.0001086455,0,1
9.31258e-05,-8.368748e-05,0,1
0.000110953,-4.916756e-05,0,1
0.0001334801,-1.270286e-05,0,1
0.0001626518,1.014835e-05,0,1
0.0001981441,5.934648e-06,0,1
0.000244981,-3.150244e-05,0,1
0.0002978143,-9.438378e-05,0,1
0.0003431926,-0.0001677994,0,1
0.0003673404,-0.0002334358,0,1
0.000366368,-0.0002880518,0,1
0.0003452995,-0.0003410472,0,1
0.0003133726,-0.0003956632,0,1
0.0002775562,-0.0004418518,0,1
0.0002427121,-0.0004705373,0,1
0.0002182402,-0.00047702,0,1
0.000210137,-0.0004640547,0,1
0.0002190506,-0.0004327761,0,1
0.0002407673,-0.0003818876,0,1
0.0002636185,-0.0003066893,0,1
0.0002780424,-0.0002076674,0,1
0.0002725321,-8.384954e-05,0,1
0.0002386605,7.027458e-05,0,1
0.0001803169,0.0002634565,0,1
0.0001156529,0.0005170888,0,1
6.768154e-05,0.0008475402,0,1
4.742337e-05,0.001239577,0,1
5.844381e-05,0.001648144,0,1
8.907416e-05,0.002011496,0,1
0.0001245665,0.002254433,0,1
0.000165569,0.002303701,0,1
0.0002172679,0.002123159,0,1
0.0002786906,0.001749111,0,1
0.0003443271,0.001283821,0,1
0.0003984569,0.0008447851,0,1
0.0004339493,0.0005156302,0,1
0.0004462662,0.0003208276,0,1
0.0004294114,0.000237526,0,1
0.000373823,0.000230071,0,1
0.0002867939,0.0002666978,0,1
0.0001902029,0.0003213138,0,1
9.798775e-05,0.0003747954,0,1
1.987227e-05,0.0004162841,0,1
-3.63644e-05,0.0004405939,0,1
-6.748094e-05,0.0004451317,0,1
-7.493595e-05,0.000426008,0,1
-6.504996e-05,0.0003827366,0,1
-4.80331e-05,0.0003171001,0,1
-4.657452e-05,0.000232502,0,1
-7.720486e-05,0.000135749,0,1
-0.0001457585,3.672706e-05,0,1
-0.0002425115,-5.824322e-05,0,1
-0.0003441264,-0.0001457585,0,1
-0.0004295348,-0.0002243602,0,1
-0.0004885266,-0.0002966413,0,1
-0.0005164018,-0.0003695707,0,1
-0.0005074882,-0.0004462276,0,1
-0.0004557894,-0.0005233706,0,1
-0.0003643846,-0.0005935449,0,1
-0.0002530457,-0.0006539953,0,1
-0.0001467309,-0.0007071526,0,1
-6.845333e-05,-0.0007530171,0,1
-3.085418e-05,-0.0007990437,0,1
-2.696461e-05,-0.0008546321,0,1
-3.928157e-05,-0.0009270753,0,1
-5.030202e-05,-0.001012322,0,1
-4.706071e-05,-0.001103726,0,1
-2.242678e-05,-0.001188162,0,1
2.538249e-05,-0.001242778,0,1
8.79397e-05,-0.001247478,0,1
0.0001553589,-0.001194321,0,1
0.0002141886,-0.001094327,0,1
0.0002508154,-0.0009620814,0,1
0.0002487085,-0.0008131433,0,1
0.000200413,-0.0006700397,0,1
0.0001171115,-0.0005557837,0,1
2.214118e-05,-0.0004864197,0,1
-5.937768e-05,-0.0004705373,0,1
-0.0001156143,-0.0005011677,0,1
-0.0001468929,-0.0005449253,0,1
-0.0001616409,-0.0005556216,0,1
-0.0001645581,-0.0005057055,0,1
-0.0001549962,-0.0004063595,0,1
-0.0001327933,-0.0002831898,0,1
-9.859748e-05,-0.0001530514,0,1
-5.986387e-05,-1.62683e-05,0,1
-2.696461e-05,0.0001281319,0,1
-9.137427e-06,0.0002603772,0,1
-8.813297e-06,0.000339141,0,1
-3.21507e-05,0.0003230965,0,1
-7.623246e-05,0.0002031682,0,1
-0.0001331174,2.084466e-05,0,1
-0.0001935677,-0.0001551583,0,1
-0.0002489941,-0.0002533699,0,1
-0.0002946965,-0.0002175534,0,1
-0.0003193304,-1.156841e-05,0,1
-0.0003100927,0.0003436788,0,1
-0.0002626076,0.0007559733,0,1
-0.0001869231,0.001091773,0,1
-0.00010978,0.001231635,0,1
-5.727083e-05,0.001124348,0,1
-3.911951e-05,0.0008113996,0,1
-4.868137e-05,0.0004031568,0,1
-6.81292e-05,2.81376e-05,0,1
-7.898758e-05,-0.0002220912,0,1
-6.91016e-05,-0.000318196,0,1
-4.090223e-05,-0.0002780038,0,1
-4.437533e-06,-0.0001376552,0,1
2.846173e-05,5.698522e-05,0,1
5.1475e-05,0.000254867,0,1
6.978839e-05,0.0004065602,0,1
0.0001030118,0.0004835413,0,1
0.0001686482,0.0004908342,0,1
0.000267184,0.0004540453,0,1
0.0003785229,0.0004007258,0,1
0.0004700898,0.0003420582,0,1
0.0005063924,0.0002713977,0,1
0.0004747897,0.000180479,0,1
0.0003955397,7.416415e-05,0,1
0.0003054314,-2.745081e-05,0,1
0.0002321778,-9.794922e-05,0,1
0.0001785342,-0.0001227452,0,1
0.0001394765,-0.0001109144,0,1
0.0001098185,-7.752899e-05,0,1
9.377406e-05,-2.874733e-05,0,1
9.426025e-05,3.996837e-05,0,1
0.0001140322,0.0001328318,0,1
0.0001492004,0.0002467637,0,1
0.000187934,0.0003647473,0,1
0.0002137024,0.0004618245,0,1
0.0002171058,0.0005243817,0,1
0.0001984683,0.0005525811,0,1
0.0001654069,0.0005561466,0,1
0.0001203528,0.0005490156,0,1
7.092284e-05,0.0005452881,0,1
3.18651e-05,0.0005517708,0,1
1.54965e-05,0.0005559844,0,1
2.035846e-05,0.0005357263,0,1
2.943412e-05,0.0004683071,0,1
1.711715e-05,0.0003558337,0,1
-2.874733e-05,0.000217592,0,1
-0.0001042698,8.097089e-05,0,1
-0.0001896782,-3.63644e-05,0,1
-0.0002677937,-0.0001300382,0,1
-0.000328244,-0.0002078295,0,1
-0.0003708672,-0.0002814071,0,1
-0.0003940425,-0.000353202,0,1
-0.0003922598,-0.0004152731,0,1
-0.0003647087,-0.0004556273,0,1
-0.0003173856,-0.000467134,0,1
-0.0002556388,-0.0004455793,0,1
-0.0001909747,-0.0003920977,0,1
-0.000129714,-0.0003170615,0,1
-7.347736e-05,-0.0002340841,0,1
-2.42095e-05,-0.0001524032,0,1
7.069105e-06,-7.866345e-05,0,1
7.393236e-06,-2.46957e-05,0,1
-2.777494e-05,-1.358292e-06,0,1
-8.903562e-05,-1.464765e-05,0,1
-0.0001579134,-5.629844e-05,0,1
-0.0002152845,-0.0001076731,0,1
-0.0002514251,-0.0001460826,0,1
-0.0002579077,-0.0001561307,0,1
-0.0002402425,-0.0001282554,0,1
-0.000211557,-6.958779e-05,0,1
-0.0001835197,2.04508e-06,0,1
-0.0001608306,5.860588e-05,0,1
-0.0001441378,8.129502e-05,0,1
-0.0001276072,6.751948e-05,0,1
-0.0001044318,2.829966e-05,0,1
-7.072225e-05,-1.918548e-05,0,1
-2.46957e-05,-5.59743e-05,0,1
3.008238e-05,-8.158062e-05,0,1
8.275361e-05,-0.0001092938,0,1
0.0001177597,-0.0001566169,0,1
0.000130887,-0.0002282497,0,1
0.0001287802,-0.000313334,0,1
0.0001213252,-0.0003959873,0,1
0.0001127357,-0.0004689167,0,1
0.0001017153,-0.0005322842,0,1
7.821578e-05,-0.0005872243,0,1
3.283749e-05,-0.0006416783,0,1
-3.393342e-05,-0.0007066664,0,1
-0.0001139937,-0.0007808923,0,1
-0.0001930815,-0.0008505805,0,1
-0.0002569353,-0.0008925553,0,1
-0.0002948586,-0.0008886658,0,1
-0.0003062031,-0.0008306464,0,1
-0.0002982619,-0.0007227109,0,1
-0.0002770314,-0.0005723144,0,1
-0.0002514251,-0.000397608,0,1
-0.0002209568,-0.0002172293,0,1
-0.0001776853,-5.111234e-05,0,1
-0.0001120489,7.853991e-05,0,1
-1.869928e-05,0.0001550348,0,1
9.344993e-05,0.0001824238,0,1
0.0002161334,0.0001872858,0,1
0.00033671,0.0002068957,0,1
0.0004389733,0.0002681563,0,1
0.0005122268,0.0003720403,0,1
0.0005569569,0.0004995857,0,1
0.0005838597,0.0006282657,0,1
0.0006002283,0.0007371737,0,1
0.0006099523,0.000822258,0,1
0.0006107626,0.0008917841,0,1
0.0005947181,0.0009639032,0,1
0.0005554983,0.001047529,0,1
0.0004895377,0.001137638,0,1
0.0004042913,0.001212998,0,1
0.0003089969,0.001245735,0,1
0.0002135403,0.001217536,0,1
0.0001281319,0.001134396,0,1
6.427817e-05,0.001018033,0,1
2.538249e-05,0.0008895152,0,1
1.517237e-05,0.0007572698,0,1
2.214118e-05,0.0006229175,0,1
3.18651e-05,0.0004845136,0,1
2.554455e-05,0.0003425444,0,1
-1.221667e-05,0.0001984683,0,1
-8.303922e-05,5.455425e-05,0,1
-0.0001797922,-8.368748e-05,0,1
-0.0002844864,-0.0002029675,0,1
-0.0003708672,-0.0002840002,0,1
-0.0004146248,-0.0003214373,0,1
-0.0003997148,-0.0003311612,0,1
-0.0003285682,-0.0003418575,0,1
-0.0002222533,-0.0003791325,0,1
-0.0001096179,-0.0004468758,0,1
-1.772689e-05,-0.000524343,0,1
3.073064e-05,-0.000576528,0,1
2.700314e-05,-0.0005753936,0,1
-2.631635e-05,-0.000519481,0,1
-0.000112211,-0.0004295348,0,1
-0.000201509,-0.0003300267,0,1
-0.0002724935,-0.0002404046,0,1
-0.0003240303,-0.0001765509,0,1
-0.0003676259,-0.000147055,0,1
-0.0004212695,-0.000159534,0,1
-0.0004873921,-0.000209126,0,1
-0.0005483287,-0.0002749245,0,1
-0.0005807417,-0.0003318095,0,1
-0.000571504,-0.0003640605,0,1
-0.000524343,-0.0003669776,0,1
-0.0004569239,-0.0003462333,0,1
-0.0003904771,-0.0003188442,0,1
-0.000335699,-0.0003091203,0,1
-0.0002895104,-0.0003327818,0,1
-0.0002472114,-0.000390315,0,1
-0.000206695,-0.0004593548,0,1
-0.0001674752,-0.0005084606,0,1
-0.0001329553,-0.000511864,0,1
-0.0001037836,-0.0004567618,0,1
-7.23429e-05,-0.0003397507,0,1
-3.944364e-05,-0.0001710407,0,1
-9.299493e-06,2.716521e-05,0,1
1.355172e-05,0.0002339606,0,1
3.13789e-05,0.0004381629,0,1
4.871989e-05,0.0006230795,0,1
7.157111e-05,0.0007697488,0,1
0.000105929,0.0008605054,0,1
0.0001574657,0.0008840049,0,1
0.000225047,0.0008425161,0,1
0.0002937627,0.0007524078,0,1
0.0003446512,0.0006366931,0,1
0.0003618301,0.0005081752,0,1
0.0003443271,0.0003736609,0,1
0.0003057555,0.0002435224,0,1
0.0002728562,0.0001354248,0,1
0.0002592428,7.027458e-05,0,1
0.0002616738,5.098881e-05,0,1
0.0002660495,6.897806e-05,0,1
0.0002574601,0.0001056048,0,1
0.0002253711,0.0001321835,0,1
0.0001675138,0.0001221355,0,1
9.037068e-05,6.768154e-05,0,1
1.371378e-05,-1.950961e-05,0,1
-3.668853e-05,-0.0001157764,0,1
-4.090223e-05,-0.0001901644,0,1
2.369211e-06,-0.0002194982,0,1
7.772959e-05,-0.0001953505,0,1
0.0001642725,-0.0001255003,0,1
0.0002401191,-3.117831e-05,0,1
0.0002950592,6.379197e-05,0,1
0.0003357376,0.0001420695,0,1
0.0003752816,0.0002036544,0,1
0.0004179048,0.0002584324,0,1
0.0004551798,0.0003125623,0,1
0.0004785172,0.0003571303,0,1
0.0004851619,0.0003715541,0,1
0.0004762483,0.0003362238,0,1
0.0004498317,0.000247412,0,1
0.0004039671,0.0001242423,0,1
0.0003431926,-2.238346e-07,0,1
0.0002778803,-9.130454e-05,0,1
0.0002222919,-0.0001300382,0,1
0.0001876099,-0.0001261486,0,1
0.0001699448,-0.0001021629,0,1
0.0001568175,-7.817725e-05,0,1
0.0001331559,-6.91016e-05,0,1
8.372601e-05,-7.704279e-05,0,1
-2.654814e-06,-9.308726e-05,0,1
-0.0001235555,-0.0001131834,0,1
-0.0002582318,-0.0001394379,0,1
-0.0003830221,-0.000179306,0,1
-0.0004749131,-0.0002280877,0,1
-0.0005214258,-0.0002771934,0,1
-0.0005287188,-0.0003243544,0,1
-0.000509595,-0.0003750809,0,1
-0.0004719959,-0.0004369898,0,1
-0.000410249,-0.0005031124,0,1
-0.0003177098,-0.0005497872,0,1
-0.0002005366,-0.0005504355,0,1
-8.644259e-05,-0.0004940368,0,1
-8.651231e-06,-0.0003893426,0,1
1.889987e-05,-0.0002616352,0,1
6.744974e-06,-0.0001457585,0,1
-1.983374e-05,-7.882551e-05,0,1
-3.393342e-05,-8.547019e-05,0,1
-2.339918e-05,-0.0001713648,0,1
1.241726e-05,-0.0003117133,0,1
6.638502e-05,-0.0004611376,0,1
0.0001318594,-0.0005731247,0,1
0.0001947408,-0.0006183409,0,1
0.0002344468,-0.000591438,0,1
0.0002242366,-0.0005042469,0,1
0.0001537382,-0.0003805911,0,1
3.996837e-05,-0.0002425115,0,1
-7.801519e-05,-0.000104918,0,1
-0.0001577513,2.959619e-05,0,1
-0.000179306,0.0001611932,0,1
-0.0001457585,0.0002864697,0,1
-7.201877e-05,0.0003895433,0,1
9.824215e-06,0.000450642,0,1
6.78436e-05,0.0004563143,0,1
8.129502e-05,0.0004102877,0,1
5.050261e-05,0.0003276344,0,1
-3.627206e-06,0.0002269918,0,1
-4.787104e-05,0.0001297526,0,1
-5.548811e-05,5.423012e-05,0,1
-1.934754e-05,7.717366e-06,0,1
3.494434e-05,-1.335113e-05,0,1
6.83298e-05,-2.0482e-05,0,1
5.439218e-05,-2.696461e-05,0,1
-3.789272e-06,-3.960571e-05,0,1
-8.012204e-05,-5.581224e-05,0,1
-0.0001502963,-6.537409e-05,0,1
-0.0002131776,-6.278104e-05,0,1
-0.0002767073,-4.868137e-05,0,1
-0.0003425058,-2.712668e-05,0,1
-0.000402794,-1.520357e-06,0,1
-0.0004442827,2.894792e-05,0,1
-0.0004612996,6.217132e-05,0,1
-0.0004504412,9.020862e-05,0,1
-0.0004204592,0.0001065772,0,1
-0.0003865875,0.0001114392,0,1
-0.0003608192,0.0001130598,0,1
-0.0003395886,0.0001235941,0,1
-0.0003073376,0.0001433661,0,1
-0.0002478596,0.0001658931,0,1
-0.0001511067,0.0001835583,0,1
-2.745081e-05,0.0001924718,0,1
9.912221e-05,0.0001905271,0,1
0.0002106232,0.0001799928,0,1
0.0003028383,0.0001671896,0,1
0.0003811159,0.0001587623,0,1
0.0004512903,0.0001615174,0,1
0.0005164405,0.0001751309,0,1
0.0005708945,0.0001947408,0,1
0.0006101143,0.000215161,0,1
0.0006347483,0.0002352571,0,1
0.0006493342,0.0002464396,0,1
0.0006577615,0.0002448189,0,1
0.0006548444,0.000227478,0,1
0.0006360448,0.000192796,0,1
0.000599418,0.0001409351,0,1
0.0005430193,8.178122e-05,0,1
0.0004699278,2.959619e-05,0,1
0.0003859779,-7.516774e-06,0,1
0.0002955454,-2.453363e-05,0,1
0.0001950649,-2.372331e-05,0,1
8.453633e-05,-1.25408e-05,0,1
-3.166451e-05,-8.720959e-07,0,1
-0.0001491618,2.369211e-06,0,1
-0.0002614731,-7.030578e-06,0,1
-0.0003559572,-2.745081e-05,0,1
-0.0004165696,-5.338126e-05,0,1
-0.0004318037,-7.574627e-05,0,1
-0.0004141386,-8.854943e-05,0,1
-0.0003930701,-9.098041e-05,0,1
-0.0003967976,-8.790117e-05,0,1
-0.0004405553,-8.012204e-05,0,1
-0.0005151053,-6.81292e-05,0,1
-0.0006006758,-5.386745e-05,0,1
-0.0006768464,-3.830919e-05,0,1
-0.0007240074,-1.756482e-05,0,1
-0.0007257902,1.322759e-05,0,1
-0.0006693914,5.52025e-05,0,1
-0.0005557837,9.669123e-05,0,1
-0.0003961493,0.0001090082,0,1
-0.0001968091,6.78436e-05,0,1
2.34377e-05,-3.68506e-05,0,1
0.0002256952,-0.0001877334,0,1
0.0003683128,-0.0003415334,0,1
0.0004255218,-0.0004514136,0,1
0.000396188,-0.0004927403,0,1
0.000304459,-0.0004682684,0,1
0.0001885823,-0.0003982562,0,1
8.372601e-05,-0.0003052308,0,1
1.079661e-05,-0.0002071812,0,1
-3.344723e-05,-0.0001152902,0,1
-6.48879e-05,-4.05781e-05,0,1
-0.0001041077,8.203562e-06,0,1
-0.000156941,2.846173e-05,0,1
-0.0002052365,2.829966e-05,0,1
-0.0002232257,1.64689e-05,0,1
-0.0001989159,1.883015e-06,0,1
-0.0001442999,-9.461558e-06,0,1
-8.773911e-05,-1.432352e-05,0,1
-5.419158e-05,-1.124428e-05,0,1
-4.657452e-05,4.244267e-07,0,1
-4.203669e-05,2.003433e-05,0,1
-1.270286e-05,4.82337e-05,0,1
5.050261e-05,8.550872e-05,0,1
0.0001328318,0.0001310491,0,1
0.0002007372,0.0001809652,0,1
0.0002292607,0.0002258573,0,1
0.0002167816,0.000254867,0,1
0.000192796,0.0002663737,0,1
0.0001957132,0.0002705873,0,1
0.0002485465,0.0002832284,0,1
0.0003584268,0.0003083486,0,1
0.0005221128,0.0003376824,0,1
0.000720805,0.0003558337,0,1
0.0009185249,0.0003525924,0,1
0.001063574,0.0003240689,0,1
0.001115272,0.0002735045,0,1
0.001062115,0.0002114335,0,1
0.0009220903,0.0001511452,0,1
0.0007321496,0.000105929,0,1
0.0005365367,8.04847e-05,0,1
0.000361506,6.217132e-05,0,1
0.0002065715,2.894792e-05,0,1
5.56887e-05,-2.84232e-05,0,1
-0.0001003802,-9.503204e-05,0,1
-0.000253694,-0.0001496481,0,1
-0.0003799429,-0.0001773612,0,1
-0.000454817,-0.0001746061,0,1
-0.0004659995,-0.0001486757,0,1
-0.0004217557,-0.0001131834,0,1
-0.0003452609,-7.817725e-05,0,1
-0.0002671454,-5.143648e-05,0,1
-0.0002104225,-3.992984e-05,0,1
-0.0001844921,-4.203669e-05,0,1
-0.0001951884,-4.868137e-05,0,1
-0.0002425115,-5.467778e-05,0,1
-0.0003131719,-6.48879e-05,0,1
-0.0003861013,-8.644259e-05,0,1
-0.0004390967,-0.0001135075,0,1
-0.0004593548,-0.0001379794,0,1
-0.0004444448,-0.0001522411,0,1
-0.0003980942,-0.0001488377,0,1
-0.0003327818,-0.0001269589,0,1
-0.0002643903,-9.162867e-05,0,1
-0.0002125294,-5.743289e-05,0,1
-0.0001908126,-3.960571e-05,0,1
-0.0002034537,-4.657452e-05,0,1
-0.0002371633,-7.299116e-05,0,1
-0.0002697385,-0.000104756,0,1
-0.0002924276,-0.0001263107,0,1
-0.0003016653,-0.0001238797,0,1
-0.000301017,-9.065628e-05,0,1
-0.0002974516,-3.166451e-05,0,1
-0.0002961551,3.964424e-05,0,1
-0.0002951827,0.0001056048,0,1
-0.0002916173,0.0001509831,0,1
-0.0002874036,0.0001660552,0,1
-0.0002852967,0.0001503349,0,1
-0.0002901587,0.0001138702,0,1
-0.0003074997,6.881599e-05,0,1
-0.0003413713,2.76514e-05,0,1
-0.000385291,-5.734056e-06,0,1
-0.000430021,-3.474375e-05,0,1
-0.0004616237,-6.796714e-05,0,1
-0.0004700511,-0.0001096179,0,1
-0.0004562756,-0.0001561307,0,1
-0.0004269418,-0.0002023193,0,1
-0.0003825359,-0.0002412149,0,1
-0.0003254889,-0.0002681178,0,1
-0.0002548284,-0.0002833519,0,1
-0.0001618029,-0.0002877277,0,1
-4.625038e-05,-0.0002775176,0,1
7.837785e-05,-0.0002499665,0,1
0.0001918236,-0.0002079916,0,1
0.0002733424,-0.0001634236,0,1
0.0003120761,-0.0001316588,0,1
0.0003128864,-0.0001230693,0,1
0.0002923041,-0.0001331174,0,1
0.0002749631,-0.0001489998,0,1
0.0002793389,-0.0001579134,0,1
0.0003041349,-0.0001517549,0,1
0.0003396272,-0.0001251762,0,1
0.0003691231,-7.120844e-05,0,1
0.0003793332,1.614476e-05,0,1
0.0003702575,0.000135911,0,1
0.0003582647,0.0002754493,0,1
0.0003631267,0.0004049396,0,1
0.0003973225,0.0004901859,0,1
0.0004642555,0.0005072028,0,1
0.0005631154,0.0004517764,0,1
0.0006892023,0.0003464339,0,1
0.0008250132,0.0002297469,0,1
0.0009404037,0.0001351007,0,1
0.00100523,7.043665e-05,0,1
0.0009987473,1.663096e-05,0,1
0.0009209559,-4.333321e-05,0,1
0.0007901691,-0.0001105903,0,1
0.0006276174,-0.000171851,0,1
0.0004533971,-0.0002170672,0,1
0.0002825802,-0.0002480217,0,1
0.0001242423,-0.0002724935,0,1
-1.529591e-05,-0.0002950206,0,1
-0.0001282554,-0.0003125237,0,1
-0.000201509,-0.0003156029,0,1
-0.0002227395,-0.0002950206,0,1
-0.0001865989,-0.0002431597,0,1
-0.0001036215,-0.0001546721,0,1
4.244267e-07,-1.934754e-05,0,1
8.923623e-05,0.0001759412,0,1
0.0001226217,0.0004336251,0,1
7.853991e-05,0.0007295565,0,1
-3.63644e-05,0.001015602,0,1
-0.0001900023,0.001241197,0,1
-0.0003374817,0.001373767,0,1
-0.0004352071,0.001414283,0,1
-0.0004627582,0.001393053,0,1
-0.0004353692,0.001339571,0,1
-0.0003869116,0.001272152,0,1
-0.000353202,0.001195171,0,1
-0.000350609,0.001101335,0,1
-0.0003805911,0.0009817304,0,1
-0.000430021,0.0008314957,0,1
-0.000479613,0.0006574374,0,1
-0.0005123502,0.0004725208,0,1
-0.0005235327,0.0002947351,0,1
-0.0005173742,0.0001430419,0,1
-0.0005045711,2.716521e-05,0,1
-0.0004898231,-5.143648e-05,0,1
-0.0004719959,-9.973194e-05,0,1
-0.0004441207,-0.000132145,0,1
-0.0004055492,-0.0001642339,0,1
-0.000362926,-0.0002005366,0,1
-0.0003279199,-0.0002395943,0,1
-0.0003029619,-0.00027849,0,1
-0.0002805968,-0.0003172236,0,1
-0.0002475355,-0.0003519055,0,1
-0.000191785,-0.0003776739,0,1
-9.892161e-05,-0.0003911253,0,1
3.98063e-05,-0.0003956632,0,1
0.0002188885,-0.0003938804,0,1
0.0004130428,-0.0003909633,0,1
0.0005846701,-0.0003972838,0,1
0.0006963331,-0.0004296969,0,1
0.0007298806,-0.0004980884,0,1
0.0006833679,-0.0005992171,0,1
0.0005663567,-0.0007120146,0,1
0.0003997535,-0.0008108745,0,1
0.0002171058,-0.0008703524,0,1
5.714729e-05,-0.0008784557,0,1
-4.819517e-05,-0.0008387497,0,1
-8.514606e-05,-0.0007763545,0,1
-6.132246e-05,-0.0007220627,0,1
-7.100305e-07,-0.0006974287,0,1
6.638502e-05,-0.0007065044,0,1
0.0001177597,-0.0007372968,0,1
0.0001440143,-0.0007656582,0,1
0.0001422316,-0.0007646859,0,1
0.0001120874,-0.0007194696,0,1
5.925414e-05,-0.0006301716,0,1
-1.682422e-06,-0.0005115399,0,1
-4.787104e-05,-0.0003825359,0,1
-6.099833e-05,-0.0002700626,0,1
-3.879538e-05,-0.0001977815,0,1
9.824215e-06,-0.0001750923,0,1
7.465034e-05,-0.0001955125,0,1
0.0001472556,-0.0002298704,0,1
0.0002169437,-0.0002452666,0,1
0.0002765838,-0.0002246843,0,1
0.0003201794,-0.0001729855,0,1
0.0003430306,-0.0001021629,0,1
0.0003527545,-2.534396e-05,0,1
0.0003621543,4.175109e-05,0,1
0.0003746333,8.923623e-05,0,1
0.0003807918,0.0001130598,0,1
0.0003683128,0.0001185701,0,1
0.0003323342,0.0001141943,0,1
0.0002762596,0.0001098185,0,1
0.0002130541,0.000118408,0,1
0.0001589243,0.0001480659,0,1
0.0001237561,0.0002012234,0,1
0.0001028497,0.0002739907,0,1
8.696731e-05,0.0003553475,0,1
6.670914e-05,0.0004242253,0,1
3.656499e-05,0.0004615004,0,1
-6.058186e-06,0.0004509661,0,1
-5.69467e-05,0.0003879227,0,1
-0.0001015147,0.0002908455,0,1
-0.0001264727,0.0001921477,0,1
-0.0001306864,0.0001245665,0,1
-0.0001255003,9.377406e-05,0,1
-0.0001219349,7.918817e-05,0,1
-0.0001170729,5.455425e-05,0,1
-0.0001081593,5.448452e-06,0,1
-9.811128e-05,-6.456377e-05,0,1
-0.0001016767,-0.0001433275,0,1
-0.0001336036,-0.0002235498,0,1
-0.0001974573,-0.00030831,0,1
-0.0002818933,-0.0004074939,0,1
-0.0003700569,-0.0005183466,0,1
-0.0004421759,-0.0006178547,0,1
-0.0004838267,-0.0006787913,0,1
-0.0004929024,-0.0006859221,0,1
-0.0004812336,-0.0006324406,0,1
-0.0004600031,-0.0005141329,0,1
-0.0004395829,-0.0003378059,0,1
-0.000422566,-0.0001230693,0,1
-0.0004084663,9.928428e-05,0,1
-0.0003930701,0.0002952213,0,1
-0.0003765395,0.0004337872,0,1
-0.0003656811,0.0005005581,0,1
-0.0003645466,0.0005055821,0,1
-0.0003707051,0.0004725208,0,1
-0.0003737844,0.0004289252,0,1
-0.000362926,0.0003997535,0,1
-0.000328082,0.0003919743,0,1
-0.0002650386,0.0004041292,0,1
-0.0001822232,0.000428277,0,1
-9.616651e-05,0.0004553419,0,1
-2.372331e-05,0.0004790034,0,1
3.235129e-05,0.0004971547,0,1
8.210535e-05,0.0005084993,0,1
0.0001367214,0.0005107683,0,1
0.0001997648,0.0005015305,0,1
0.0002582704,0.0004786793,0,1
0.0002927903,0.0004388112,0,1
0.0002931144,0.0003804677,0,1
0.0002756114,0.0003085106,0,1
0.0002670219,0.0002294227,0,1
0.0002798251,0.0001446626,0,1
0.0003081865,5.504044e-05,0,1
0.0003363859,-3.377136e-05,0,1
0.0003508097,-0.0001099421,0,1
0.000351458,-0.0001723372,0,1
0.0003440029,-0.0002169052,0,1
0.0003289309,-0.0002404046,0,1
0.0003041349,-0.0002410529,0,1
0.0002707494,-0.0002222533,0,1
0.0002336365,-0.0001882196,0,1
0.0001984683,-0.0001538618,0,1
0.0001752929,-0.000137169,0,1
0.0001662173,-0.0001561307,0,1
0.0001676758,-0.000211557,0,1
0.0001722137,-0.0002867553,0,1
0.0001718896,-0.0003569296,0,1
0.0001611932,-0.0004045768,0,1
0.0001389903,-0.0004211074,0,1
0.0001072255,-0.0004083043,0,1
6.735741e-05,-0.0003656811,0,1
2.797553e-05,-0.0002921034,0,1
-2.330684e-06,-0.0001911368,0,1
-2.501983e-05,-6.991193e-05,0,1
-5.208474e-05,6.055066e-05,0,1
-0.0001096179,0.0001880961,0,1
-0.0002159328,0.0002952213,0,1
-0.0003643846,0.0003675024,0,1
-0.0005198052,0.0004063981,0,1
-0.0006304958,0.0004256839,0,1
-0.0006544815,0.0004371906,0,1
-0.0005870623,0.0004418904,0,1
-0.0004564377,0.0004316803,0,1
-0.0003055549,0.0004026706,0,1
-0.0001715269,0.0003610198,0,1
-7.55842e-05,0.0003171001,0,1
-2.437157e-05,0.0002803113,0,1
-9.299493e-06,0.0002551911,0,1
-1.448558e-05,0.0002380122,0,1
-2.177852e-05,0.0002278021,0,1
-1.221667e-05,0.0002299089,0,1
3.024445e-05,0.0002511395,0,1
0.0001164632,0.0002924662,0,1
0.0002397949,0.0003462718,0,1
0.0003657197,0.0004070464,0,1
0.0004456179,0.0004678209,0,1
0.0004391353,0.0005185474,0,1
0.0003383307,0.0005451261,0,1
0.0001594105,0.0005384815,0,1
-5.743289e-05,0.000497803,0,1
-0.000268766,0.0004264942,0,1
-0.0004439586,0.0003331446,0,1
-0.0005684248,0.0002287745,0,1
-0.0006418404,0.0001287802,0,1
-0.0006726327,5.098881e-05,0,1
-0.0006714982,1.12828e-05,0,1
-0.0006418404,1.403791e-05,0,1
-0.0005823624,3.834771e-05,0,1
-0.0004963057,4.223728e-05,0,1
-0.0003911253,-8.813297e-06,0,1
-0.0002747625,-0.0001175591,0,1
-0.000152079,-0.000258718,0,1
-3.020592e-05,-0.000395339,0,1
8.259155e-05,-0.0004950092,0,1
0.0001820997,-0.0005377944,0,1
0.0002679943,-0.0005211017,0,1
0.0003440029,-0.0004476861,0,1
0.0004230909,-0.0003212752,0,1
0.0005190336,-0.0001624512,0,1
0.0006324793,-5.734056e-06,0,1
0.0007546768,0.0001141943,0,1
0.0008665019,0.0001775618,0,1
0.0009511001,0.0001850168,0,1
0.0009938853,0.0001540623,0,1
0.0009896717,0.0001122495,0,1
0.0009395934,8.777764e-05,0,1
0.0008559676,0.000101067,0,1
0.0007585663,0.0001540623,0,1
0.0006621373,0.0002240746,0,1
0.000572191,0.0002798251,0,1
0.0004862963,0.0002936006,0,1
0.0003976466,0.0002511395,0,1
0.0003034866,0.0001558451,0,1
0.000207706,2.522042e-05,0,1
0.0001148425,-0.0001152902,0,1
2.684107e-05,-0.0002449425,0,1
-6.375344e-05,-0.000355633,0,1
-0.000161965,-0.0004425001,0,1
-0.0002640662,-0.0005031124,0,1
-0.0003566054,-0.0005394151,0,1
-0.0004266177,-0.0005595111,0,1
-0.0004726442,-0.0005708557,0,1
-0.0005086227,-0.0005749074,0,1
-0.000539253,-0.0005630766,0,1
-0.0005533527,-0.0005266119,0,1
-0.0005258016,-0.0004616237,0,1
-0.0004390967,-0.0003736223,0,1
-0.0003015032,-0.000276059,0,1
-0.0001430034,-0.0001849783,0,1
-3.789272e-06,-0.000112373,0,1
8.761557e-05,-6.310517e-05,0,1
0.000128456,-3.393342e-05,0,1
0.0001375317,-1.529591e-05,0,1
0.0001398006,-1.034161e-06,0,1
0.0001563313,1.436204e-05,0,1
0.0001908512,3.915804e-05,0,1
0.000232502,7.870197e-05,0,1
0.0002605393,0.0001325077,0,1
0.0002540567,0.0001872858,0,1
0.0002018716,0.0002193747,0,1
0.0001017153,0.0002043026,0,1
-3.587821e-05,0.0001365593,0,1
-0.000191623,2.992031e-05,0,1
-0.0003428299,-8.903562e-05,0,1
-0.0004694029,-0.0001903264,0,1
-0.0005616181,-0.000251101,0,1
-0.0006176926,-0.0002674695,0,1
-0.0006420024,-0.000251101,0,1
-0.0006395715,-0.0002251705,0,1
-0.0006078067,-0.0002036158,0,1
-0.0005444391,-0.0001856265,0,1
-0.0004486585,-0.0001621271,0,1
-0.0003206269,-0.0001256624,0,1
-0.0001592099,-7.55842e-05,0,1
2.943412e-05,-1.659243e-05,0,1
0.0002308813,4.466826e-05,0,1
0.0004245494,0.0001005808,0,1
0.0005851563,0.0001466074,0,1
0.0006976296,0.0001832341,0,1
0.0007618076,0.0002141886,0,1
0.0007841726,0.0002427121,0,1
0.0007682902,0.000269777,0,1
0.0007191843,0.0002965178,0,1
0.0006426895,0.0003161277,0,1
0.0005430193,0.0003133726,0,1
