EMG1,EMG2,class,user
0.001805348,-0.0001968091,0,1
0.001626752,-0.0002217671,0,1
0.001398401,-0.0002454286,0,1
0.001151575,-0.0002664971,0,1
0.0009175525,-0.0002822175,0,1
0.0007139983,-0.0002948586,0,1
0.0005409124,-0.0003062031,0,1
0.000386302,-0.0003167374,0,1
0.0002404432,-0.0003285682,0,1
9.847395e-05,-0.0003509331,0,1
-4.268495e-05,-0.0003893426,0,1
-0.0001853024,-0.0004426621,0,1
-0.0003222476,-0.0005047331,0,1
-0.0004429862,-0.0005638869,0,1
-0.0005364979,-0.0006107238,0,1
-0.0006005137,-0.0006345474,0,1
-0.0006338991,-0.000633575,0,1
-0.0006387612,-0.0006123445,0,1
-0.0006172064,-0.0005719902,0,1
-0.0005778245,-0.0005108916,0,1
-0.0005280706,-0.0004290486,0,1
-0.0004766958,-0.0003309991,0,1
-0.0004331002,-0.0002225774,0,1
-0.0004105732,-0.0001175591,0,1
-0.0004164075,-3.21507e-05,0,1
-0.0004478482,2.619281e-05,0,1
-0.0004988988,5.585077e-05,0,1
-0.0005656697,5.957827e-05,0,1
-0.0006437852,3.915804e-05,0,1
-0.0007227109,7.23117e-06,0,1
-0.0007797579,-2.453363e-05,0,1
-0.0007958024,-4.657452e-05,0,1
-0.0007739235,-5.532604e-05,0,1
-0.0007283832,-5.289507e-05,0,1
-0.0006710121,-4.43056e-05,0,1
-0.0006154237,-3.296103e-05,0,1
-0.0005648594,-2.404744e-05,0,1
-0.0005131605,-2.583016e-05,0,1
-0.0004509274,-3.976777e-05,0,1
-0.0003809152,-5.872941e-05,0,1
-0.0003233821,-8.303922e-05,0,1
-0.0003003688,-0.0001146419,0,1
-0.0003219235,-0.0001627754,0,1
-0.0003823738,-0.0002276015,0,1
-0.000457248,-0.0003006929,0,1
-0.0005147812,-0.0003634122,0,1
-0.0005227224,-0.0004003631,0,1
-0.0004587066,-0.0004094387,0,1
-0.0003201407,-0.0003956632,0,1
-0.0001284175,-0.0003621157,0,1
8.356394e-05,-0.0003049066,0,1
0.0002854973,-0.0002160948,0,1
0.0004644175,-9.908367e-05,0,1
0.0006334517,2.959619e-05,0,1
0.0008133444,0.0001501728,0,1
0.001015764,0.0002430362,0,1
0.001230339,0.0003023522,0,1
0.001423683,0.0003383307,0,1
0.001556415,0.0003681507,0,1
0.001601469,0.0004083429,0,1
0.00154264,0.0004621486,0,1
0.001383977,0.0005213025,0,1
0.00115271,0.0005676532,0,1
0.0008898393,0.0005872631,0,1
0.0006245382,0.0005799701,0,1
0.0003704196,0.0005598741,0,1
0.0001291043,0.0005379952,0,1
-9.503204e-05,0.0005190336,0,1
-0.0002833519,0.0004966686,0,1
-0.0004167317,0.0004616624,0,1
-0.0004898231,0.0004114222,0,1
-0.0005185087,0.0003579406,0,1
-0.0005275843,0.0003185587,0,1
-0.0005384427,0.0003115899,0,1
-0.0005638869,0.00033671,0,1
-0.0006081308,0.000356482,0,1
-0.0006588572,0.0003277964,0,1
-0.0006901358,0.0002383363,0,1
-0.0006734431,0.0001171115,0,1
-0.0005875485,1.338965e-05,0,1
-0.0004266177,-3.231277e-05,0,1
-0.0002118811,-1.3027e-05,0,1
-6.176923e-08,5.017848e-05,0,1
0.0001524417,0.0001334801,0,1
0.0002268297,0.0002260194,0,1
0.0002404432,0.0003208276,0,1
0.0002290986,0.0004004017,0,1
0.0002237505,0.0004410801,0,1
0.0002407673,0.0004349216,0,1
0.0002769079,0.0003932708,0,1
0.0003235827,0.0003354135,0,1
0.0003718782,0.0002837146,0,1
0.0004098015,0.0002587566,0,1
0.0004261701,0.0002684805,0,1
0.0004169324,0.000314345,0,1
0.000383709,0.0003854917,0,1
0.0003211517,0.000463121,0,1
0.0002120818,0.0005224369,0,1
4.596478e-05,0.000539778,0,1
-0.000159372,0.0004965065,0,1
-0.0003579019,0.0003960259,0,1
-0.0005024642,0.0002670219,0,1
-0.0005684248,0.0001370455,0,1
-0.0005736109,3.179537e-06,0,1
-0.000556756,-0.0001549962,0,1
-0.0005496252,-0.0003418575,0,1
-0.0005642111,-0.0005439529,0,1
-0.0005917621,-0.0007458862,0,1
-0.0006204477,-0.0009442542,0,1
-0.00064103,-0.00113695,0,1
-0.0006528608,-0.001315384,0,1
-0.000663395,-0.001468536,0,1
-0.0006800878,-0.001601753,0,1
-0.0006849497,-0.00172314,0,1
-0.0006424887,-0.001822324,0,1
-0.0005225603,-0.001866244,0,1
-0.0003324577,-0.001823621,0,1
-0.0001237176,-0.001695751,0,1
4.094075e-05,-0.001519748,0,1
0.0001279698,-0.001339856,0,1
0.0001454729,-0.001180059,0,1
0.0001218114,-0.001036145,0,1
8.907416e-05,-0.000886721,0,1
7.52986e-05,-0.0007246558,0,1
0.000101067,-0.0005595111,0,1
0.0001715654,-0.0004024699,0,1
0.0002715597,-0.0002583939,0,1
0.0003704196,-0.0001255003,0,1
0.0004545315,-4.113403e-06,0,1
0.0005292437,9.782569e-05,0,1
0.0005937457,0.0001637863,0,1
0.0006409068,0.0001942546,0,1
0.0006676476,0.0002198609,0,1
0.0006825576,0.0002795009,0,1
0.0007067053,0.0003942432,0,1
0.0007546768,0.000544964,0,1
0.0008287407,0.0006840162,0,1
0.0009143112,0.0007757452,0,1
0.0009911302,0.0008169098,0,1
0.001042829,0.0008274441,0,1
0.001062115,0.0008455954,0,1
0.001052553,0.0009050734,0,1
0.001018195,0.001015116,0,1
0.0009595275,0.001146551,0,1
0.0008747673,0.001255945,0,1
0.0007729901,0.001321906,0,1
0.0006715371,0.001351564,0,1
0.0005955285,0.001366474,0,1
0.0005577672,0.001370202,0,1
0.0005451261,0.001339571,0,1
0.0005230852,0.001240549,0,1
0.000462959,0.001056443,0,1
0.0003595612,0.0008062135,0,1
0.0002243987,0.0005344298,0,1
8.372601e-05,0.0002788527,0,1
-4.544006e-05,5.017848e-05,0,1
-0.0001572651,-0.0001548341,0,1
-0.0002605007,-0.000325813,0,1
-0.0003684362,-0.0004361795,0,1
-0.0004810716,-0.000459679,0,1
-0.0005877105,-0.0003984183,0,1
-0.0006849497,-0.0002976137,0,1
-0.0007821888,-0.0002245222,0,1
-0.0008870451,-0.0002253326,0,1
-0.0009919014,-0.0003011791,0,1
-0.001068558,-0.000430021,0,1
-0.00108201,-0.0005946793,0,1
-0.001020425,-0.0007815406,0,1
-0.0009157307,-0.0009559229,0,1
-0.0008338877,-0.001064831,0,1
-0.0008343739,-0.001083468,0,1
-0.0009301545,-0.001018318,0,1
-0.001087682,-0.000889314,0,1
-0.00125072,-0.0007090974,0,1
-0.001370162,-0.0004841508,0,1
-0.001416512,-0.0002162569,0,1
-0.001381992,9.879808e-05,0,1
-0.001279405,0.0004647417,0,1
-0.001133384,0.0008590469,0,1
-0.0009640261,0.001219481,0,1
-0.0007852681,0.001469386,0,1
-0.0006118583,0.001557874,0,1
-0.0004518998,0.001472789,0,1
-0.0003057169,0.001248652,0,1
-0.0001650443,0.0009523966,0,1
-2.177852e-05,0.0006548444,0,1
0.000120839,0.000410936,0,1
0.000249843,0.0002477361,0,1
0.00035162,0.0001642725,0,1
0.0004221185,0.0001363972,0,1
0.0004627969,0.0001373696,0,1
0.0004817585,0.0001522796,0,1
0.0004924549,0.0001728619,0,1
0.0005084993,0.0001961994,0,1
0.0005430193,0.000225209,0,1
0.0006102764,0.0002754493,0,1
0.0007310151,0.0003636129,0,1
0.0009131767,0.0004807861,0,1
0.001127589,0.0005877494,0,1
0.001317368,0.0006430136,0,1
0.001435514,0.0006387999,0,1
0.001467603,0.0005908285,0,1
0.001423683,0.0005224369,0,1
0.00132142,0.0004571246,0,1
0.001176695,0.0004200116,0,1
0.001001989,0.000428277,0,1
0.0008070238,0.0004832171,0,1
0.0006081695,0.0005624671,0,1
0.0004253598,0.0006350724,0,1
0.0002717218,0.0006778577,0,1
0.0001446626,0.0006802886,0,1
3.397195e-05,0.0006425274,0,1
-6.893953e-05,0.0005704083,0,1
-0.0001650443,0.0004747897,0,1
-0.0002553146,0.0003710679,0,1
-0.0003347266,0.0002736666,0,1
-0.0004074939,0.00018291,0,1
-0.0004823681,9.037068e-05,0,1
-0.0005677765,-1.25408e-05,0,1
-0.0006656639,-0.0001340898,0,1
-0.0007630652,-0.000273628,0,1
-0.0008462047,-0.0004232143,0,1
-0.0009064929,-0.0005674524,0,1
-0.000941337,-0.0006860842,0,1
-0.0009496023,-0.0007669547,0,1
-0.0009316131,-0.0008035815,0,1
-0.0008826694,-0.0007885094,0,1
-0.0008017988,-0.0007144455,0,1
-0.000700508,-0.000589007,0,1
-0.0006071584,-0.0004368278,0,1
-0.0005437909,-0.0002964792,0,1
-0.0005091089,-0.0002146363,0,1
-0.0004890127,-0.0002292221,0,1
-0.0004679443,-0.0003520676,0,1
-0.0004369898,-0.0005587008,0,1
-0.0003901529,-0.0007956403,0,1
-0.0003309991,-0.001006163,0,1
-0.0002734659,-0.001156398,0,1
-0.0002347323,-0.001239051,0,1
-0.0002212809,-0.001264009,0,1
-0.000213988,-0.00124683,0,1
-0.0001844921,-0.001202262,0,1
-0.0001115627,-0.001130629,0,1
1.387585e-05,-0.001025287,0,1
0.0001770756,-0.0008851003,0,1
0.0003420582,-0.0007254661,0,1
0.0004757621,-0.0005737729,0,1
0.0005605224,-0.0004546549,0,1
0.0005896941,-0.0003763774,0,1
0.0005618189,-0.0003321336,0,1
0.0004799758,-0.0003065273,0,1
0.0003581026,-0.0002867553,0,1
0.0002169437,-0.0002590421,0,1
7.772959e-05,-0.0002109087,0,1
-3.522994e-05,-0.0001397621,0,1
-9.811128e-05,-5.32192e-05,0,1
-9.357346e-05,3.656499e-05,0,1
-2.550602e-05,0.0001146805,0,1
8.907416e-05,0.0001667035,0,1
0.0002295848,0.0001808031,0,1
0.0003751195,0.0001513072,0,1
0.0005039615,8.956036e-05,0,1
0.0005973112,9.500085e-06,0,1
0.0006426895,-8.336335e-05,0,1
0.0006360448,-0.0001853024,0,1
0.0005892079,-0.0002917793,0,1
0.0005188715,-0.0003937184,0,1
0.0004480489,-0.0004831784,0,1
0.0004063981,-0.0005549733,0,1
0.0004038051,-0.0005967862,0,1
0.0004127187,-0.0005930586,0,1
0.0003900295,-0.0005377944,0,1
0.0003078624,-0.0004363416,0,1
0.0001715654,-0.0003104168,0,1
1.727922e-05,-0.0001890299,0,1
-0.0001086455,-8.838737e-05,0,1
-0.0001720131,-4.923729e-06,0,1
-0.0001574272,8.064677e-05,0,1
-7.056019e-05,0.0001880961,0,1
5.844381e-05,0.0003255275,0,1
0.0001931201,0.0004772207,0,1
0.0003089969,0.0006162729,0,1
0.0003817642,0.0007127018,0,1
0.0003858158,0.0007486803,0,1
0.0003021901,0.0007279359,0,1
0.0001281319,0.0006789921,0,1
-9.811128e-05,0.0006368551,0,1
-0.000298424,0.000621621,0,1
-0.0003990665,0.0006255105,0,1
-0.0003763774,0.0006198382,0,1
-0.0002502906,0.0005830494,0,1
-6.359137e-05,0.0005073649,0,1
0.0001320215,0.0004044533,0,1
0.0002832284,0.0003080245,0,1
0.00035162,0.0002529222,0,1
0.0003349273,0.0002568118,0,1
0.0002629703,0.0003222862,0,1
0.0001867996,0.000450642,0,1
0.0001420695,0.0006494962,0,1
0.0001402868,0.0009050734,0,1
0.0001654069,0.001152061,0,1
0.0001798307,0.001295003,0,1
0.0001496866,0.001259673,0,1
6.930219e-05,0.001047043,0,1
-2.923353e-05,0.0007313393,0,1
-9.956988e-05,0.0004172565,0,1
-0.0001125351,0.0001799928,0,1
-7.590833e-05,4.077869e-05,0,1
-2.809907e-05,-2.145439e-05,0,1
-4.113403e-06,-3.717473e-05,0,1
-2.745081e-05,-2.955766e-05,0,1
-9.276313e-05,-1.20546e-05,0,1
-0.0001729855,4.638125e-06,0,1
-0.0002467252,1.59827e-05,0,1
-0.000315765,1.727922e-05,0,1
-0.0004037664,2.693341e-06,0,1
-0.0005335807,-3.117831e-05,0,1
-0.0007058561,-8.563225e-05,0,1
-0.0008902864,-0.0001540238,0,1
-0.001040359,-0.0002237119,0,1
-0.001119123,-0.0002794623,0,1
-0.001106806,-0.000310741,0,1
-0.001006001,-0.0003178718,0,1
-0.0008384255,-0.0003091203,0,1
-0.0006343853,-0.0002977757,0,1
-0.000417542,-0.0002903207,0,1
-0.0002112329,-0.0002877277,0,1
-3.701266e-05,-0.0002872415,0,1
7.951231e-05,-0.0002896725,0,1
0.0001125736,-0.0002997205,0,1
4.531652e-05,-0.0003177098,0,1
-0.0001161005,-0.0003463953,0,1
-0.0003237062,-0.0003971218,0,1
-0.0005079744,-0.0004833405,0,1
-0.0006091032,-0.0006180168,0,1
-0.000606348,-0.000802285,0,1
-0.0005223983,-0.001022046,0,1
-0.0004105732,-0.001254933,0,1
-0.0003224097,-0.001480204,0,1
-0.0002843243,-0.001674845,0,1
-0.0002877277,-0.001819893,0,1
-0.0002963172,-0.001907895,0,1
-0.0002653627,-0.001936742,0,1
-0.0001749302,-0.001911298,0,1
-3.328516e-05,-0.00183221,0,1
0.0001302388,-0.001699641,0,1
0.0002791768,-0.001507593,0,1
0.0003924605,-0.001251044,0,1
0.0004796517,-0.0009359888,0,1
0.000557281,-0.000571342,0,1
0.0006310208,-0.0001660166,0,1
0.000703464,0.0002850112,0,1
0.0007820658,0.0007927621,0,1
0.0008806016,0.001347999,0,1
0.00100604,0.001895619,0,1
0.001152061,0.002331414,0,1
0.001295652,0.002546314,0,1
0.001412015,0.002474356,0,1
0.001486403,0.002131587,0,1
0.001504716,0.001625293,0,1
0.001458365,0.001098742,0,1
0.001354481,0.0006731578,0,1
0.001216887,0.0004096394,0,1
0.001071191,0.0003007315,0,1
0.0009348936,0.000307052,0,1
0.0008225822,0.0003929467,0,1
0.00072826,0.0005319988,0,1
0.0006250244,0.0007052467,0,1
0.0004950479,0.0008880566,0,1
0.0003428685,0.001051257,0,1
0.0001981441,0.001165837,0,1
9.652917e-05,0.00121705,0,1
5.893001e-05,0.001201653,0,1
7.157111e-05,0.00113391,0,1
9.68533e-05,0.001035212,0,1
9.523264e-05,0.0009277626,0,1
4.223728e-05,0.0008263097,0,1
-6.958779e-05,0.0007350668,0,1
-0.0002300324,0.000643986,0,1
-0.0004178661,0.0005362125,0,1
-0.0006097514,0.000406074,0,1
-0.0007817027,0.0002590807,0,1
-0.0009170272,0.0001112771,0,1
-0.0009957909,-1.594417e-05,0,1
-0.0009982219,-0.0001050801,0,1
-0.0009265891,-0.0001511067,0,1
-0.000812171,-0.0001601823,0,1
-0.0006927288,-0.0001438137,0,1
-0.000598893,-0.0001084835,0,1
-0.0005424943,-5.905355e-05,0,1
-0.000529205,-9.299493e-06,0,1
-0.000559025,1.565857e-05,0,1
-0.0006306578,-1.237873e-05,0,1
-0.0007317866,-0.0001094559,0,1
-0.0008319429,-0.0002668213,0,1
-0.0008970932,-0.0004517378,0,1
-0.000911517,-0.0006183409,0,1
-0.0008839659,-0.000722873,0,1
-0.0008455564,-0.0007405381,0,1
-0.0008303223,-0.0006693914,0,1
-0.0008450702,-0.0005376324,0,1
-0.0008640318,-0.0003839945,0,1
-0.0008517149,-0.0002470493,0,1
-0.0007855922,-0.0001548341,0,1
-0.0006711741,-0.0001185315,0,1
-0.0005348772,-0.0001290658,0,1
-0.0004029561,-0.0001684476,0,1
-0.0002896725,-0.0002235498,0,1
-0.0001924333,-0.0002865932,0,1
-0.0001013526,-0.0003569296,0,1
-1.027188e-05,-0.0004412035,0,1
7.983644e-05,-0.0005452494,0,1
0.0001696206,-0.0006650157,0,1
0.0002624841,-0.0007753822,0,1
0.0003692851,-0.0008431255,0,1
0.0004955341,-0.0008452323,0,1
0.0006422033,-0.000792561,0,1
0.0008086445,-0.0007231971,0,1
0.0009971267,-0.0006768464,0,1
0.001208136,-0.0006727948,0,1
0.001422387,-0.0007068285,0,1
0.001602118,-0.0007572309,0,1
0.001707136,-0.0007906163,0,1
0.001711998,-0.0007821888,0,1
0.001612004,-0.0007342176,0,1
0.001424007,-0.0006667984,0,1
0.001189337,-0.0005985689,0,1
0.0009494794,-0.0005403875,0,1
0.0007235601,-0.0004864197,0,1
0.0005110924,-0.0004227281,0,1
0.000311914,-0.0003322956,0,1
0.0001433661,-0.0002130156,0,1
2.230325e-05,-7.995997e-05,0,1
-4.527799e-05,4.888196e-05,0,1
-6.731888e-05,0.0001657311,0,1
-5.581224e-05,0.0002665357,0,1
-2.971972e-05,0.0003464339,0,1
-1.108221e-05,0.0004046154,0,1
-1.545797e-05,0.0004469145,0,1
-5.013995e-05,0.0004937514,0,1
-0.0001089697,0.0005618189,0,1
-0.0001747682,0.0006579236,0,1
-0.0002220912,0.0007791486,0,1
-0.0002290601,0.0009126905,0,1
-0.0001919471,0.00103586,0,1
-0.0001255003,0.0011284,0,1
-5.743289e-05,0.001180423,0,1
-1.432352e-05,0.001182043,0,1
-1.108221e-05,0.001125969,0,1
-4.025397e-05,0.001019005,0,1
-7.833932e-05,0.0008804395,0,1
-0.0001007043,0.0007289083,0,1
-9.227693e-05,0.0005668429,0,1
-5.840528e-05,0.0003895433,0,1
-2.372331e-05,0.0001979821,0,1
-1.67545e-05,6.90704e-06,0,1
-5.921561e-05,-0.0001650443,0,1
-0.0001605064,-0.0003049066,0,1
-0.0003099306,-0.0004049009,0,1
-0.0004713477,-0.0004617858,0,1
-0.0006047274,-0.0004852853,0,1
-0.0006932151,-0.0004885266,0,1
-0.0007345417,-0.0004830164,0,1
-0.0007389174,-0.000477182,0,1
-0.0007280591,-0.0004737787,0,1
-0.0007180111,-0.0004679443,0,1
-0.000715418,-0.0004517378,0,1
-0.0007193076,-0.0004149489,0,1
-0.0007272488,-0.0003522297,0,1
-0.0007372968,-0.000266011,0,1
-0.0007591756,-0.0001626133,0,1
-0.0008035815,-3.944364e-05,0,1
-0.0008692179,0.0001098185,0,1
-0.0009353406,0.0002751252,0,1
-0.0009614331,0.0004339493,0,1
-0.0009107067,0.0005605224,0,1
-0.0007651721,0.0006345862,0,1
-0.0005471942,0.0006430136,0,1
-0.0003063652,0.0005879114,0,1
-9.632857e-05,0.000485486,0,1
4.969229e-05,0.0003613439,0,1
0.0001346145,0.0002420638,0,1
0.0001809652,0.0001521176,0,1
0.0002159713,9.993253e-05,0,1
0.000259729,7.708133e-05,0,1
0.0003185587,6.362991e-05,0,1
0.0003854917,4.02925e-05,0,1
0.0004441593,-1.173047e-05,0,1
0.0004726828,-0.000102325,0,1
0.0004642555,-0.0002211189,0,1
0.0004255218,-0.0003439643,0,1
0.0003717161,-0.0004509274,0,1
0.0003240689,-0.0005305015,0,1
0.0003018659,-0.0005820383,0,1
0.0003091589,-0.0006084549,0,1
0.0003339549,-0.000613803,0,1
0.000356644,-0.0005997034,0,1
0.0003574544,-0.000571504,0,1
0.0003159656,-0.0005588629,0,1
0.0002216436,-0.0005807417,0,1
8.097089e-05,-0.0006217443,0,1
-7.979791e-05,-0.0006444334,0,1
-0.0002261429,-0.0006202856,0,1
-0.0003316474,-0.0005488148,0,1
-0.0003895047,-0.0004484965,0,1
-0.000419973,-0.0003387782,0,1
-0.0004502792,-0.0002298704,0,1
-0.0004919299,-0.0001180453,0,1
-0.0005343911,1.452411e-05,0,1
-0.0005593491,0.0001880961,0,1
-0.0005520562,0.0003976466,0,1
-0.0005061917,0.0006005525,0,1
-0.0004279142,0.0007387943,0,1
-0.0003365093,0.0007734763,0,1
-0.000251101,0.0007073536,0,1
-0.0001783336,0.0005751082,0,1
-0.0001165867,0.000420984,0,1
-6.148453e-05,0.0002759355,0,1
-4.275467e-06,0.0001519555,0,1
6.541262e-05,4.256141e-05,0,1
0.0001564933,-5.710876e-05,0,1
0.000262322,-0.0001266348,0,1
0.000356644,-0.0001245279,0,1
0.0004112601,-2.46957e-05,0,1
0.0004235771,0.000160707,0,1
0.0004222805,0.0003806297,0,1
0.0004521006,0.0005603603,0,1
0.0005316747,0.0006383138,0,1
0.0006473894,0.0005940699,0,1
0.00076278,0.0004589073,0,1
0.0008410576,0.0002929524,0,1
0.0008585607,0.0001539003,0,1
0.0008164236,7.238143e-05,0,1
0.0007264773,5.228533e-05,0,1
0.0006049282,8.194328e-05,0,1
0.0004574487,0.0001464453,0,1
0.0002880904,0.0002253711,0,1
0.0001083599,0.0002997591,0,1
-6.213279e-05,0.0003542131,0,1
-0.000208964,0.0003806297,0,1
-0.0003199787,0.000383709,0,1
-0.0003872358,0.0003759298,0,1
-0.0004204592,0.0003692851,0,1
-0.0004361795,0.000368961,0,1
-0.0004457413,0.0003747954,0,1
-0.0004567618,0.0003775505,0,1
-0.0004708614,0.0003610198,0,1
-0.0004843129,0.0003115899,0,1
-0.0004843129,0.0002258573,0,1
-0.0004651892,0.0001119254,0,1
-0.0004309934,-1.853722e-05,0,1
-0.0003933943,-0.0001535376,0,1
-0.0003585502,-0.0002814071,0,1
-0.0003250027,-0.0003922598,0,1
-0.0002814071,-0.0004797751,0,1
-0.0002100984,-0.0005439529,0,1
-9.616651e-05,-0.0005898174,0,1
5.925414e-05,-0.0006319543,0,1
0.0002355812,-0.0006799257,0,1
0.000401212,-0.0007379451,0,1
0.0005290816,-0.0007964507,0,1
0.0006109247,-0.0008392359,0,1
0.0006574374,-0.0008475012,0,1
0.0006849886,-0.000802285,0,1
0.0006961711,-0.0006834911,0,1
0.0006851507,-0.0004692408,0,1
0.0006535479,-0.0001464067,0,1
0.0006219451,0.0002555152,0,1
0.0006276174,0.0006436619,0,1
0.0007002227,0.0009120423,0,1
0.0008392748,0.0009846477,0,1
0.001003285,0.0008439748,0,1
0.001133262,0.0005483674,0,1
0.001180261,0.0002015475,0,1
0.001127103,-9.19528e-05,0,1
0.0009898337,-0.0002656868,0,1
0.0007982723,-0.0003096065,0,1
0.0005882355,-0.0002514251,0,1
0.0003901916,-0.0001392759,0,1
0.0002234263,-2.080613e-05,0,1
9.442231e-05,7.140904e-05,0,1
-3.465141e-06,0.0001219734,0,1
-7.995997e-05,0.0001393144,0,1
-0.000137007,0.000135911,0,1
-0.0001703924,0.0001222976,0,1
-0.000176713,0.0001072255,0,1
-0.0001601823,8.405014e-05,0,1
-0.0001332795,4.45062e-05,0,1
-0.0001079973,-1.448558e-05,0,1
-9.632857e-05,-8.806324e-05,0,1
-0.0001071869,-0.0001637477,0,1
-0.0001378173,-0.000231491,0,1
-0.0001760647,-0.0002872415,0,1
-0.0002053985,-0.0003295405,0,1
-0.0002173914,-0.0003541745,0,1
-0.0002117191,-0.0003509331,0,1
-0.0001953505,-0.0003162512,0,1
-0.0001713648,-0.0002592042,0,1
-0.0001381414,-0.0001981056,0,1
-0.0001034594,-0.0001459206,0,1
-8.595638e-05,-9.649064e-05,0,1
-0.0001060525,-3.409549e-05,0,1
-0.0001736337,5.52025e-05,0,1
-0.0002758969,0.0001684862,0,1
-0.0003873979,0.0002924662,0,1
-0.0004836646,0.0004080188,0,1
-0.0005428185,0.0004987754,0,1
-0.0005514079,0.0005694359,0,1
-0.0005108916,0.0006426895,0,1
-0.0004347209,0.0007436562,0,1
-0.0003408851,0.0008775223,0,1
-0.0002494803,0.001021761,0,1
-0.0001814128,0.001135855,0,1
-0.0001426792,0.001182854,0,1
-0.000134738,0.001138124,0,1
-0.0001582375,0.0009982612,0,1
-0.0002117191,0.0007869278,0,1
-0.0002836761,0.0005493398,0,1
-0.0003520676,0.0003320101,0,1
-0.0004023079,0.0001574657,0,1
-0.0004319658,2.862379e-05,0,1
-0.0004412035,-6.423963e-05,0,1
-0.0004293727,-0.0001302002,0,1
-0.000397608,-0.0001770371,0,1
-0.0003522297,-0.0002133397,0,1
-0.0003120375,-0.0002498044,0,1
-0.0002893484,-0.0002985861,0,1
-0.0002828657,-0.000367788,0,1
-0.0002854588,-0.0004603272,0,1
-0.0002924276,-0.0005753936,0,1
-0.0003063652,-0.0007071526,0,1
-0.000335699,-0.0008408565,0,1
-0.0003904771,-0.0009573814,0,1
-0.00047702,-0.001043438,0,1
-0.0005891691,-0.001095299,0,1
-0.0007108802,-0.00111653,0,1
-0.0008259465,-0.001108913,0,1
-0.0009170272,-0.001072772,0,1
-0.0009696984,-0.001012646,0,1
-0.0009755327,-0.0009348544,0,1
-0.0009304786,-0.0008416669,0,1
-0.0008416669,-0.000735352,0,1
-0.0007360002,-0.0006202856,0,1
-0.0006492953,-0.0005023021,0,1
-0.0005979206,-0.0003906392,0,1
-0.0005749074,-0.0002969654,0,1
-0.0005608077,-0.0002160948,0,1
-0.0005298533,-0.0001280934,0,1
-0.0004612996,-1.399939e-05,0,1
-0.0003438023,0.0001245665,0,1
-0.0001775233,0.0002587566,0,1
4.013043e-05,0.0003535648,0,1
0.0003031625,0.0003914881,0,1
0.0005838597,0.0003752816,0,1
0.0008368439,0.0003255275,0,1
0.001024516,0.0002654013,0,1
0.001135693,0.0002172679,0,1
0.001195657,0.0001931201,0,1
0.001245411,0.0001900409,0,1
0.001313641,0.0001986303,0,1
0.001397105,0.000210137,0,1
0.001461445,0.0002169437,0,1
0.001468413,0.0002119197,0,1
0.001401642,0.0001898788,0,1
0.001269235,0.0001548727,0,1
0.001094042,0.0001114392,0,1
0.0009002115,6.184718e-05,0,1
0.0007073536,4.962256e-06,0,1
0.0005323229,-5.192267e-05,0,1
0.0003872744,-8.611845e-05,0,1
0.0002764217,-8.320128e-05,0,1
0.0001940925,-4.446767e-05,0,1
0.0001269974,1.095867e-05,0,1
6.200925e-05,5.585077e-05,0,1
-4.923729e-06,7.043665e-05,0,1
-6.294311e-05,5.260946e-05,0,1
-9.389759e-05,1.468618e-05,0,1
-8.563225e-05,-1.805102e-05,0,1
-3.571614e-05,-2.194059e-05,0,1
4.077869e-05,7.879432e-06,0,1
0.0001193804,6.330578e-05,0,1
0.0001709172,0.0001304008,0,1
0.0001733481,0.0001992786,0,1
0.0001287802,0.0002644289,0,1
5.94162e-05,0.0003175863,0,1
-6.544382e-06,0.0003493511,0,1
-4.835724e-05,0.0003558337,0,1
-6.44017e-05,0.0003425444,0,1
-6.002594e-05,0.0003218,0,1
-3.928157e-05,0.0003041349,0,1
-2.168618e-06,0.0002927903,0,1
6.735741e-05,0.0002827423,0,1
0.0001850168,0.0002616738,0,1
0.0003545372,0.0002224539,0,1
0.000552419,0.0001650828,0,1
0.0007327979,9.069481e-05,0,1
0.0008528884,-1.682422e-06,0,1
0.0008895152,-0.000104756,0,1
0.0008314957,-0.0002008607,0,1
0.0006791542,-0.0002643903,0,1
0.0004371906,-0.0002801106,0,1
0.0001257009,-0.000243808,0,1
-0.0002180396,-0.0001648822,0,1
-0.0005343911,-6.245691e-05,0,1
-0.0007614446,4.693717e-05,0,1
-0.0008512287,0.0001504969,0,1
-0.0007936955,0.0002477361,0,1
-0.0006264441,0.0003537269,0,1
-0.0004222419,0.0004866205,0,1
-0.0002515871,0.0006394482,0,1
-0.00015451,0.0007812555,0,1
-0.0001327933,0.0008775223,0,1
-0.0001716889,0.0009042631,0,1
-0.0002561249,0.0008559676,0,1
-0.0003643846,0.0007462493,0,1
-0.0004694029,0.0006005525,0,1
-0.0005512458,0.0004396215,0,1
-0.0006005137,0.0002736666,0,1
-0.0006163961,0.0001031738,0,1
-0.0006116962,-7.315322e-05,0,1
-0.0006103997,-0.0002498044,0,1
-0.0006342233,-0.0004112214,0,1
-0.0006841394,-0.0005403875,0,1
-0.0007507482,-0.0006296854,0,1
-0.000817357,-0.0006873807,0,1
-0.0008658146,-0.0007351899,0,1
-0.0008786177,-0.0008029332,0,1
-0.0008479874,-0.000911517,0,1
-0.0007833233,-0.001060455,0,1
-0.0007073147,-0.001230624,0,1
-0.0006394094,-0.001389286,0,1
-0.0005828486,-0.001507593,0,1
-0.0005290429,-0.00156934,0,1
-0.0004570859,-0.001575985,0,1
-0.0003446126,-0.00153952,0,1
-0.0001823853,-0.001468536,0,1
1.371378e-05,-0.001362707,0,1
0.0002109473,-0.001218631,0,1
0.0003726885,-0.001045869,0,1
0.0004726828,-0.0008588458,0,1
0.0005072028,-0.0006625847,0,1
0.0004935893,-0.0004600031,0,1
0.0004636072,-0.0002577456,0,1
0.0004511282,-6.423963e-05,0,1
0.0004820827,0.0001156529,0,1
0.0005574431,0.0002730183,0,1
0.0006579236,0.0003966742,0,1
0.0007546768,0.0004906721,0,1
0.0008292268,0.0005692738,0,1
0.0008744431,0.0006519272,0,1
0.0008930806,0.0007438183,0,1
0.0008893532,0.0008285785,0,1
0.000861964,0.0008736328,0,1
0.0008028102,0.0008524022,0,1
0.0007041123,0.0007694247,0,1
0.0005723531,0.0006603546,0,1
0.000428439,0.0005634395,0,1
0.0002872801,0.0004939134,0,1
0.0001595726,0.0004480489,0,1
5.390598e-05,0.0004222805,0,1
-1.724069e-05,0.0004187151,0,1
-4.868137e-05,0.0004443214,0,1
-4.689865e-05,0.0005055821,0,1
-3.150244e-05,0.0005960147,0,1
-2.485776e-05,0.0006896885,0,1
-3.928157e-05,0.0007468975,0,1
-8.206682e-05,0.000740577,0,1
-0.0001530514,0.0006697544,0,1
-0.0002442942,0.0005520949,0,1
-0.0003475298,0.000408505,0,1
-0.0004588687,0.0002629703,0,1
-0.0005669662,0.0001545486,0,1
-0.0006476747,0.0001188942,0,1
-0.0006820326,0.0001684862,0,1
-0.0006562641,0.0002777182,0,1
-0.0005737729,0.0003921364,0,1
-0.000457248,0.0004611762,0,1
-0.0003410472,0.0004707381,0,1
-0.0002501286,0.0004467524,0,1
-0.0001951884,0.0004391353,0,1
-0.0001788198,0.000485486,0,1
-0.0001947022,0.0005997422,0,1
-0.0002298704,0.0007682902,0,1
-0.0002619593,0.0009541793,0,1
-0.0002694143,0.001116083,0,1
-0.0002446183,0.001215267,0,1
-0.0001971332,0.00123277,0,1
-0.0001460826,0.001176209,0,1
-0.0001062146,0.001067463,0,1
-8.239095e-05,0.0009331108,0,1
-7.007399e-05,0.0007904932,0,1
-5.69467e-05,0.0006520892,0,1
-3.733679e-05,0.0005230852,0,1
-1.610624e-05,0.0004033189,0,1
1.234753e-06,0.0002936006,0,1
1.209313e-05,0.0001968476,0,1
2.230325e-05,0.000110953,0,1
4.02925e-05,3.18651e-05,0,1
6.492643e-05,-4.462973e-05,0,1
8.437427e-05,-0.0001206384,0,1
8.145709e-05,-0.0001976194,0,1
5.050261e-05,-0.0002726556,0,1
5.124321e-06,-0.0003410472,0,1
-2.388537e-05,-0.0004029561,0,1
1.234753e-06,-0.0004632444,0,1
9.896015e-05,-0.0005322842,0,1
0.0002542187,-0.0006152617,0,1
0.000425846,-0.0007014804,0,1
0.000562143,-0.0007667927,0,1
0.0006285898,-0.0007854302,0,1
0.0006230795,-0.0007479931,0,1
0.0005619809,-0.0006620985,0,1
0.0004649037,-0.0005552975,0,1
0.0003504856,-0.0004575721,0,1
0.0002323399,-0.0003898288,0,1
0.0001143563,-0.0003559572,0,1
-1.043395e-05,-0.0003536883,0,1
-0.0001430034,-0.0003741085,0,1
-0.0002799486,-0.0004160834,0,1
-0.0004133283,-0.0004903093,0,1
-0.0005262878,-0.000601162,0,1
-0.0005954896,-0.0007304901,0,1
-0.0005984068,-0.0008491218,0,1
-0.0005373082,-0.0009376095,0,1
-0.0004347209,-0.0009993564,0,1
-0.0003113892,-0.001043438,0,1
-0.0001778474,-0.001069531,0,1
-4.414354e-05,-0.001072124,0,1
7.400208e-05,-0.001052514,0,1
0.0001658931,-0.001030311,0,1
0.0002313675,-0.001034525,0,1
0.0002739907,-0.00107731,0,1
0.0002973281,-0.001149915,0,1
0.0003012177,-0.001233379,0,1
0.0002874421,-0.001302905,0,1
0.0002605393,-0.001327863,0,1
0.0002323399,-0.001285564,0,1
0.0002221298,-0.001146025,0,1
0.0002480603,-0.000866949,0,1
0.0003195311,-0.0004078181,0,1
0.0004326527,0.0002140265,0,1
0.0005679773,0.0008783326,0,1
0.0006950366,0.001421414,0,1
0.0007810934,0.001723181,0,1
0.0008105893,0.001753811,0,1
0.0007987585,0.001569866,0,1
0.0007708832,0.00127669,0,1
0.0007409012,0.0009877268,0,1
0.000710919,0.0007877381,0,1
0.0006798024,0.0007164293,0,1
0.0006478756,0.0007708832,0,1
0.000611735,0.0009331108,0,1
0.0005546879,0.001184474,0,1
0.0004553419,0.001483324,0,1
0.0003023522,0.001752839,0,1
0.0001056048,0.001901453,0,1
-0.0001020008,0.001864826,0,1
-0.0002783279,0.001639717,0,1
-0.0003971218,0.001289817,0,1
-0.0004651892,0.0009075044,0,1
-0.0004976023,0.000567167,0,1
-0.0005011677,0.0003052694,0,1
-0.0004619479,0.000123432,0,1
-0.0003637363,5.610517e-06,0,1
-0.0002003745,-7.169464e-05,0,1
3.989864e-06,-0.0001344139,0,1
0.0001936063,-0.0001997262,0,1
0.000302028,-0.0002713591,0,1
0.000284525,-0.0003446126,0,1
0.0001378558,-0.0004113835,0,1
-9.649064e-05,-0.0004590307,0,1
-0.0003536883,-0.0004812336,0,1
-0.0005706937,-0.000474589,0,1
-0.0007100698,-0.0004442827,0,1
-0.0007690616,-0.0003998769,0,1
-0.0007653341,-0.0003497987,0,1
-0.0007259523,-0.0003063652,0,1
-0.0006812222,-0.0002851347,0,1
-0.0006463782,-0.0002925897,0,1
-0.0006232028,-0.0003240303,0,1
-0.0006052136,-0.0003642225,0,1
-0.0005898174,-0.0003989045,0,1
-0.0005799314,-0.0004214316,0,1
-0.0005700454,-0.0004303451,0,1
-0.0005480045,-0.0004313175,0,1
-0.0005074882,-0.0004272659,0,1
-0.0004570859,-0.0004168937,0,1
-0.0004118697,-0.0004006872,0,1
-0.0003788084,-0.0003836704,0,1
-0.0003582261,-0.0003720016,0,1
-0.0003454229,-0.0003716775,0,1
-0.0003322956,-0.0003831841,0,1
-0.0003096065,-0.0003979321,0,1
-0.0002724935,-0.0004066836,0,1
-0.0002188499,-0.0004060354,0,1
-0.0001489998,-0.0004018217,0,1
-6.974985e-05,-0.0004094387,0,1
9.66215e-06,-0.0004347209,0,1
7.108491e-05,-0.0004734545,0,1
0.0001015532,-0.000519481,0,1
9.847395e-05,-0.000568911,0,1
7.481241e-05,-0.0006204477,0,1
5.341979e-05,-0.0006656639,0,1
6.298164e-05,-0.0006888393,0,1
0.0001214872,-0.0006784671,0,1
0.0002256952,-0.0006347094,0,1
0.0003485408,-0.0005674524,0,1
0.0004566384,-0.0004869059,0,1
0.0005166026,-0.000405225,0,1
0.0004974789,-0.0003389403,0,1
0.0003830607,-0.0002976137,0,1
0.0001885823,-0.0002796244,0,1
-4.171256e-05,-0.0002778417,0,1
-0.0002449425,-0.000283514,0,1
-0.0003676259,-0.0002848105,0,1
-0.0003815635,-0.0002741142,0,1
-0.0002916173,-0.0002470493,0,1
-0.0001378173,-0.0001950263,0,1
3.121684e-05,-0.0001162626,0,1
0.0001710792,-1.643037e-05,0,1
0.0002511395,9.296373e-05,0,1
0.0002605393,0.000200251,0,1
0.0002128921,0.0003021901,0,1
0.0001420695,0.0004000776,0,1
7.756752e-05,0.0004931031,0,1
3.640293e-05,0.000569598,0,1
3.040651e-05,0.0006138419,0,1
6.087479e-05,0.0006174073,0,1
0.0001172735,0.0005875872,0,1
0.0001798307,0.0005504743,0,1
0.0002341226,0.0005363746,0,1
0.0002798251,0.0005655463,0,1
0.0003198552,0.0006371793,0,1
0.0003582647,0.0007279359,0,1
0.0003908399,0.0008081583,0,1
0.0004034809,0.0008583986,0,1
0.0003777126,0.0008635847,0,1
0.0003112658,0.0008212856,0,1
0.000217592,0.0007462493,0,1
0.0001213252,0.0006618132,0,1
4.483033e-05,0.0005767288,0,1
2.207145e-06,0.0004884033,0,1
6.582909e-06,0.0003905157,0,1
5.666109e-05,0.0002882525,0,1
0.0001386662,0.0001936063,0,1
0.0002282883,0.0001141943,0,1
0.0002989488,4.547859e-05,0,1
0.0003151553,-2.323711e-05,0,1
0.0002472499,-9.811128e-05,0,1
9.26396e-05,-0.0001838438,0,1
-0.0001154523,-0.0002718453,0,1
-0.0003241924,-0.0003400748,0,1
-0.0004789647,-0.0003700569,0,1
-0.0005437909,-0.0003590364,0,1
-0.0005136467,-0.0003230579,0,1
-0.0004120317,-0.0002838381,0,1
-0.0002754107,-0.0002579077,0,1
-0.000149486,-0.0002506147,0,1
-6.051213e-05,-0.0002545043,0,1
-5.409925e-06,-0.0002549905,0,1
3.850978e-05,-0.0002382978,0,1
9.474644e-05,-0.0002013469,0,1
0.0001586002,-0.0001582375,0,1
0.0002115956,-0.0001392759,0,1
0.0002367157,-0.0001791439,0,1
0.000220185,-0.0002867553,0,1
0.000150659,-0.0004295348,0,1
3.721326e-05,-0.000549139,0,1
-9.000802e-05,-0.0005963,0,1
-0.0001922712,-0.0005624284,0,1
-0.0002285739,-0.0004757234,0,1
-0.0001788198,-0.000380267,0,1
-6.537409e-05,-0.0003037722,0,1
6.670914e-05,-0.0002415391,0,1
0.000175455,-0.0001684476,0,1
0.0002386605,-6.0188e-05,0,1
0.0002618358,8.826383e-05,0,1
0.0002590807,0.0002534084,0,1
0.0002352571,0.0004028327,0,1
0.0001833962,0.0005200059,0,1
9.393612e-05,0.000606711,0,1
-3.101625e-05,0.0006739681,0,1
-0.0001702304,0.000725829,0,1
-0.0002925897,0.0007595387,0,1
-0.0003684362,0.0007739625,0,1
-0.0003784843,0.0007720177,0,1
-0.0003212752,0.0007592146,0,1
-0.0002107467,0.0007357151,0,1
-7.65566e-05,0.0007024916,0,1
5.115087e-05,0.0006689441,0,1
0.0001537382,0.0006412309,0,1
0.0002221298,0.0006115729,0,1
0.0002566497,0.0005582534,0,1
0.0002649151,0.0004642555,0,1
0.0002563256,0.0003321722,0,1
0.0002381743,0.000190365,0,1
0.0002185644,7.092284e-05,0,1
0.0002111094,-4.437533e-06,0,1
0.0002341226,-2.84232e-05,0,1
0.0003000832,-1.594417e-05,0,1
0.0003971604,7.555301e-06,0,1
0.0004989374,1.987227e-05,0,1
0.0005759185,1.419998e-05,0,1
0.0006135177,2.693341e-06,0,1
0.0006084936,8.203562e-06,0,1
0.0005684635,6.006447e-05,0,1
0.0005049339,0.0001765894,0,1
0.0004289252,0.0003352514,0,1
0.0003443271,0.0004752759,0,1
0.0002537325,0.0005282713,0,1
0.0001574657,0.0004537212,0,1
5.747142e-05,0.0002560015,0,1
-3.847125e-05,-1.010982e-05,0,1
-0.0001250141,-0.000261311,0,1
-0.0001953505,-0.0004224039,0,1
-0.0002415391,-0.0004590307,0,1
-0.0002585559,-0.0003861013,0,1
-0.0002532078,-0.0002579077,0,1
-0.0002467252,-0.0001430034,0,1
-0.0002650386,-9.519411e-05,0,1
-0.0003230579,-0.0001306864,0,1
-0.0004108973,-0.0002310048,0,1
-0.0005010056,-0.0003520676,0,1
-0.000561456,-0.0004533584,0,1
-0.0005655076,-0.000501978,0,1
-0.0005058676,-0.0004912817,0,1
-0.000397608,-0.0004366657,0,1
-0.0002697385,-0.000360333,0,1
-0.0001548341,-0.0002820554,0,1
-8.44978e-05,-0.0002133397,0,1
-6.683268e-05,-0.0001648822,0,1
-9.470791e-05,-0.0001442999,0,1
-0.0001430034,-0.0001506204,0,1
-0.0001857886,-0.0001734716,0,1
-0.0002079916,-0.0001984297,0,1
-0.0002157707,-0.0002185258,0,1
-0.0002263049,-0.0002293842,0,1
-0.0002535319,-0.0002290601,0,1
-0.0002921034,-0.0002177155,0,1
-0.0003301888,-0.0001938919,0,1
-0.0003525538,-0.0001609926,0,1
-0.0003486642,-0.0001238797,0,1
-0.0003123616,-9.211487e-05,0,1
-0.0002472114,-7.347736e-05,0,1
-0.0001658546,-7.23429e-05,0,1
-8.919769e-05,-8.368748e-05,0,1
-3.798505e-05,-9.697683e-05,0,1
-1.805102e-05,-0.0001021629,0,1
-1.691656e-05,-0.0001036215,0,1
-1.902341e-05,-0.0001201522,0,1
-2.258885e-05,-0.0001731475,0,1
-3.490581e-05,-0.0002716832,0,1
-6.245691e-05,-0.0003980942,0,1
-0.0001021629,-0.0005159156,0,1
-0.0001493239,-0.0005933828,0,1
-0.0001921092,-0.000623689,0,1
-0.000221605,-0.0006116962,0,1
-0.0002329496,-0.0005608077,0,1
-0.0002204706,-0.0004689167,0,1
-0.0001806025,-0.0003217614,0,1
-0.0001182074,-0.0001002181,0,1
-4.300908e-05,0.0001939304,0,1
3.202716e-05,0.0005261644,0,1
9.750156e-05,0.0008384645,0,1
0.000143204,0.001065518,0,1
0.0001590864,0.001160165,0,1
0.0001339663,0.001110897,0,1
7.092284e-05,0.0009408899,0,1
-1.691656e-05,0.0007029778,0,1
-0.0001136696,0.0004662003,0,1
-0.0002076674,0.0002867939,0,1
-0.0002862691,0.0001893926,0,1
-0.0003395886,0.0001665414,0,1
-0.0003626019,0.0001945787,0,1
-0.000350609,0.0002433604,0,1
-0.0003065273,0.0002817699,0,1
-0.000241377,0.0002804733,0,1
-0.000166827,0.00021273,0,1
-9.584238e-05,6.83298e-05,0,1
-2.955766e-05,-0.000144462,0,1
4.061663e-05,-0.0003993907,0,1
0.0001260251,-0.0006638812,0,1
0.0002216436,-0.0009105446,0,1
0.0003140208,-0.00111183,0,1
0.000391164,-0.001239375,0,1
0.0004517764,-0.001286374,0,1
0.0004992616,-0.001274381,0,1
0.0005337815,-0.001230462,0,1
0.0005503122,-0.001170659,0,1
0.0005370228,-0.001093516,0,1
0.0004866205,-0.00098866,0,1
0.000408505,-0.0008403703,0,1
0.0003263378,-0.0006334129,0,1
0.0002624841,-0.0003574158,0,1
0.0002227781,8.041497e-06,0,1
0.0001983062,0.0004939134,0,1
0.0001788584,0.001101173,0,1
0.0001598967,0.001747653,0,1
0.0001326697,0.002275663,0,1
8.810177e-05,0.0025327,0,1
2.667901e-05,0.002451667,0,1
-4.122636e-05,0.002087181,0,1
-0.0001031353,0.001580401,0,1
-0.0001582375,0.001085776,0,1
-0.0002152845,0.00071335,0,1
-0.0002844864,0.0004969927,0,1
-0.0003626019,0.0004038051,0,1
-0.0004253211,0.0003692851,0,1
-0.0004428242,0.0003412479,0,1
-0.0004005251,0.0002991108,0,1
-0.0003092824,0.0002480603,0,1
-0.0001937298,0.0001968476,0,1
-7.995997e-05,0.0001417454,0,1
3.017472e-06,7.140904e-05,0,1
2.554455e-05,-1.886135e-05,0,1
-2.7937e-05,-0.0001217728,0,1
-0.0001412206,-0.0002235498,0,1
-0.0002689281,-0.0003047445,0,1
-0.0003635742,-0.0003519055,0,1
-0.0003909633,-0.0003593606,0,1
-0.0003395886,-0.0003321336,0,1
-0.0002169052,-0.0002830278,0,1
-3.571614e-05,-0.0002318152,0,1
0.0001843686,-0.00019924,0,1
0.0004206599,-0.0001925954,0,1
0.000643986,-0.0002097743,0,1
0.0008267959,-0.000246239,0,1
0.0009431589,-0.0003037722,0,1
0.0009770306,-0.0003843186,0,1
0.0009288971,-0.0004760476,0,1
0.0008225822,-0.0005604835,0,1
0.0007015193,-0.0006188271,0,1
0.000601849,-0.0006371404,0,1
0.0005394538,-0.0006129927,0,1
0.0005041235,-0.0005612939,0,1
0.0004751139,-0.0005099192,0,1
0.0004336251,-0.0004838267,0,1
0.0003746333,-0.0004992229,0,1
0.0003026763,-0.0005598353,0,1
0.0002213195,-0.0006510781,0,1
0.0001376938,-0.0007458862,0,1
6.03886e-05,-0.0008092538,0,1
5.124321e-06,-0.0008144398,0,1
-1.67545e-05,-0.0007496137,0,1
-1.075808e-05,-0.0006165582,0,1
-2.81688e-06,-0.0004271038,0,1
-2.46957e-05,-0.0002039399,0,1
-9.762509e-05,1.954813e-05,0,1
-0.0002159328,0.0002020337,0,1
-0.0003421817,0.0003117519,0,1
-0.0004361795,0.0003326584,0,1
-0.0004766958,0.0002778803,0,1
-0.0004736166,0.0001812893,0,1
-0.0004484965,8.356394e-05,0,1
-0.0004204592,1.695509e-05,0,1
-0.0003971218,-2.81688e-06,0,1
-0.0003792946,1.9224e-05,0,1
-0.0003698948,6.444023e-05,0,1
-0.0003736223,0.0001114392,0,1
-0.0003942046,0.0001521176,0,1
-0.0004342347,0.000190365,0,1
-0.000482044,0.000235095,0,1
-0.0005222362,0.0002905214,0,1
-0.0005428185,0.0003532407,0,1
-0.0005371462,0.0004154738,0,1
-0.0005055434,0.0004592314,0,1
-0.0004506033,0.000473007,0,1
-0.000372974,0.0004504799,0,1
-0.0002771934,0.0003994293,0,1
-0.0001716889,0.000331686,0,1
-6.0188e-05,0.0002600531,0,1
5.649903e-05,0.000200413,0,1
0.0001709172,0.0001626518,0,1
0.0002681563,0.0001451488,0,1
0.0003389789,0.0001339663,0,1
0.0003882468,0.0001151667,0,1
0.0004287631,8.145709e-05,0,1
0.0004683071,3.332369e-05,0,1
0.0005018546,-2.453363e-05,0,1
0.0005266506,-8.303922e-05,0,1
0.0005464226,-0.0001311726,0,1
0.0005564707,-0.0001621271,0,1
0.0005401021,-0.0001789819,0,1
0.0004822447,-0.0001956746,0,1
0.0003882468,-0.0002191741,0,1
0.0002795009,-0.000243808,0,1
0.0001892305,-0.0002598524,0,1
0.0001402868,-0.0002598524,0,1
0.0001372076,-0.0002379736,0,1
0.0001686482,-0.0001893541,0,1
0.00021273,-0.0001165867,0,1
0.0002394708,-2.874733e-05,0,1
0.0002313675,5.763349e-05,0,1
0.0001864754,0.0001248906,0,1
0.0001163011,0.0001594105,0,1
3.721326e-05,0.0001561692,0,1
-3.539201e-05,0.0001185701,0,1
-9.535618e-05,5.94162e-05,0,1
-0.0001499722,-3.951337e-06,0,1
-0.0002152845,-5.257093e-05,0,1
-0.0003005308,-7.218083e-05,0,1
-0.0004053871,-6.861539e-05,0,1
-0.0005189948,-5.613637e-05,0,1
-0.0006283889,-4.981582e-05,0,1
-0.0007235213,-6.39155e-05,0,1
-0.0007967748,-0.000104756,0,1
-0.000837129,-0.0001624512,0,1
-0.0008374532,-0.0002217671,0,1
-0.0007914266,-0.0002707109,0,1
-0.0006938633,-0.0003073376,0,1
-0.0005570802,-0.0003227338,0,1
-0.0004083043,-0.0003003688,0,1
-0.0002788141,-0.0002225774,0,1
-0.0001955125,-8.935975e-05,0,1
-0.0001656925,7.319176e-05,0,1
-0.0001759026,0.0002196988,0,1
-0.0001925954,0.0003250413,0,1
-0.0001773612,0.0004088291,0,1
-0.0001084835,0.0005097958,0,1
5.934648e-06,0.0006371793,0,1
0.0001346145,0.0007624559,0,1
0.0002495189,0.0008486747,0,1
0.0003467581,0.000864395,0,1
0.0004414042,0.0007984344,0,1
0.0005460985,0.0006642442,0,1
0.000659058,0.0004931031,0,1
0.0007645627,0.0003141829,0,1
0.0008449472,0.0001488763,0,1
0.00089146,9.013889e-06,0,1
0.0009026425,-0.0001026491,0,1
0.0008784947,-0.0001977815,0,1
0.0008282544,-0.0002896725,0,1
0.000770397,-0.0003861013,0,1
0.0007164293,-0.0004865818,0,1
0.0006702406,-0.0005719902,0,1
0.0006264829,-0.0006144513,0,1
0.0005739738,-0.0005946793,0,1
0.0004981271,-0.000511864,0,1
0.0003913261,-0.0003786463,0,1
0.0002610255,-0.0002222533,0,1
0.0001224596,-7.623246e-05,0,1
-1.043395e-05,3.105477e-05,0,1
-0.0001340898,8.599492e-05,0,1
-0.0002520733,9.037068e-05,0,1
-0.0003681121,5.893001e-05,0,1
-0.0004726442,1.54965e-05,0,1
-0.0005501114,-1.513384e-05,0,1
-0.0005886829,-1.691656e-05,0,1
-0.0005959758,2.181705e-05,0,1
-0.0005843072,9.896015e-05,0,1
-0.0005569181,0.0001932822,0,1
-0.0005131605,0.0002788527,0,1
-0.0004480103,0.000349027,0,1
-0.0003577399,0.0004164462,0,1
-0.0002481838,0.0004892136,0,1
-0.0001350622,0.0005460985,0,1
-3.117831e-05,0.0005542018,0,1
6.071273e-05,0.0004887274,0,1
0.0001462832,0.0003577785,0,1
0.0002294227,0.0001932822,0,1
0.0003041349,3.235129e-05,0,1
0.0003636129,-0.0001020008,0,1
0.0003953777,-0.0002136638,0,1
0.0003939191,-0.0003191683,0,1
0.0003692851,-0.0004258073,0,1
0.0003409237,-0.0005288809,0,1
0.000316938,-0.0006188271,0,1
0.0002863077,-0.0006865704,0,1
0.0002321778,-0.0007337314,0,1
0.0001479039,-0.0007637134,0,1
3.818565e-05,-0.0007697099,0,1
-9.000802e-05,-0.0007337314,0,1
-0.0002344082,-0.0006272545,0,1
-0.000387722,-0.000432452,0,1
-0.0005305015,-0.0001618029,0,1
-0.0006426507,0.0001412592,0,1
-0.000707963,0.0004239012,0,1
-0.0007189835,0.0006423654,0,1
-0.0006779809,0.0007836864,0,1
-0.0006024585,0.0008590469,0,1
-0.000514295,0.0008903255,0,1
-0.0004295348,0.0008872462,0,1
-0.0003523917,0.0008553194,0,1
-0.0002771934,0.0008005413,0,1
-0.0001912988,0.0007261531,0,1
-8.838737e-05,0.0006344241,0,1
2.035846e-05,0.0005321609,0,1
0.0001154908,0.0004271425,0,1
0.0001824238,0.0003185587,0,1
0.00021273,0.0002021958,0,1
0.000202682,8.161915e-05,0,1
0.0001595726,-2.485776e-05,0,1
9.863601e-05,-0.0001015147,0,1
3.445814e-05,-0.0001438137,0,1
-2.745081e-05,-0.0001598582,0,1
-9.29252e-05,-0.0001660166,0,1
-0.0001710407,-0.0001746061,0,1
-0.0002520733,-0.0001840059,0,1
-0.0003159271,-0.0001825473,0,1
-0.0003459091,-0.0001616409,0,1
-0.0003308371,-0.0001250141,0,1
-0.0002775176,-8.547019e-05,0,1
-0.0002097743,-5.095028e-05,0,1
-0.0001558065,-1.967167e-05,0,1
-0.0001342519,7.069105e-06,0,1
-0.0001408965,2.214118e-05,0,1
-0.0001613168,1.776542e-05,0,1
-0.0001835197,-4.437533e-06,0,1
-0.0001989159,-3.279896e-05,0,1
-0.0002002124,-4.949169e-05,0,1
-0.0001909747,-4.317115e-05,0,1
-0.0001789819,-1.513384e-05,0,1
-0.0001708786,1.371378e-05,0,1
-0.000166989,2.457216e-05,0,1
-0.000159534,1.144487e-05,0,1
-0.0001417068,-1.399939e-05,0,1
-0.0001159385,-5.062615e-05,0,1
-7.963584e-05,-0.000107349,0,1
-3.328516e-05,-0.0002023193,0,1
1.484824e-05,-0.0003491504,0,1
5.471631e-05,-0.0005499493,0,1
7.870197e-05,-0.0007862405,0,1
8.534666e-05,-0.001032418,0,1
8.178122e-05,-0.001257202,0,1
7.189524e-05,-0.001433043,0,1
5.325772e-05,-0.001536765,0,1
2.278944e-05,-0.001559778,0,1
-1.578211e-05,-0.001515372,0,1
-4.770897e-05,-0.001433853,0,1
-4.932962e-05,-0.001341476,0,1
-7.192643e-06,-0.00124213,0,1
6.606088e-05,-0.001114261,0,1
0.0001461212,-0.0009337199,0,1
0.0002158093,-0.0006961322,0,1
0.0002707494,-0.0004194868,0,1
0.0003182346,-0.0001152902,0,1
0.000361506,0.0002269918,0,1
0.0003910019,0.0006285898,0,1
0.0003908399,0.001097607,0,1
0.0003449753,0.001588666,0,1
0.0002543808,0.002009065,0,1
0.0001365593,0.002249571,0,1
2.424803e-05,0.002249733,0,1
-5.872941e-05,0.002030944,0,1
-0.0001101041,0.001685095,0,1
-0.0001483515,0.001321096,0,1
-0.0001938919,0.001019978,0,1
-0.0002549905,0.0008107513,0,1
-0.0003220855,0.0006833679,0,1
-0.0003779981,0.0006122212,0,1
-0.00041268,0.0005755944,0,1
-0.0004326141,0.00055955,0,1
-0.0004525481,0.0005601982,0,1
-0.000482044,0.0005694359,0,1
-0.0005196431,0.0005702463,0,1
-0.0005463839,0.0005371849,0,1
-0.0005434667,0.0004464283,0,1
-0.0005057055,0.0002979764,0,1
-0.0004402311,0.0001182459,0,1
-0.000360495,-5.289507e-05,0,1
-0.0002669833,-0.0001823853,0,1
-0.0001436516,-0.0002583939,0,1
1.9224e-05,-0.0002922655,0,1
0.0002054371,-0.0003136581,0,1
0.0003859779,-0.0003476919,0,1
0.0005415607,-0.0004008493,0,1
0.0006715371,-0.000459679,0,1
0.0007807693,-0.000501978,0,1
0.0008601813,-0.0005151053,0,1
0.0009068561,-0.0005039228,0,1
0.0009310039,-0.0004854474,0,1
0.0009512621,-0.0004731304,0,1
0.000975734,-0.0004775062,0,1
0.0009972887,-0.0004943609,0,1
0.001000692,-0.000509595,0,1
0.0009677928,-0.0005105674,0,1
0.0008924323,-0.0004917679,0,1
0.0007810934,-0.0004570859,0,1
0.0006371793,-0.0004191627,0,1
0.0004678209,-0.0003880461,0,1
0.000292142,-0.0003645466,0,1
0.0001362352,-0.0003418575,0,1
2.878586e-05,-0.0003117133,0,1
-2.307504e-05,-0.000273628,0,1
-3.425755e-05,-0.0002277635,0,1
-2.971972e-05,-0.0001733096,0,1
-2.712668e-05,-0.0001079973,0,1
-2.356124e-05,-3.652646e-05,0,1
-8.975362e-06,2.667901e-05,0,1
2.910999e-05,6.217132e-05,0,1
9.296373e-05,5.893001e-05,0,1
0.0001767515,1.711715e-05,0,1
0.0002728562,-5.013995e-05,0,1
0.0003720403,-0.0001229073,0,1
0.0004702519,-0.000184168,0,1
0.00055955,-0.0002193361,0,1
0.0006339379,-0.0002241981,0,1
0.0006898505,-0.000196647,0,1
0.000720643,-0.0001357104,0,1
0.0007146465,-4.511593e-05,0,1
0.0006516031,6.492643e-05,0,1
0.0005255162,0.0001882582,0,1
0.0003597233,0.0003368721,0,1
0.0001936063,0.0005285954,0,1
5.228533e-05,0.0007645627,0,1
-5.970181e-05,0.001009444,0,1
-0.0001507825,0.001199222,0,1
-0.0002340841,0.001280903,0,1
-0.0003146305,0.001243304,0,1
-0.0003805911,0.001110248,0,1
-0.0004086284,0.0009232248,0,1
-0.000382698,0.0007196706,0,1
-0.0003154408,0.0005195198,0,1
-0.0002480217,0.0003266619,0,1
-0.0002267911,0.0001396385,0,1
-0.0002771934,-4.544006e-05,0,1
-0.0003817256,-0.0002259808,0,1
-0.0004907955,-0.000400039,0,1
-0.0005674524,-0.0005625904,0,1
-0.0006044033,-0.0007042355,0,1
-0.0006146134,-0.0008128192,0,1
-0.000613641,-0.0008802384,0,1
-0.0006108859,-0.0009064929,0,1
-0.0006178547,-0.0008970932,0,1
-0.0006486471,-0.0008635456,0,1
-0.000712987,-0.0008168708,0,1
-0.0008110365,-0.0007629031,0,1
-0.0009332337,-0.0007021286,0,1
-0.001057538,-0.0006272545,0,1
-0.001152994,-0.000514457,0,1
-0.00118638,-0.0003391024,0,1
-0.001137436,-9.000802e-05,0,1
-0.0009967634,0.0002146748,0,1
-0.0007797579,0.0005263265,0,1
-0.0005246671,0.000777528,0,1
-0.0002765452,0.000908801,0,1
-6.942573e-05,0.000893891,0,1
8.518459e-05,0.0007593766,0,1
0.0001820997,0.0005655463,0,1
0.000220185,0.0003731747,0,1
0.0002047888,0.0002258573,0,1
0.0001480659,0.0001367214,0,1
6.865393e-05,9.377406e-05,0,1
-1.950961e-05,7.124698e-05,0,1
-0.0001010285,4.483033e-05,0,1
-0.0001642339,1.234753e-06,0,1
-0.0002011848,-5.759496e-05,0,1
-0.0002100984,-0.0001238797,0,1
-0.0001912988,-0.0001875713,0,1
-0.0001455964,-0.0002391081,0,1
-8.676672e-05,-0.0002720074,0,1
-3.490581e-05,-0.0002815692,0,1
-6.058186e-06,-0.0002639041,0,1
-1.043395e-05,-0.0002245222,0,1
-5.370539e-05,-0.0001760647,0,1
-0.0001238797,-0.0001314967,0,1
-0.0001985918,-0.0001008664,0,1
-0.0002549905,-8.239095e-05,0,1
-0.0002724935,-6.359137e-05,0,1
-0.0002399184,-3.117831e-05,0,1
-0.0001514308,1.630683e-05,0,1
-1.480971e-05,7.221937e-05,0,1
0.0001419075,0.0001197045,0,1
0.0002812837,0.0001422316,0,1
0.0003798194,0.0001295905,0,1
0.0004375147,8.712937e-05,0,1
0.0004676588,3.105477e-05,0,1
0.0004862963,-1.821308e-05,0,1
0.0005089855,-5.062615e-05,0,1
0.0005535535,-6.132246e-05,0,1
0.0006336138,-4.365734e-05,0,1
0.0007488423,2.531276e-06,0,1
0.0008739569,6.606088e-05,0,1
0.0009697376,0.0001235941,0,1
0.001008147,0.0001464453,0,1
0.0009930751,0.000123432,0,1
0.0009545035,6.800567e-05,0,1
0.0009282488,6.744974e-06,0,1
0.0009282488,-4.187462e-05,0,1
0.0009381349,-7.428769e-05,0,1
0.0009345694,-9.973194e-05,0,1
0.0009010218,-0.0001323071,0,1
0.000832306,-0.0001775233,0,1
0.0007315014,-0.0002323013,0,1
0.0006153004,-0.0002843243,0,1
0.0004976409,-0.0003203028,0,1
0.0003948915,-0.0003334301,0,1
0.0003240689,-0.0003230579,0,1
0.0002861456,-0.0002950206,0,1
0.0002691288,-0.0002561249,0,1
0.0002490327,-0.000211557,0,1
0.0001992786,-0.0001666649,0,1
0.0001073875,-0.0001206384,0,1
-1.805102e-05,-6.472583e-05,0,1
-0.0001499722,1.290346e-05,0,1
-0.000261311,0.0001239182,0,1
-0.0003371576,0.000267184,0,1
-0.0003825359,0.0004287631,0,1
-0.0004060354,0.0005841838,0,1
-0.0004117076,0.0007000606,0,1
-0.000400039,0.0007402529,0,1
-0.0003799429,0.0006872575,0,1
-0.0003716775,0.0005499881,0,1
-0.0003906392,0.0003592371,0,1
-0.0004347209,0.0001598967,0,1
-0.0004880404,9.106227e-07,0,1
-0.0005326084,-8.044617e-05,0,1
-0.0005543251,-7.688073e-05,0,1
-0.0005575664,-5.734056e-06,0,1
-0.0005599973,0.0001054428,0,1
-0.0005731247,0.0002307193,0,1
-0.0005930586,0.0003485408,0,1
-0.0006095894,0.0004380009,0,1
-0.0006194753,0.0004744656,0,1
-0.0006275786,0.0004425387,0,1
-0.0006303337,0.0003451374,0,1
-0.0006228787,0.0002049509,0,1
-0.0005954896,5.131294e-05,0,1
-0.0005413599,-9.227693e-05,0,1
-0.0004585445,-0.0002199844,0,1
-0.0003577399,-0.0003340784,0,1
-0.0002593663,-0.000435045,0,1
-0.0001815749,-0.0005188328,0,1
-0.0001383035,-0.0005859278,0,1
-0.0001360346,-0.0006416783,0,1
-0.0001687718,-0.000688029,0,1
-0.0002112329,-0.0007209282,0,1
-0.0002394322,-0.0007319486,0,1
-0.0002452666,-0.0007217386,0,1
-0.0002344082,-0.0006977529,0,1
-0.0002092881,-0.0006669604,0,1
-0.000166989,-0.0006241752,0,1
-0.0001045939,-0.0005505976,0,1
-2.09682e-05,-0.0004178661,0,1
8.113296e-05,-0.0002018331,0,1
0.0001944166,9.16672e-05,0,1
0.0003114278,0.0004112601,0,1
0.0004170944,0.0006833679,0,1
0.0004921307,0.0008434886,0,1
0.0005198439,0.0008579124,0,1
0.0004937514,0.0007368495,0,1
0.0004175806,0.0005282713,0,1
0.0003111037,0.0002989488,0,1
0.0001919856,0.0001080358,0,1
8.016057e-05,-1.221667e-05,0,1
-8.002969e-06,-6.116039e-05,0,1
-5.921561e-05,-5.338126e-05,0,1
-7.509801e-05,1.558884e-06,0,1
-6.893953e-05,9.21534e-05,0,1
-5.257093e-05,0.0002000889,0,1
-3.085418e-05,0.0003002453,0,1
-6.544382e-06,0.0003700955,0,1
2.197911e-05,0.0003957018,0,1
5.536457e-05,0.0003736609,0,1
8.988449e-05,0.0003117519,0,1
0.0001156529,0.0002287745,0,1
0.0001257009,0.0001493625,0,1
0.0001179218,9.63671e-05,0,1
9.63671e-05,8.080883e-05,0,1
6.444023e-05,9.507057e-05,0,1
1.906194e-05,0.0001153287,0,1
-4.738484e-05,0.0001093323,0,1
-0.0001298761,5.779555e-05,0,1
-0.000199078,-3.717473e-05,0,1
-0.0002222533,-0.0001559686,0,1
-0.000181737,-0.0002823795,0,1
-8.984595e-05,-0.0004130042,0,1
1.663096e-05,-0.000544277,0,1
0.0001002567,-0.0006706879,0,1
0.0001346145,-0.0007740856,0,1
0.0001156529,-0.000832267,0,1
6.03886e-05,-0.0008295119,0,1
-1.682422e-06,-0.0007585274,0,1
-3.749886e-05,-0.0006266062,0,1
-3.360929e-05,-0.0004506033,0,1
-6.544382e-06,-0.0002556388,0,1
9.338019e-06,-6.472583e-05,0,1
-1.869928e-05,9.879808e-05,0,1
-0.0001032974,0.0002187264,0,1
-0.0002261429,0.0002901973,0,1
-0.0003470436,0.0003112658,0,1
-0.0004332623,0.0002817699,0,1
-0.0004698891,0.0002107852,0,1
-0.0004604893,0.0001174356,0,1
-0.0004177041,3.267542e-05,0,1
-0.000360333,-1.3027e-05,0,1
-0.0003068514,-5.734056e-06,0,1
-0.000271197,5.098881e-05,0,1
-0.0002593663,0.0001388282,0,1
-0.0002723315,0.0002323399,0,1
-0.0003079858,0.0003081865,0,1
-0.0003619536,0.0003511338,0,1
-0.0004193247,0.0003581026,0,1
-0.0004574101,0.000341572,0,1
-0.0004564377,0.0003195311,0,1
-0.0004074939,0.0003060797,0,1
-0.0003203028,0.0002952213,0,1
-0.0002131776,0.0002769079,0,1
-0.0001054042,0.0002560015,0,1
-4.923729e-06,0.0002444948,0,1
9.507057e-05,0.0002538946,0,1
0.0002091646,0.0002801492,0,1
0.0003470822,0.0003000832,0,1
0.0005000719,0.0002827423,0,1
0.0006460929,0.0002174299,0,1
0.0007622938,0.0001174356,0,1
0.0008348991,7.069105e-06,0,1
0.0008677984,-9.065628e-05,0,1
0.0008728224,-0.0001606685,0,1
0.0008639088,-0.0001969711,0,1
0.0008498091,-0.0001985918,0,1
0.0008332785,-0.0001715269,0,1
0.0008109135,-0.0001290658,0,1
0.000780121,-9.130454e-05,0,1
0.0007418735,-7.671866e-05,0,1
0.0006973055,-9.551824e-05,0,1
0.0006530617,-0.0001511067,0,1
0.0006065489,-0.0002483458,0,1
0.0005436675,-0.0003875599,0,1
0.0004474007,-0.0005559457,0,1
0.0003089969,-0.0007173628,0,1
0.0001367214,-0.0008244879,0,1
-4.090223e-05,-0.0008449082,0,1
-0.0001893541,-0.000780082,0,1
-0.0002849726,-0.0006577228,0,1
-0.0003151167,-0.0005159156,0,1
-0.0002804347,-0.0003836704,0,1
-0.0002011848,-0.0002789762,0,1
-0.0001020008,-0.0002053985,0,1
-1.520357e-06,-0.0001504584,0,1
8.210535e-05,-9.486997e-05,0,1
0.0001326697,-2.291298e-05,0,1
0.000145797,7.108491e-05,0,1
0.0001326697,0.0001812893,0,1
0.0001171115,0.0002854973,0,1
0.0001232699,0.0003605336,0,1
0.0001624898,0.0003947294,0,1
0.0002286124,0.0003966742,0,1
0.0002952213,0.0003850055,0,1
0.0003320101,0.0003744712,0,1
0.0003120761,0.0003728506,0,1
0.0002313675,0.0003835469,0,1
0.000108522,0.0004038051,0,1
-2.615429e-05,0.0004250357,0,1
-0.0001481895,0.0004422146,0,1
-0.0002431597,0.0004564763,0,1
-0.0003049066,0.0004699278,0,1
-0.0003384541,0.000482893,0,1
-0.0003523917,0.0004908342,0,1
-0.0003553089,0.000485486,0,1
-0.0003548227,0.0004572867,0,1
-0.000358064,0.0004075326,0,1
-0.0003681121,0.0003459477,0,1
-0.0003831841,0.0002892249,0,1
-0.0004034423,0.0002477361,0,1
-0.0004228902,0.0002185644,0,1
-0.0004347209,0.0001900409,0,1
-0.0004245108,0.0001543865,0,1
-0.0003723258,0.0001177597,0,1
-0.0002603387,9.296373e-05,0,1
-8.660465e-05,8.453633e-05,0,1
0.0001188942,8.79397e-05,0,1
0.0003030004,9.004655e-05,0,1
0.0004143393,8.194328e-05,0,1
0.0004245494,6.119892e-05,0,1
0.0003396272,3.073064e-05,0,1
0.000200413,-2.492749e-06,0,1
6.492643e-05,-2.874733e-05,0,1
-2.015787e-05,-3.506788e-05,0,1
-4.398147e-05,-1.20546e-05,0,1
-2.680255e-05,4.288554e-05,0,1
3.503668e-06,0.000128294,0,1
2.376183e-05,0.0002417397,0,1
1.906194e-05,0.0003694472,0,1
-9.947754e-06,0.0004806241,0,1
-5.710876e-05,0.0005394538,0,1
-0.0001081593,0.0005243817,0,1
-0.000147055,0.0004336251,0,1
-0.0001567789,0.0002867939,0,1
-0.0001391138,0.0001148425,0,1
-0.0001144799,-4.835724e-05,0,1
-0.0001055663,-0.0001814128,0,1
-0.0001261486,-0.0002836761,0,1
-0.0001810887,-0.0003650328,0,1
-0.0002572594,-0.0004340726,0,1
-0.0003316474,-0.0004933886,0,1
-0.000387722,-0.0005429805,0,1
-0.0004269418,-0.0005781487,0,1
-0.0004635685,-0.0005971103,0,1
-0.0005058676,-0.0006082929,0,1
-0.0005481666,-0.0006194753,0,1
-0.0005723144,-0.0006314681,0,1
-0.0005611319,-0.0006379507,0,1
-0.0005060296,-0.0006326026,0,1
-0.0004136524,-0.0006176926,0,1
-0.0003044204,-0.0006014861,0,1
-0.000206695,-0.0005846313,0,1
-0.0001363587,-0.0005651835,0,1
-9.600444e-05,-0.0005410357,0,1
-7.882551e-05,-0.0005154294,0,1
-8.514606e-05,-0.0004967919,0,1
-0.0001180453,-0.0004922541,0,1
-0.000171851,-0.0004993849,0,1
-0.0002259808,-0.0005073262,0,1
-0.0002603387,-0.0004998712,0,1
-0.0002674695,-0.0004619479,0,1
-0.000251101,-0.0003899909,0,1
-0.0002173914,-0.0002903207,0,1
-0.0001703924,-0.0001778474,0,1
-0.00010978,-6.991193e-05,0,1
-3.733679e-05,2.197911e-05,0,1
4.904402e-05,9.944634e-05,0,1
0.0001451488,0.0001736723,0,1
0.0002380122,0.0002569738,0,1
0.0003179104,0.0003628026,0,1
0.0003780367,0.0005018546,0,1
0.0004156358,0.0006843403,0,1
0.0004354078,0.0009028045,0,1
0.0004493454,0.001129534,0,1
0.0004676588,0.001329685,0,1
0.0005020167,0.001475706,0,1
0.0005660325,0.001547015,0,1
0.0006619753,0.001536805,0,1
0.0007736384,0.001447021,0,1
0.0008778464,0.001281714,0,1
0.0009543414,0.001046557,0,1
0.0009820546,0.0007546768,0,1
0.000958231,0.000435732,0,1
0.0008896773,0.00013818,0,1
0.0007780141,-9.373552e-05,0,1
0.0006164349,-0.000241377,0,1
0.0003960259,-0.0003144685,0,1
0.000123432,-0.0003483401,0,1
-0.000166827,-0.0003875599,0,1
-0.0004279142,-0.0004630823,0,1
-0.0006264441,-0.0005817142,0,1
-0.0007471828,-0.0007210903,0,1
-0.000787375,-0.0008410186,0,1
-0.000757555,-0.0009001724,0,1
-0.0006826808,-0.0008719731,0,1
-0.0005932208,-0.0007471828,0,1
-0.0005068399,-0.0005238568,0,1
-0.0004191627,-0.0002052365,0,1
-0.0003100927,0.0001957132,0,1
-0.0001677994,0.0006294001,0,1
8.203562e-06,0.001004582,0,1
0.0001947408,0.001217374,0,1
0.0003589129,0.001196953,0,1
0.0004718725,0.0009561241,0,1
0.0005206542,0.000589532,0,1
0.0005097958,0.0002261814,0,1
0.0004598797,-2.777494e-05,0,1
0.000388733,-0.0001266348,0,1
0.000309483,-9.308726e-05,0,1
0.0002294227,2.693341e-06,0,1
0.0001569795,8.550872e-05,0,1
9.993253e-05,0.0001091703,0,1
6.751948e-05,6.962632e-05,0,1
5.666109e-05,-1.140634e-05,0,1
5.050261e-05,-0.0001057284,0,1
2.992031e-05,-0.0001948643,0,1
-9.623623e-06,-0.0002747625,0,1
-5.775702e-05,-0.0003460712,0,1
-9.827335e-05,-0.000410249,0,1
-0.0001201522,-0.0004655133,0,1
-0.000122259,-0.000509433,0,1
-0.0001112386,-0.0005360117,0,1
-9.081835e-05,-0.0005400634,0,1
-6.81292e-05,-0.0005277464,0,1
-5.565017e-05,-0.0005146191,0,1
-6.699475e-05,-0.0005104054,0,1
-0.0001102662,-0.0005173742,0,1
-0.0001854645,-0.0005399013,0,1
-0.0002818933,-0.0005770142,0,1
-0.0003710293,-0.0006141272,0,1
-0.0004180282,-0.0006309819,0,1
-0.0004024699,-0.0006168823,0,1
-0.0003246786,-0.0005724764,0,1
-0.0002029675,-0.0005136467,0,1
-7.007399e-05,-0.0004565997,0,1
3.478228e-05,-0.0004091146,0,1
8.907416e-05,-0.0003708672,0,1
9.490851e-05,-0.0003444506,0,1
7.124698e-05,-0.0003285682,0,1
3.056858e-05,-0.0003154408,0,1
-2.113026e-05,-0.0002888622,0,1
-8.336335e-05,-0.0002334358,0,1
-0.0001473791,-0.0001501342,0,1
-0.0002053985,-5.111234e-05,0,1
-0.0002564491,5.244739e-05,0,1
-0.0002961551,0.0001539003,0,1
-0.0003211132,0.0002483844,0,1
-0.0003261372,0.0003464339,0,1
-0.0003055549,0.000462959,0,1
-0.0002535319,0.0006033076,0,1
-0.0001682856,0.000755325,0,1
-5.565017e-05,0.0008924323,0,1
6.78436e-05,0.0009758961,0,1
0.0001830721,0.0009698996,0,1
0.000272208,0.0008587227,0,1
0.0003230965,0.0006585719,0,1
0.0003326584,0.0004104497,0,1
0.0003127243,0.0001678379,0,1
0.0002807975,-2.064406e-05,0,1
0.0002480603,-0.0001289037,0,1
0.0002224539,-0.0001502963,0,1
0.0002122438,-8.530812e-05,0,1
0.0002158093,6.41161e-05,0,1
0.0002109473,0.0002782044,0,1
0.0001741585,0.0005067165,0,1
9.442231e-05,0.000681099,0,1
-1.772689e-05,0.0007384702,0,1
-0.0001319829,0.0006496583,0,1
-0.0002156086,0.0004344354,0,1
-0.0002472114,0.0001461212,0,1
-0.0002254946,-0.000152079,0,1
-0.00016942,-0.0004086284,0,1
-0.0001060525,-0.0005959758,0,1
-5.808115e-05,-0.0007043975,0,1
-3.555408e-05,-0.0007332452,0,1
-2.550602e-05,-0.0006935392,0,1
-1.318906e-05,-0.0006089411,0,1
8.041497e-06,-0.0005128364,0,1
2.554455e-05,-0.0004382863,0,1
2.846173e-05,-0.0004044147,0,1
1.841368e-05,-0.0004120317,0,1
9.824215e-06,-0.0004506033,0,1
2.327564e-05,-0.0005005194,0,1
7.027458e-05,-0.0005386047,0,1
0.0001449867,-0.0005512458,0,1
0.0002198609,-0.0005353634,0,1
0.0002608634,-0.0004988988,0,1
0.0002386605,-0.000452224,0,1
0.0001472556,-0.0004047388,0,1
8.689758e-06,-0.0003635742,0,1
-0.0001319829,-0.0003266234,0,1
-0.0002276015,-0.0002838381,0,1
-0.0002596904,-0.0002335979,0,1
-0.0002446183,-0.000184168,0,1
-0.0002156086,-0.000142031,0,1
-0.0002021572,-0.0001045939,0,1
-0.0002177155,-6.359137e-05,0,1
-0.0002592042,-1.3027e-05,0,1
-0.000313334,4.320967e-05,0,1
-0.0003574158,9.701536e-05,0,1
-0.0003668155,0.0001414213,0,1
-0.0003204649,0.0001731861,0,1
-0.0002250084,0.0001957132,0,1
-0.0001125351,0.0002145127,0,1
-1.691656e-05,0.0002393087,0,1
4.094075e-05,0.0002712356,0,1
5.682316e-05,0.0003051073,0,1
4.35338e-05,0.0003350894,0,1
2.441009e-05,0.0003483787,0,1
2.797553e-05,0.0003326584,0,1
7.416415e-05,0.0002867939,0,1
0.0001665414,0.0002268297,0,1
0.0002916559,0.0001769136,0,1
0.0004326527,0.0001493625,0,1
0.0005663567,0.000140773,0,1
0.0006621373,0.000143204,0,1
0.000688554,0.0001517934,0,1
0.0006251864,0.0001642725,0,1
0.0004747897,0.0001725378,0,1
0.0002634565,0.0001697827,0,1
2.76514e-05,0.000153252,0,1
-0.0001904885,0.000128456,0,1
-0.0003557951,0.0001004187,0,1
-0.0004454172,7.918817e-05,0,1
-0.0004496309,7.67572e-05,0,1
-0.0003744326,9.328786e-05,0,1
-0.0002447804,0.0001174356,0,1
-9.341139e-05,0.0001389903,0,1
5.163707e-05,0.0001540623,0,1
0.0001715654,0.0001702689,0,1
0.0002589186,0.0002067336,0,1
0.0003183966,0.0002903593,0,1
0.0003551855,0.0004355699,0,1
0.0003734989,0.0006308587,0,1
0.0003756057,0.0008316578,0,1
0.0003611819,0.0009822167,0,1
0.0003266619,0.001032457,0,1
0.0002762596,0.000965848,0,1
0.0002213195,0.0008054032,0,1
0.000177886,0.0006076833,0,1
0.0001466074,0.0004360561,0,1
0.0001130598,0.0003230965,0,1
5.99024e-05,0.0002658874,0,1
-1.416145e-05,0.0002470879,0,1
-9.2439e-05,0.0002504913,0,1
-0.0001535376,0.0002686426,0,1
-0.0001895161,0.0003051073,0,1
-0.0002049123,0.0003686369,0,1
-0.0002117191,0.0004551798,0,1
-0.0002126914,0.0005420469,0,1
-0.0002037779,0.0006031455,0,1
-0.0001861127,0.0006238899,0,1
-0.0001671511,0.0006007145,0,1
-0.0001546721,0.0005379952,0,1
-0.0001455964,0.0004402698,0,1
-0.0001232314,0.0003182346,0,1
-6.553616e-05,0.000185341,0,1
4.207521e-05,5.471631e-05,0,1
0.0001897167,-7.023606e-05,0,1
0.0003459477,-0.0001938919,0,1
0.0004626348,-0.0003251648,0,1
0.0004974789,-0.0004648651,0,1
0.0004326527,-0.0006078067,0,1
0.0002757735,-0.0007413484,0,1
5.423012e-05,-0.0008479874,0,1
-0.0001893541,-0.0009100584,0,1
-0.0004107352,-0.0009157307,0,1
-0.0005708557,-0.0008692179,0,1
-0.0006536711,-0.0007826751,0,1
-0.0006617744,-0.0006799257,0,1
-0.0006084549,-0.0005833348,0,1
-0.0005131605,-0.0005035987,0,1
-0.0003971218,-0.0004518998,0,1
-0.0002817312,-0.0004384484,0,1
-0.0001900023,-0.0004731304,0,1
-0.0001488377,-0.0005621043,0,1
-0.0001806025,-0.0007029389,0,1
-0.0002891863,-0.0008784557,0,1
-0.0004536825,-0.001051379,0,1
-0.0006306578,-0.001182328,0,1
-0.0007805682,-0.001247965,0,1
-0.000874242,-0.00124764,0,1
-0.0009040619,-0.001195942,0,1
-0.0008714869,-0.001115071,0,1
-0.000787537,-0.001016859,0,1
-0.0006753879,-0.0009079515,0,1
-0.0005588629,-0.0007864026,0,1
-0.0004570859,-0.0006497815,0,1
-0.0003747568,-0.0004974402,0,1
-0.0003040963,-0.0003347266,0,1
-0.0002301945,-0.0001739578,0,1
-0.0001400862,-3.247483e-05,0,1
-3.101625e-05,7.983644e-05,0,1
9.134307e-05,0.0001633001,0,1
0.0002180782,0.0002281262,0,1
0.0003448133,0.0002981384,0,1
0.0004615004,0.000396188,0,1
0.00055485,0.0005282713,0,1
0.0006063868,0.0006705648,0,1
0.000606873,0.0007833623,0,1
0.0005717048,0.0008331164,0,1
0.0005391297,0.0008052412,0,1
0.0005469088,0.0007144845,0,1
0.000609304,0.0005922872,0,1
0.0007081639,0.0004783552,0,1
0.0007985964,0.0004023465,0,1
0.0008442989,0.0003712299,0,1
0.000837168,0.0003770643,0,1
0.0007956792,0.0004072085,0,1
0.0007433321,0.0004483731,0,1
0.0007021675,0.0004947237,0,1
0.0006869333,0.0005482053,0,1
0.0007075156,0.0006089798,0,1
0.0007682902,0.0006707268,0,1
0.0008524022,0.0007238843,0,1
0.000926142,0.0007556491,0,1
0.0009595275,0.000753056,0,1
0.0009319764,0.0007130259,0,1
0.000851916,0.0006550064,0,1
0.0007438183,0.0006088178,0,1
0.0006300483,0.0005942319,0,1
0.000517575,0.0006101143,0,1
0.0004018603,0.0006371793,0,1
0.0002701012,0.0006483617,0,1
0.0001163011,0.0006214589,0,1
-5.257093e-05,0.0005501501,0,1
-0.0002088019,0.0004461041,0,1
-0.0003164132,0.0003331446,0,1
-0.0003533641,0.0002381743,0,1
-0.0003327818,0.000178048,0,1
-0.0002997205,0.0001551968,0,1
-0.0002982619,0.0001571416,0,1
-0.0003476919,0.0001647587,0,1
-0.0004345588,0.0001595726,0,1
-0.0005301774,0.0001310491,0,1
-0.0006074825,7.497447e-05,0,1
-0.000643299,-6.220252e-06,0,1
-0.000623689,-0.0001032974,0,1
-0.0005489769,-0.0002008607,0,1
-0.0004352071,-0.0002882139,0,1
-0.0003168994,-0.0003635742,0,1
-0.0002318152,-0.0004360174,0,1
-0.000204102,-0.000511864,0,1
-0.0002418632,-0.0005825245,0,1
-0.0003326198,-0.0006314681,0,1
-0.000439907,-0.0006426507,0,1
-0.0005207775,-0.0006159099,0,1
-0.0005397392,-0.0005642111,0,1
-0.000487068,-0.0005131605,0,1
-0.0003815635,-0.0004867439,0,1
-0.000261311,-0.0004929024,0,1
-0.0001724993,-0.0005254775,0,1
-0.0001459206,-0.0005716661,0,1
-0.0001849783,-0.0006116962,0,1
-0.0002695764,-0.0006313061,0,1
-0.0003673017,-0.0006296854,0,1
-0.0004528722,-0.0006134789,0,1
-0.0005146191,-0.0005873864,0,1
-0.0005557837,-0.0005535148,0,1
-0.0005817142,-0.000514295,0,1
-0.0005971103,-0.0004728062,0,1
-0.0005964621,-0.0004345588,0,1
-0.0005718282,-0.0004010113,0,1
-0.0005214258,-0.0003694086,0,1
-0.000452386,-0.0003399127,0,1
-0.0003762153,-0.0003096065,0,1
-0.0003021515,-0.0002733039,0,1
-0.0002297083,-0.0002261429,0,1
-0.000156941,-0.000159534,0,1
-9.017008e-05,-6.116039e-05,0,1
-3.604027e-05,6.897806e-05,0,1
-1.682422e-06,0.0002148369,0,1
1.841368e-05,0.0003431926,0,1
3.13789e-05,0.0004211461,0,1
4.580272e-05,0.0004362182,0,1
6.541262e-05,0.0003987811,0,1
8.956036e-05,0.0003303894,0,1
0.0001086841,0.000254867,0,1
0.0001141943,0.0001919856,0,1
9.912221e-05,0.0001542244,0,1
6.622294e-05,0.0001438522,0,1
2.927205e-05,0.000160545,0,1
1.095867e-05,0.0002021958,0,1
2.570662e-05,0.0002603772,0,1
6.946425e-05,0.0003120761,0,1
0.0001252147,0.0003376824,0,1
0.0001712413,0.0003324963,0,1
0.0001968476,0.0003030004,0,1
0.0001991165,0.0002607014,0,1
0.0001749688,0.0002169437,0,1
0.0001281319,0.0001830721,0,1
7.076078e-05,0.0001692965,0,1
1.987227e-05,0.0001751309,0,1
-2.291298e-05,0.0001910133,0,1
-6.278104e-05,0.0001997648,0,1
-9.892161e-05,0.0001872858,0,1
-0.0001258245,0.0001511452,0,1
-0.0001349001,9.798775e-05,0,1
-0.0001170729,3.656499e-05,0,1
-6.845333e-05,-2.631635e-05,0,1
7.393236e-06,-7.266703e-05,0,1
0.0001086841,-8.255302e-05,0,1
0.0002323399,-4.511593e-05,0,1
0.000366368,3.462021e-05,0,1
0.0004929411,0.0001279698,0,1
0.0005940699,0.0002086784,0,1
0.0006546823,0.0002636185,0,1
0.0006692683,0.0002897111,0,1
0.0006469032,0.0002812837,0,1
0.0006115729,0.0002388225,0,1
0.0005913147,0.0001746447,0,1
0.0006084936,0.0001145184,0,1
0.0006679717,9.26396e-05,0,1
0.000755325,0.0001445005,0,1
0.0008470541,0.0002788527,0,1
0.0009190111,0.0004618245,0,1
0.000953369,0.0006417171,0,1
0.0009425106,0.0007739625,0,1
0.0008851394,0.0008238787,0,1
0.0007786624,0.0007715315,0,1
0.0006198382,0.0006188659,0,1
0.0004119083,0.0003846814,0,1
0.0001710792,0.0001077117,0,1
-7.542214e-05,-0.0001695821,0,1
-0.0002934,-0.0004139766,0,1
-0.0004544929,-0.000606186,0,1
-0.0005509217,-0.0007468587,0,1
-0.0005980827,-0.0008458805,0,1
-0.0006199615,-0.0009157307,0,1
-0.0006394094,-0.0009648365,0,1
-0.0006692294,-0.000995953,0,1
-0.0006962943,-0.001008432,0,1
-0.0006898117,-0.0009972495,0,1
-0.0006176926,-0.0009590021,0,1
-0.0004679443,-0.0008876934,0,1
-0.0002639041,-0.0007735994,0,1
-5.516398e-05,-0.0006097514,0,1
0.0001096565,-0.0004057112,0,1
0.0002080301,-0.000184168,0,1
0.0002506533,2.165498e-05,0,1
0.0002618358,0.0001769136,0,1
0.0002527602,0.0002629703,0,1
0.0002281262,0.0002859836,0,1
0.000187934,0.0002675081,0,1
0.000133318,0.0002289366,0,1
7.027458e-05,0.0001817755,0,1
2.623614e-07,0.0001329939,0,1
-7.218083e-05,8.939829e-05,0,1
-0.0001274451,6.281957e-05,0,1
-0.0001464067,6.800567e-05,0,1
-0.000122259,0.0001081979,0,1
-5.921561e-05,0.0001786963,0,1
4.126489e-05,0.0002739907,0,1
0.000173024,0.0003856538,0,1
0.0003196932,0.0005033132,0,1
0.0004572867,0.0006133557,0,1
0.0005582534,0.000693416,0,1
0.0006023352,0.000715619,0,1
0.000579484,0.0006657028,0,1
0.0004874308,0.0005496639,0,1
0.0003384927,0.0003953777,0,1
0.0001595726,0.0002386605,0,1
-8.327101e-06,0.0001030118,0,1
-0.0001264727,-8.720959e-07,0,1
-0.0001731475,-7.282909e-05,0,1
-0.0001574272,-0.0001212866,0,1
-0.0001107524,-0.0001554824,0,1
-7.461182e-05,-0.0001784957,0,1
-7.542214e-05,-0.0001932436,0,1
-0.0001042698,-0.000199078,0,1
-0.0001384655,-0.0001979435,0,1
-0.0001592099,-0.0001974573,0,1
-0.0001588858,-0.0001955125,0,1
-0.0001464067,-0.0001882196,0,1
-0.0001430034,-0.0001674752,0,1
-0.0001622891,-0.0001358725,0,1
-0.0002024813,-0.0001070249,0,1
-0.0002525595,-9.568031e-05,0,1
-0.0003018274,-0.0001083214,0,1
-0.0003365093,-0.0001319829,0,1
-0.0003421817,-0.0001360346,0,1
-0.000313334,-8.741498e-05,0,1
-0.0002626076,2.116879e-05,0,1
-0.0002110708,0.0001647587,0,1
-0.0001877334,0.0003036487,0,1
-0.0002084778,0.0004021844,0,1
-0.0002664971,0.0004456179,0,1
-0.00033813,0.0004324906,0,1
-0.0003984183,0.0003718782,0,1
-0.0004264556,0.0002853353,0,1
-0.0004105732,0.0001945787,0,1
-0.0003522297,0.0001150046,0,1
-0.0002622834,4.969229e-05,0,1
-0.0001459206,-2.168618e-06,0,1
-7.354709e-06,-3.911951e-05,0,1
0.0001386662,-6.035007e-05,0,1
0.0002600531,-6.861539e-05,0,1
0.000321638,-6.91016e-05,0,1
0.0003012177,-7.007399e-05,0,1
0.0002010613,-7.850138e-05,0,1
4.969229e-05,-0.0001075111,0,1
-0.000114804,-0.0001695821,0,1
-0.0002574215,-0.0002640662,0,1
-0.000362926,-0.0003767015,0,1
-0.0004314796,-0.0004869059,0,1
-0.00047232,-0.0005700454,0,1
-0.0004927403,-0.0006102377,0,1
-0.0004912817,-0.0006047274,0,1
-0.0004651892,-0.0005646973,0,1
-0.0004190006,-0.0005048952,0,1
-0.0003616295,-0.0004358554,0,1
-0.0003044204,-0.0003601709,0,1
-0.0002569353,-0.0002804347,0,1
-0.0002232257,-0.0001979435,0,1
-0.0001987538,-0.0001138316,0,1
-0.0001775233,-2.89094e-05,0,1
-0.0001533756,5.293359e-05,0,1
-0.0001161005,0.0001235941,0,1
-6.278104e-05,0.0001786963,0,1
5.286387e-06,0.000217754,0,1
7.189524e-05,0.0002370398,0,1
0.0001166253,0.0002352571,0,1
0.0001278078,0.0002224539,0,1
0.0001093323,0.0002054371,0,1
7.918817e-05,0.0001867996,0,1
5.99024e-05,0.0001670276,0,1
6.995045e-05,0.0001451488,0,1
0.0001154908,0.0001227837,0,1
0.0001949028,0.0001030118,0,1
0.0002901973,0.0001013911,0,1
0.0003725265,0.000130887,0,1
0.0004211461,0.000187772,0,1
0.0004298976,0.0002594049,0,1
0.0004028327,0.0003320101,0,1
0.0003535648,0.0003879227,0,1
0.0002931144,0.000406074,0,1
0.0002302331,0.0003684748,0,1
0.0001709172,0.0002679943,0,1
0.0001197045,0.0001167873,0,1
7.999851e-05,-5.208474e-05,0,1
5.56887e-05,-0.0002011848,0,1
4.709924e-05,-0.0003097686,0,1
4.499239e-05,-0.000372974,0,1
4.158902e-05,-0.0003938804,0,1
2.862379e-05,-0.0003776739,0,1
2.04508e-06,-0.0003342404,0,1
-4.009191e-05,-0.0002739521,0,1
-9.632857e-05,-0.0002086398,0,1
-0.0001549962,-0.000149486,0,1
-0.0002026434,-0.0001055663,0,1
-0.0002272773,-8.109443e-05,0,1
-0.0002272773,-7.33153e-05,0,1
-0.0002117191,-6.683268e-05,0,1
-0.0001937298,-3.976777e-05,0,1
-0.0001705545,2.100672e-05,0,1
-0.0001332795,0.0001167873,0,1
-7.590833e-05,0.0002342847,0,1
2.623614e-07,0.0003482167,0,1
9.101894e-05,0.0004341113,0,1
0.0001867996,0.000475438,0,1
0.0002801492,0.00046069,0,1
0.0003626405,0.0003872744,0,1
0.0004195254,0.0002694529,0,1
0.0004342734,0.0001313732,0,1
0.0004000776,1.002961e-07,0,1
0.000324231,-0.0001026491,0,1
0.0002271538,-0.0001690959,0,1
0.0001338042,-0.0002126914,0,1
6.055066e-05,-0.0002582318,0,1
1.014835e-05,-0.0003199787,0,1
-2.745081e-05,-0.0003966356,0,1
-6.81292e-05,-0.0004789647,0,1
-0.0001149661,-0.0005556216,0,1
-0.0001585616,-0.0006079687,0,1
-0.0001820611,-0.0006102377,0,1
-0.000171851,-0.0005317981,0,1
-0.0001267968,-0.0003621157,0,1
-5.970181e-05,-0.0001182074,0,1
9.013889e-06,0.0001548727,0,1
6.006447e-05,0.0004055878,0,1
7.416415e-05,0.0006028214,0,1
4.855783e-05,0.0007490044,0,1
4.244267e-07,0.0008583986,0,1
-4.38194e-05,0.0009319764,0,1
-6.310517e-05,0.0009499656,0,1
-4.932962e-05,0.0008948633,0,1
-9.137427e-06,0.0007767176,0,1
3.996837e-05,0.0006261588,0,1
7.432621e-05,0.0004713863,0,1
8.129502e-05,0.0003347652,0,1
6.152305e-05,0.0002245608,0,1
2.943412e-05,0.000140773,0,1
6.096713e-06,7.90261e-05,0,1
1.234753e-06,3.753739e-05,0,1
9.338019e-06,1.063454e-05,0,1
1.760335e-05,-4.437533e-06,0,1
1.760335e-05,-1.173047e-05,0,1
1.079661e-05,-1.934754e-05,0,1
1.12828e-05,-3.830919e-05,0,1
3.18651e-05,-7.33153e-05,0,1
7.221937e-05,-0.0001232314,0,1
0.000118408,-0.0001840059,0,1
0.0001472556,-0.0002480217,0,1
0.0001451488,-0.0003076617,0,1
0.0001153287,-0.0003540124,0,1
7.983644e-05,-0.0003776739,0,1
6.071273e-05,-0.0003755671,0,1
5.909208e-05,-0.0003582261,0,1
5.390598e-05,-0.0003472056,0,1
2.311357e-05,-0.0003676259,0,1
-4.090223e-05,-0.0004308313,0,1
-0.000122259,-0.0005290429,0,1
-0.000191623,-0.0006374646,0,1
-0.0002206326,-0.0007304901,0,1
-0.0001919471,-0.0007864026,0,1
-0.0001079973,-0.0007781372,0,1
1.59827e-05,-0.000685436,0,1
0.0001529279,-0.0005201293,0,1
0.0002754493,-0.0003167374,0,1
0.0003587509,-0.0001177212,0,1
0.0003877606,4.596478e-05,0,1
0.0003602095,0.0001634622,0,1
0.000289549,0.0002360674,0,1
0.000200251,0.000277232,0,1
0.0001235941,0.0003055935,0,1
8.534666e-05,0.0003378445,0,1
9.101894e-05,0.0003913261,0,1
0.0001232699,0.0004746277,0,1
0.0001526038,0.0005717048,0,1
0.0001564933,0.0006449584,0,1
0.0001336421,0.0006597064,0,1
9.409818e-05,0.0006007145,0,1
4.920609e-05,0.0004819206,0,1
6.582909e-06,0.0003358997,0,1
-2.971972e-05,0.0001983062,0,1
-6.051213e-05,9.069481e-05,0,1
-8.595638e-05,1.744129e-05,0,1
-0.0001057284,-2.599222e-05,0,1
-0.0001183694,-4.770897e-05,0,1
-0.0001280934,-5.548811e-05,0,1
-0.0001326312,-5.435365e-05,0,1
-0.0001269589,-5.500191e-05,0,1
-0.0001139937,-6.926366e-05,0,1
-0.000107349,-9.843541e-05,0,1
-0.0001182074,-0.0001366828,0,1
-0.0001454344,-0.0001713648,0,1
-0.0001788198,-0.0001922712,0,1
-0.0002073433,-0.0002005366,0,1
-0.0002230636,-0.0002021572,0,1
-0.0002256567,-0.0002037779,0,1
-0.0002193361,-0.0002034537,0,1
-0.0002123673,-0.000194216,0,1
-0.0002102605,-0.0001689338,0,1
-0.0002133397,-0.0001233935,0,1
-0.0002285739,-6.180866e-05,0,1
-0.0002551526,1.234753e-06,0,1
-0.0002812451,5.666109e-05,0,1
-0.0002971275,0.0001081979,0,1
-0.0003036101,0.0001650828,0,1
-0.0003040963,0.0002224539,0,1
-0.0002985861,0.0002607014,0,1
-0.0002804347,0.0002590807,0,1
-0.0002468872,0.0002124059,0,1
-0.0001994021,0.000128456,0,1
-0.0001426792,3.040651e-05,0,1
-8.02841e-05,-6.099833e-05,0,1
-1.399939e-05,-0.0001269589,0,1
5.487838e-05,-0.0001511067,0,1
0.0001163011,-0.000122259,0,1
0.0001582761,-3.182657e-05,0,1
0.0001756171,0.0001292664,0,1
0.0001667035,0.0003696093,0,1
0.0001334801,0.0006734819,0,1
7.918817e-05,0.0009886993,0,1
1.22552e-05,0.00124849,0,1
-5.953974e-05,0.001390622,0,1
-0.0001308485,0.001377819,0,1
-0.0001874093,0.001212512,0,1
-0.0002110708,0.0009366762,0,1
-0.0001870851,0.0006164349,0,1
-0.0001203142,0.0003159656,0,1
-2.631635e-05,7.335383e-05,0,1
7.546067e-05,-9.762509e-05,0,1
0.000170593,-0.000201509,0,1
0.0002521119,-0.0002553146,0,1
0.0003117519,-0.0002818933,0,1
0.0003336308,-0.0003023136,0,1
0.00030689,-0.0003274337,0,1
0.0002240746,-0.0003551469,0,1
8.583286e-05,-0.0003783222,0,1
-8.82253e-05,-0.0003899909,0,1
-0.0002616352,-0.0003935563,0,1
-0.0003982562,-0.0003946908,0,1
-0.0004728062,-0.0004018217,0,1
-0.0004742648,-0.0004253211,0,1
-0.0004092767,-0.0004655133,0,1
-0.0002993964,-0.0005151053,0,1
-0.0001681235,-0.0005651835,0,1
-3.231277e-05,-0.000603593,0,1
0.0001002567,-0.000623527,0,1
0.0002248849,-0.0006228787,0,1
0.0003375204,-0.0006029447,0,1
0.0004360561,-0.0005674524,0,1
0.0005253541,-0.0005233706,0,1
0.0006164349,-0.0004766958,0,1
0.0007122156,-0.000432452,0,1
0.0008021619,-0.0003914495,0,1
0.0008663398,-0.000353202,0,1
0.0008846532,-0.0003201407,0,1
0.000854509,-0.0002963172,0,1
0.0008007033,-0.0002797865,0,1
0.0007595387,-0.0002580697,0,1
0.0007569456,-0.0002172293,0,1
0.0007901691,-0.0001536997,0,1
0.0008358715,-7.493595e-05,0,1
0.0008632605,9.66215e-06,0,1
0.000844461,8.826383e-05,0,1
0.0007668316,0.0001487142,0,1
0.0006483617,0.0001856651,0,1
0.0005196818,0.0001991165,0,1
0.0004063981,0.0001973338,0,1
0.0003162898,0.0001872858,0,1
0.0002407673,0.0001775618,0,1
0.0001654069,0.0001725378,0,1
7.886404e-05,0.0001741585,0,1
-2.226472e-05,0.0001842065,0,1
-0.0001355484,0.0002021958,0,1
-0.0002489941,0.0002242366,0,1
-0.0003457471,0.0002453052,0,1
-0.0004159214,0.0002590807,0,1
-0.0004551412,0.0002616738,0,1
-0.0004768579,0.0002504913,0,1
-0.0004927403,0.0002256952,0,1
-0.0005099192,0.0001926339,0,1
-0.0005296912,0.0001641104,0,1
-0.0005546492,0.0001514693,0,1
-0.0005872243,0.000155683,0,1
-0.0006269303,0.0001688103,0,1
-0.0006684191,0.0001767515,0,1
-0.000707963,0.0001645966,0,1
-0.0007405381,0.0001323456,0,1
-0.0007629031,9.426025e-05,0,1
-0.0007721409,5.876794e-05,0,1
-0.0007703581,2.538249e-05,0,1
-0.0007617687,-9.137427e-06,0,1
-0.0007515585,-4.835724e-05,0,1
-0.0007416725,-9.341139e-05,0,1
-0.0007324349,-0.0001434896,0,1
-0.0007230351,-0.0001938919,0,1
-0.0007073147,-0.0002355427,0,1
-0.0006836532,-0.0002629317,0,1
-0.0006515643,-0.0002720074,0,1
-0.000613641,-0.0002600145,0,1
-0.0005669662,-0.0002352185,0,1
-0.0005034366,-0.0002075054,0,1
-0.0004204592,-0.0001853024,0,1
-0.0003212752,-0.0001799543,0,1
-0.0002126914,-0.0001964849,0,1
-0.0001057284,-0.0002301945,0,1
-1.432352e-05,-0.0002739521,0,1
5.374392e-05,-0.0003228959,0,1
0.0001020394,-0.0003757291,0,1
0.0001342904,-0.0004241867,0,1
0.0001534141,-0.0004553032,0,1
0.0001628139,-0.0004593548,0,1
0.0001697827,-0.0004363416,0,1
0.0001765894,-0.0003956632,0,1
0.0001835583,-0.0003566054,0,1
0.0001902029,-0.0003358611,0,1
0.0001887444,-0.0003284061,0,1
0.0001667035,-0.0003146305,0,1
0.0001161391,-0.0002746004,0,1
3.753739e-05,-0.0001959987,0,1
-6.132246e-05,-7.898758e-05,0,1
-0.0001642339,5.893001e-05,0,1
-0.0002489941,0.0001955511,0,1
-0.0002946965,0.0003059176,0,1
-0.0002940482,0.0003752816,0,1
-0.0002502906,0.0004055878,0,1
-0.000174444,0.000411098,0,1
-8.07703e-05,0.0004025085,0,1
1.452411e-05,0.0003850055,0,1
9.458438e-05,0.0003548613,0,1
0.000148228,0.0003088348,0,1
0.0001751309,0.0002516257,0,1
0.0001845306,0.0001960373,0,1
0.0001976579,0.0001616794,0,1
0.0002329882,0.0001658931,0,1
0.0002957075,0.000215161,0,1
0.0003749574,0.0002971661,0,1
0.0004585832,0.0003897054,0,1
0.0005316747,0.0004674968,0,1
0.000577053,0.0005133613,0,1
0.0005921251,0.0005187094,0,1
0.0005866149,0.0004922928,0,1
0.0005726772,0.0004503179,0,1
0.000559712,0.000410936,0,1
0.0005454503,0.0003850055,0,1
0.0005166026,0.0003744712,0,1
0.0004579349,0.0003754436,0,1
0.0003598854,0.0003819262,0,1
0.0002299089,0.0003913261,0,1
9.101894e-05,0.0004000776,0,1
-3.360929e-05,0.0004018603,0,1
-0.0001290658,0.0003934329,0,1
-0.0001927574,0.0003712299,0,1
-0.0002316531,0.0003276344,0,1
-0.0002551526,0.0002634565,0,1
-0.0002705488,0.0001923098,0,1
-0.0002773555,0.0001297526,0,1
-0.0002690902,8.064677e-05,0,1
-0.0002412149,4.628891e-05,0,1
-0.0001909747,2.554455e-05,0,1
-0.0001280934,1.727922e-05,0,1
-7.104638e-05,1.695509e-05,0,1
-3.863332e-05,1.614476e-05,0,1
-3.587821e-05,5.448452e-06,0,1
-4.608832e-05,-1.724069e-05,0,1
-5.127441e-05,-4.868137e-05,0,1
-3.798505e-05,-8.141856e-05,0,1
-3.951337e-06,-0.0001144799,0,1
4.888196e-05,-0.0001442999,0,1
0.0001172735,-0.0001695821,0,1
0.0001950649,-0.0001893541,0,1
0.0002704253,-0.0002002124,0,1
0.0003266619,-0.0001997262,0,1
0.0003457857,-0.0001895161,0,1
0.0003247172,-0.0001734716,0,1
0.0002744769,-0.0001558065,0,1
0.0002132162,-0.0001353863,0,1
0.0001569795,-0.0001120489,0,1
0.000115977,-9.049421e-05,0,1
8.988449e-05,-7.55842e-05,0,1
7.497447e-05,-6.845333e-05,0,1
6.184718e-05,-6.586029e-05,0,1
4.094075e-05,-6.683268e-05,0,1
6.420843e-06,-7.65566e-05,0,1
-3.733679e-05,-0.0001032974,0,1
-7.914964e-05,-0.0001488377,0,1
-0.0001075111,-0.0002024813,0,1
-0.000117235,-0.0002452666,0,1
-0.0001120489,-0.0002681178,0,1
-9.924574e-05,-0.0002739521,0,1
-8.952183e-05,-0.0002708729,0,1
-8.676672e-05,-0.000266011,0,1
-8.903562e-05,-0.0002632558,0,1
-9.000802e-05,-0.0002673075,0,1
-8.773911e-05,-0.000281083,0,1
-8.384954e-05,-0.0003015032,0,1
-8.320128e-05,-0.0003194925,0,1
-8.709085e-05,-0.0003199787,0,1
-9.049421e-05,-0.0002955068,0,1
-8.563225e-05,-0.0002460769,0,1
-6.342931e-05,-0.0001786577,0,1
-2.615429e-05,-0.0001024871,0,1
1.695509e-05,-3.425755e-05,0,1
5.52025e-05,4.638125e-06,0,1
8.275361e-05,-5.734056e-06,0,1
9.652917e-05,-7.039812e-05,0,1
0.0001005808,-0.0001703924,0,1
0.0001101427,-0.0002744383,0,1
0.0001425557,-0.0003473677,0,1
0.0002018716,-0.0003637363,0,1
0.0002760976,-0.0003160891,0,1
0.0003454615,-0.0002173914,0,1
0.0003910019,-9.130454e-05,0,1
0.0004023465,3.656499e-05,0,1
0.0003778746,0.0001509831,0,1
0.0003276344,0.0002550291,0,1
0.0002675081,0.0003491891,0,1
0.0002119197,0.000425846,0,1
0.0001697827,0.0004691174,0,1
0.0001474177,0.0004673347,0,1
0.0001461212,0.00043087,0,1
0.0001658931,0.0003828986,0,1
0.0002017096,0.0003470822,0,1
0.000237526,0.0003368721,0,1
0.0002495189,0.0003530786,0,1
0.0002179161,0.0003856538,0,1
0.0001406109,0.0004177427,0,1
3.413401e-05,0.0004331389,0,1
-7.590833e-05,0.0004200116,0,1
-0.0001627754,0.000376416,0,1
-0.0002130156,0.0003151553,0,1
-0.000228898,0.0002556773,0,1
-0.0002269532,0.0002135403,0,1
-0.0002272773,0.0001992786,0,1
-0.0002431597,0.0002156472,0,1
-0.0002684419,0.0002577842,0,1
-0.0002862691,0.0003132105,0,1
-0.0002773555,0.0003623164,0,1
-0.0002342462,0.0003824125,0,1
-0.0001750923,0.0003634508,0,1
-0.0001342519,0.0003051073,0,1
-0.0001366828,0.0002153231,0,1
-0.00018433,0.0001096565,0,1
-0.0002575835,2.531276e-06,0,1
-0.0003287302,-9.2439e-05,0,1
-0.0003728119,-0.0001682856,0,1
-0.000377836,-0.0002290601,0,1
-0.0003460712,-0.0002906449,0,1
-0.0002940482,-0.0003750809,0,1
-0.0002365151,-0.0004890127,0,1
-0.0001804405,-0.0006199615,0,1
-0.000122259,-0.0007426449,0,1
-5.386745e-05,-0.0008384255,0,1
1.679302e-05,-0.0009027654,0,1
7.367795e-05,-0.0009466851,0,1
0.0001047945,-0.0009850947,0,1
0.0001140322,-0.001024152,0,1
0.0001145184,-0.001053972,0,1
0.0001200286,-0.001059321,0,1
0.0001363972,-0.001030797,0,1
0.0001652449,-0.0009643502,0,1
0.0001994406,-0.0008726213,0,1
0.0002239125,-0.0007674409,0,1
0.0002203471,-0.0006544815,0,1
0.0001809652,-0.0005251534,0,1
0.0001161391,-0.0003650328,0,1
4.677511e-05,-0.0001674752,0,1
-1.221667e-05,5.925414e-05,0,1
-5.791909e-05,0.0003002453,0,1
-9.730096e-05,0.0005245438,0,1
-0.0001442999,0.0006969814,0,1
-0.000208964,0.0007859553,0,1
-0.0002940482,0.0007827141,0,1
-0.0003901529,0.000701033,0,1
-0.0004826922,0.0005679773,0,1
-0.0005582146,0.0004099636,0,1
-0.0006089411,0.0002513016,0,1
-0.0006316302,0.0001057669,0,1
-0.0006238511,-1.643037e-05,0,1
-0.0005867381,-0.0001067007,0,1
-0.0005348772,-0.0001512687,0,1
-0.0004817198,-0.0001483515,0,1
-0.0004340726,-0.0001120489,0,1
-0.0003810773,-6.456377e-05,0,1
-0.0003066893,-2.777494e-05,0,1
-0.0002053985,-1.448558e-05,0,1
-8.384954e-05,-2.339918e-05,0,1
4.061663e-05,-4.462973e-05,0,1
0.0001485521,-6.472583e-05,0,1
0.0002287745,-7.428769e-05,0,1
0.0002801492,-6.667062e-05,0,1
0.0003115899,-3.701266e-05,0,1
0.000329255,8.527692e-06,0,1
0.0003431926,6.168512e-05,0,1
0.0003595612,0.0001150046,0,1
0.0003807918,0.0001717275,0,1
0.0004038051,0.0002475741,0,1
0.0004164462,0.0003671783,0,1
0.0004075326,0.0005454503,0,1
0.0003686369,0.0007694247,0,1
0.0003023522,0.000992751,0,1
0.0002242366,0.001165189,0,1
0.0001550348,0.00125157,0,1
0.0001073875,0.001242656,0,1
8.275361e-05,0.00115433,0,1
7.886404e-05,0.001016899,0,1
8.939829e-05,0.0008592089,0,1
0.000108522,0.0007002227,0,1
0.0001412592,0.0005542018,0,1
0.0001960373,0.0004313562,0,1
0.0002712356,0.0003389789,0,1
0.0003537269,0.0002764217,0,1
0.000420984,0.0002316917,0,1
0.0004589073,0.000192958,0,1
0.0004676588,0.0001516314,0,1
0.0004525868,0.0001070634,0,1
0.0004268184,6.508849e-05,0,1
0.0004015361,3.056858e-05,0,1
0.000378847,3.179537e-06,0,1
0.000351458,-1.934754e-05,0,1
0.0003080245,-4.219875e-05,0,1
0.000249843,-6.44017e-05,0,1
0.0001814514,-8.611845e-05,0,1
0.000110953,-0.0001070249,0,1
4.515445e-05,-0.0001266348,0,1
-1.173047e-05,-0.0001421931,0,1
-5.581224e-05,-0.0001532135,0,1
-7.752899e-05,-0.0001577513,0,1
-6.164659e-05,-0.0001561307,0,1
-6.220252e-06,-0.0001493239,0,1
7.432621e-05,-0.0001292278,0,1
0.0001477418,-8.044617e-05,0,1
0.0001808031,-5.479652e-07,0,1
0.0001524417,9.182927e-05,0,1
6.83298e-05,0.000170593,0,1
-4.592625e-05,0.0002128921,0,1
-0.0001592099,0.0002088404,0,1
-0.0002460769,0.000163138,0,1
-0.0002993964,8.680524e-05,0,1
-0.0003262992,1.072688e-06,0,1
-0.0003391024,-7.833932e-05,0,1
-0.0003489884,-0.0001507825,0,1
-0.000360333,-0.0002243602,0,1
-0.0003784843,-0.0003076617,0,1
-0.0004011734,-0.0003961493,0,1
-0.0004230522,-0.0004805854,0,1
-0.0004405553,-0.00055157,0,1
-0.0004617858,-0.000608779,0,1
-0.0004935506,-0.0006536711,0,1
-0.0005337428,-0.0006873807,0,1
-0.0005718282,-0.0007097457,0,1
-0.0005881967,-0.0007266005,0,1
-0.0005645352,-0.0007463724,0,1
-0.0004948471,-0.0007802441,0,1
-0.0003914495,-0.000827243,0,1
-0.0002754107,-0.0008727834,0,1
-0.0001723372,-0.0009027654,0,1
-0.0001024871,-0.0009084377,0,1
-7.526008e-05,-0.0008914209,0,1
-8.141856e-05,-0.0008551183,0,1
-9.276313e-05,-0.0007996919,0,1
-7.752899e-05,-0.0007159042,0,1
-2.275091e-05,-0.000583821,0,1
5.649903e-05,-0.0003784843,0,1
0.0001229458,-0.0001024871,0,1
0.0001490383,0.0002064095,0,1
0.0001446626,0.0004908342,0,1
0.0001477418,0.0006930918,0,1
0.0001961994,0.0007755831,0,1
0.0003017039,0.000730691,0,1
0.0004448076,0.0005833735,0,1
0.0005948802,0.0003897054,0,1
0.0007319876,0.0002141886,0,1
0.0008515919,0.0001007429,0,1
0.0009567724,6.168512e-05,0,1
0.001045908,8.810177e-05,0,1
0.001118352,0.0001611932,0,1
0.001166161,0.0002563256,0,1
0.001172482,0.0003496752,0,1
0.001119972,0.000420984,0,1
0.0009964785,0.0004559901,0,1
0.0008007033,0.0004459421,0,1
0.0005483674,0.0003958639,0,1
0.000264753,0.0003151553,0,1
-2.145439e-05,0.0002174299,0,1
-0.0002843243,0.0001273216,0,1
-0.0005050572,6.687121e-05,0,1
-0.0006680949,4.72613e-05,0,1
-0.0007653341,5.698522e-05,0,1
-0.0007969369,7.043665e-05,0,1
-0.0007744097,6.930219e-05,0,1
-0.0007197938,5.649903e-05,0,1
-0.0006624226,4.580272e-05,0,1
-0.000621096,4.612685e-05,0,1
-0.0005935449,5.893001e-05,0,1
-0.0005676145,8.129502e-05,0,1
-0.0005364979,0.0001104668,0,1
-0.000496954,0.000145797,0,1
-0.0004459034,0.0001872858,0,1
-0.0003848048,0.0002347709,0,1
-0.0003217614,0.0002877662,0,1
-0.0002739521,0.0003358997,0,1
-0.0002583939,0.0003645853,0,1
-0.0002682799,0.0003696093,0,1
-0.0002765452,0.0003616681,0,1
-0.0002541802,0.0003529166,0,1
-0.0001887058,0.0003501615,0,1
-9.276313e-05,0.0003512959,0,1
-2.006553e-06,0.0003532407,0,1
4.742337e-05,0.0003512959,0,1
4.256141e-05,0.00033671,0,1
2.207145e-06,0.0003036487,0,1
-4.090223e-05,0.0002430362,0,1
-5.759496e-05,0.0001603829,0,1
-3.620233e-05,6.298164e-05,0,1
2.100672e-05,-4.025397e-05,0,1
0.0001093323,-0.0001404103,0,1
0.0002185644,-0.0002285739,0,1
0.0003333067,-0.000303286,0,1
0.0004318424,-0.00036795,0,1
0.0004937514,-0.0004303451,0,1
0.0005037994,-0.0004972781,0,1
0.0004521006,-0.0005666421,0,1
0.0003370341,-0.0006264441,0,1
0.0001757791,-0.0006645294,0,1
4.244267e-07,-0.000678305,0,1
-0.0001540238,-0.0006671225,0,1
-0.0002590421,-0.0006347094,0,1
-0.0002982619,-0.0005854416,0,1
-0.0002775176,-0.0005259637,0,1
-0.0002185258,-0.0004674581,0,1
-0.0001496481,-0.0004154351,0,1
-9.2439e-05,-0.0003737844,0,1
-5.69467e-05,-0.0003415334,0,1
-4.495386e-05,-0.0003126857,0,1
-5.176061e-05,-0.0002815692,0,1
-7.104638e-05,-0.0002441321,0,1
-9.081835e-05,-0.0002042641,0,1
-9.892161e-05,-0.0001653684,0,1
-8.82253e-05,-0.000122259,0,1
-6.132246e-05,-6.618442e-05,0,1
-2.46957e-05,-6.176923e-08,0,1
1.22552e-05,6.670914e-05,0,1
3.98063e-05,0.0001201907,0,1
5.017848e-05,0.0001479039,0,1
3.688912e-05,0.0001466074,0,1
-4.113403e-06,0.0001195424,0,1
-6.294311e-05,7.821578e-05,0,1
-0.0001225832,2.894792e-05,0,1
-0.0001699062,-2.745081e-05,0,1
-0.0002000504,-8.887356e-05,0,1
-0.0002146363,-0.0001515928,0,1
-0.0002159328,-0.000201509,0,1
-0.0002039399,-0.0002241981,0,1
-0.0001786577,-0.0002207947,0,1
-0.0001468929,-0.0002023193,0,1
-0.0001242038,-0.0001750923,0,1
-0.0001240417,-0.0001365208,0,1
-0.000147055,-8.320128e-05,0,1
-0.0001823853,-2.194059e-05,0,1
-0.0002135018,3.721326e-05,0,1
-0.0002259808,8.388807e-05,0,1
-0.0002149604,0.0001169494,0,1
-0.0001911368,0.0001376938,0,1
-0.0001746061,0.0001526038,0,1
-0.0001859507,0.0001663793,0,1
-0.0002350565,0.0001892305,0,1
-0.0003079858,0.0002406053,0,1
-0.000372974,0.0003425444,0,1
-0.0004010113,0.0005031512,0,1
-0.0003721637,0.0007094605,0,1
-0.0002822175,0.0009227386,0,1
-0.0001489998,0.001094366,0,1
2.207145e-06,0.001184474,0,1
0.0001516314,0.001183664,0,1
0.0002866318,0.001107818,0,1
0.0003966742,0.0009844856,0,1
0.0004699278,0.0008489988,0,1
0.0005018546,0.0007368495,0,1
0.0004943996,0.0006763991,0,1
0.0004610142,0.0006760749,0,1
0.0004146635,0.0007146465,0,1
0.0003556717,0.0007569456,0,1
0.0002782044,0.0007673178,0,1
0.0001816135,0.0007229118,0,1
7.416415e-05,0.0006248623,0,1
-3.425755e-05,0.0004892136,0,1
-0.0001259865,0.0003380065,0,1
-0.0001825473,0.0001898788,0,1
-0.0001984297,5.779555e-05,0,1
-0.0001802784,-5.419158e-05,0,1
-0.0001413827,-0.0001438137,0,1
-8.40116e-05,-0.0002097743,0,1
9.106227e-07,-0.0002509389,0,1
0.0001216493,-0.0002689281,0,1
0.0002658874,-0.0002692523,0,1
0.0004000776,-0.0002627696,0,1
0.0004759242,-0.0002622834,0,1
0.0004568005,-0.0002746004,0,1
0.0003410858,-0.0003006929,0,1
0.0001688103,-0.0003360231,0,1
-2.006553e-06,-0.000372974,0,1
-0.0001242038,-0.000405225,0,1
-0.000181737,-0.0004356933,0,1
-0.0001788198,-0.0004749131,0,1
-0.0001261486,-0.0005306636,0,1
-4.122636e-05,-0.0006019723,0,1
5.487838e-05,-0.0006817085,0,1
0.0001485521,-0.0007651721,0,1
0.0002333123,-0.0008452323,0,1
0.0003085106,-0.0009087619,0,1
0.000381278,-0.0009283718,0,1
0.0004589073,-0.00088429,0,1
0.0005383193,-0.0007829992,0,1
0.0006024973,-0.0006475127,0,1
0.000631669,-0.0005035987,0,1
0.0006144901,-0.0003707051,0,1
0.0005564707,-0.0002593663,0,1
0.0004781931,-0.0001681235,0,1
0.0004094774,-9.114248e-05,0,1
0.0003702575,-2.550602e-05,0,1
0.0003631267,2.214118e-05,0,1
0.0003777126,3.640293e-05,0,1
0.0004000776,9.013889e-06,0,1
0.0004162841,-5.483985e-05,0,1
0.0004102877,-0.0001314967,0,1
0.0003657197,-0.0001938919,0,1
0.0002814457,-0.000223874,0,1
0.0001770756,-0.0002182017,0,1
8.194328e-05,-0.0001851404,0,1
2.084466e-05,-0.0001412206,0,1
2.207145e-06,-0.0001081593,0,1
1.9224e-05,-0.0001029732,0,1
5.358185e-05,-0.0001292278,0,1
8.242948e-05,-0.0001749302,0,1
9.101894e-05,-0.0002188499,0,1
7.805372e-05,-0.000238946,0,1
5.244739e-05,-0.0002186879,0,1
2.505836e-05,-0.0001559686,0,1
1.002961e-07,-6.407757e-05,0,1
-2.664048e-05,3.640293e-05,0,1
-6.586029e-05,0.0001250527,0,1
-0.0001195039,0.0001851789,0,1
-0.0001806025,0.0002091646,0,1
-0.0002402425,0.0001961994,0,1
-0.0002916173,0.0001564933,0,1
-0.0003267854,0.0001062531,0,1
-0.000340561,6.476436e-05,0,1
-0.000330675,4.158902e-05,0,1
-0.0003013411,3.316162e-05,0,1
-0.0002582318,2.992031e-05,0,1
-0.0002135018,2.76514e-05,0,1
-0.0001775233,3.073064e-05,0,1
-0.0001611547,5.439218e-05,0,1
-0.0001677994,0.0001083599,0,1
-0.0001982676,0.0001926339,0,1
-0.000258718,0.0002957075,0,1
-0.0003517435,0.0003991052,0,1
-0.0004679443,0.0004880791,0,1
-0.0005941931,0.0005554983,0,1
-0.0007118525,0.00060428,0,1
-0.0008006644,0.000631507,0,1
-0.0008450702,0.0006323173,0,1
-0.0008377773,0.0005984457,0,1
-0.0007836475,0.0005302161,0,1
-0.0006966184,0.0004388112,0,1
-0.0005922483,0.0003380065,0,1
-0.0004847991,0.00024255,0,1
-0.0003959873,0.0001618415,0,1
-0.0003436402,9.377406e-05,0,1
-0.0003344025,3.154097e-05,0,1
-0.0003583881,-2.761287e-05,0,1
-0.0003932322,-8.239095e-05,0,1
-0.0004170558,-0.0001340898,0,1
-0.0004121938,-0.0001818991,0,1
-0.0003640605,-0.0002293842,0,1
-0.0002781658,-0.000276059,0,1
-0.0001794681,-0.0003194925,0,1
-9.681477e-05,-0.0003577399,0,1
-4.284701e-05,-0.0003875599,0,1
-1.20546e-05,-0.0004087905,0,1
8.851824e-06,-0.0004206212,0,1
3.348575e-05,-0.0004240246,0,1
6.881599e-05,-0.0004204592,0,1
0.0001141943,-0.0004105732,0,1
0.0001598967,-0.000395177,0,1
0.0001981441,-0.0003710293,0,1
0.0002245608,-0.0003321336,0,1
0.0002414156,-0.0002718453,0,1
0.0002574601,-0.0001924333,0,1
0.0002838767,-0.0001021629,0,1
0.0003203414,-1.027188e-05,0,1
0.0003579406,7.90261e-05,0,1
0.0003910019,0.0001598967,0,1
0.0004200116,0.0002188885,0,1
0.0004499937,0.0002456293,0,1
0.0004819206,0.0002337985,0,1
0.0005114165,0.0001900409,0,1
0.0005350781,0.0001321835,0,1
0.0005538776,8.210535e-05,0,1
0.0005658705,5.585077e-05,0,1
0.0005658705,6.103686e-05,0,1
0.0005504743,9.53947e-05,0,1
0.0005185474,0.0001449867,0,1
0.0004694416,0.0001914995,0,1
0.0004067223,0.0002243987,0,1
0.0003373583,0.0002428742,0,1
0.0002736666,0.0002542187,0,1
0.0002289366,0.0002675081,0,1
0.0002036544,0.0002866318,0,1
0.0001942546,0.0003067279,0,1
0.0001921477,0.0003205035,0,1
0.0001898788,0.0003253654,0,1
0.0001814514,0.0003248792,0,1
0.0001688103,0.0003290929,0,1
0.0001526038,0.0003449753,0,1
0.0001294284,0.0003799815,0,1
9.555677e-05,0.0004341113,0,1
5.163707e-05,0.0004982892,0,1
-3.951337e-06,0.0005631154,0,1
-7.720486e-05,0.0006208107,0,1
-0.0001665028,0.0006642442,0,1
-0.0002582318,0.0006927677,0,1
-0.000333268,0.0007070294,0,1
-0.0003794566,0.0007015193,0,1
-0.0003945287,0.0006629477,0,1
-0.0003922598,0.0005793219,0,1
-0.0003904771,0.0004611762,0,1
-0.000400201,0.0003384927,0,1
-0.0004209454,0.0002430362,0,1
-0.0004403932,0.0001913374,0,1
-0.0004444448,0.0001757791,0,1
-0.0004227281,0.0001799928,0,1
-0.0003773498,0.0001864754,0,1
-0.0003177098,0.0001817755,0,1
-0.0002592042,0.0001647587,0,1
-0.000216419,0.0001422316,0,1
-0.0001865989,0.0001221355,0,1
-0.0001616409,0.0001086841,0,1
-0.0001324691,0.0001022015,0,1
-0.0001026491,9.733949e-05,0,1
-8.109443e-05,8.178122e-05,0,1
-7.056019e-05,4.742337e-05,0,1
-6.634648e-05,-1.010982e-05,0,1
-6.229485e-05,-8.676672e-05,0,1
-5.013995e-05,-0.0001791439,0,1
-1.821308e-05,-0.0002828657,0,1
4.434413e-05,-0.0003904771,0,1
0.0001388282,-0.0004917679,0,1
0.0002508154,-0.0005747453,0,1
0.0003618301,-0.0006301716,0,1
0.0004509661,-0.000660802,0,1
0.0004997478,-0.0006740913,0,1
0.0004971547,-0.0006817085,0,1
0.000450804,-0.0006927288,0,1
0.0003832228,-0.0007147697,0,1
0.0003180725,-0.0007533412,0,1
0.0002710735,-0.0008102262,0,1
0.0002446569,-0.0008821832,0,1
0.000227478,-0.0009641882,0,1
0.0002021958,-0.001048786,0,1
0.0001551968,-0.001121554,0,1
8.534666e-05,-0.001169687,0,1
-5.247859e-06,-0.001189621,0,1
-0.0001130213,-0.001186218,0,1
-0.000231329,-0.001166446,0,1
-0.0003452609,-0.001129333,0,1
-0.0004353692,-0.001068558,0,1
-0.0004835025,-0.0009766672,0,1
-0.0004877163,-0.0008484736,0,1
-0.0004614617,-0.0006949978,0,1
-0.0004178661,-0.0005368221,0,1
-0.0003601709,-0.0003933943,0,1
-0.000285945,-0.0002780038,0,1
-0.0001904885,-0.0001909747,0,1
-7.526008e-05,-0.0001243659,0,1
4.661304e-05,-6.618442e-05,0,1
0.0001582761,-6.706447e-06,0,1
0.0002477361,6.800567e-05,0,1
0.0003115899,0.0001691344,0,1
0.0003499994,0.0002885766,0,1
0.0003649094,0.0004042913,0,1
0.000359075,0.0004919686,0,1
0.0003336308,0.0005357263,0,1
0.0002929524,0.0005394538,0,1
0.0002436845,0.0005180612,0,1
0.0001931201,0.0004869446,0,1
0.0001445005,0.0004584211,0,1
0.0001007429,0.0004349216,0,1
6.41161e-05,0.0004133669,0,1
3.769945e-05,0.000388733,0,1
2.522042e-05,0.0003644232,0,1
1.841368e-05,0.0003475684,0,1
6.744974e-06,0.0003443271,0,1
-1.821308e-05,0.0003525924,0,1
-5.791909e-05,0.0003636129,0,1
-0.0001076731,0.0003683128,0,1
-0.0001556445,0.0003581026,0,1
-0.0001880575,0.0003273102,0,1
-0.0001900023,0.0002829043,0,1
-0.0001486757,0.0002318537,0,1
-6.06742e-05,0.000178048,0,1
5.471631e-05,0.0001257009,0,1
0.0001584381,8.145709e-05,0,1
0.0002164575,4.985435e-05,0,1
0.000220023,2.910999e-05,0,1
0.0001790204,1.841368e-05,0,1
0.0001150046,2.34377e-05,0,1
5.115087e-05,5.277153e-05,0,1
7.717366e-06,0.0001148425,0,1
-1.059602e-05,0.0002111094,0,1
-4.437533e-06,0.0003239069,0,1
2.035846e-05,0.0004392974,0,1
5.455425e-05,0.0005514466,0,1
8.939829e-05,0.0006622995,0,1
0.0001221355,0.0007697488,0,1
0.0001498487,0.0008627744,0,1
0.0001673517,0.000926142,0,1
0.0001628139,0.0009468864,0,1
0.0001339663,0.0009235489,0,1
9.68533e-05,0.0008755776,0,1
6.849186e-05,0.0008324682,0,1
5.552663e-05,0.000817396,0,1
4.693717e-05,0.0008308475,0,1
2.278944e-05,0.0008491609,0,1
-3.117831e-05,0.00084203,0,1
-0.0001146419,0.0007935724,0,1
-0.000213988,0.0007049226,0,1
-0.0003052308,0.0005914768,0,1
-0.0003710293,0.0004752759,0,1
-0.0004057112,0.0003694472,0,1
-0.0004211074,0.0002785285,0,1
-0.0004407173,0.0001968476,0,1
-0.0004799371,0.0001122495,0,1
-0.0005347152,1.663096e-05,0,1
-0.000589007,-8.903562e-05,0,1
-0.0006343853,-0.0001924333,0,1
-0.0006753879,-0.0002831898,0,1
-0.0007120146,-0.0003543365,0,1
-0.000735352,-0.0004084663,0,1
-0.0007325969,-0.0004569239,0,1
-0.0006964564,-0.000511864,0,1
-0.000628551,-0.0005745832,0,1
-0.0005379565,-0.0006366542,0,1
-0.0004282383,-0.0006894876,0,1
-0.0002971275,-0.0007266005,0,1
-0.0001407345,-0.000750262,0,1
3.737532e-05,-0.0007643617,0,1
0.0002156472,-0.0007763545,0,1
0.0003569682,-0.0007906163,0,1
0.0004318424,-0.0008134675,0,1
0.0004420525,-0.0008431255,0,1
0.0004193634,-0.0008708386,0,1
0.0003913261,-0.0008851003,0,1
0.0003681507,-0.0008880175,0,1
0.0003524304,-0.0008922312,0,1
0.0003470822,-0.0009118411,0,1
0.0003517821,-0.0009434438,0,1
0.0003598854,-0.0009664571,0,1
0.0003606957,-0.0009611089,0,1
0.0003501615,-0.0009231857,0,1
0.0003290929,-0.0008672731,0,1
0.000307052,-0.0008103882,0,1
0.0002840388,-0.0007560964,0,1
0.0002542187,-0.0006891634,0,1
0.0002159713,-0.0005745832,0,1
0.0001736723,-0.0003862634,0,1
0.0001388282,-0.0001360346,0,1
0.0001211631,0.0001402868,0,1
0.0001216493,0.0004025085,0,1
0.0001368834,0.0006281036,0,1
0.0001623277,0.0008096169,0,1
0.0002007372,0.0009522345,0,1
0.0002493568,0.001057091,0,1
0.0003021901,0.001123214,0,1
0.0003491891,0.001150603,0,1
0.0003827366,0.001146389,0,1
0.0003934329,0.001127752,0,1
0.0003785229,0.001104576,0,1
0.0003373583,0.001067787,0,1
0.0002790148,0.001002637,0,1
0.0002167816,0.0009050734,0,1
0.0001701068,0.0007932483,0,1
0.0001513072,0.000688554,0,1
0.0001670276,0.0006037938,0,1
0.0002104611,0.0005321609,0,1
0.0002618358,0.0004598797,0,1
0.0002997591,0.0003777126,0,1
0.000309321,0.000289387,0,1
0.0002887387,0.0002059233,0,1
0.0002503292,0.0001367214,0,1
0.0002051129,8.46984e-05,0,1
0.0001663793,4.855783e-05,0,1
0.000143204,2.262738e-05,0,1
0.0001346145,3.017472e-06,0,1
0.0001237561,-1.448558e-05,0,1
8.680524e-05,-3.409549e-05,0,1
1.079661e-05,-5.727083e-05,0,1
-0.0001013526,-8.644259e-05,0,1
-0.0002374874,-0.0001183694,0,1
-0.0003789705,-0.0001509446,0,1
-0.0005112157,-0.0001765509,0,1
-0.0006232028,-0.000194216,0,1
-0.0007058561,-0.000213988,0,1
-0.0007535033,-0.0002473734,0,1
-0.0007701961,-0.0002982619,0,1
-0.0007630652,-0.0003591985,0,1
-0.0007347037,-0.0004141386,0,1
-0.0006821946,-0.000444769,0,1
-0.0006079687,-0.0004429862,0,1
-0.0005157535,-0.0004104111,0,1
-0.0004123559,-0.0003564434,0,1
-0.0003094444,-0.0002956689,0,1
-0.0002199844,-0.0002425115,0,1
-0.0001522411,-0.0002055606,0,1
-0.0001062146,-0.0001921092,0,1
-6.537409e-05,-0.0002058847,0,1
-3.627206e-06,-0.0002460769,0,1
9.231547e-05,-0.0003050687,0,1
0.0002115956,-0.0003692465,0,1
0.0003222862,-0.0004238625,0,1
0.0003974845,-0.000462272,0,1
0.0004380009,-0.0004763717,0,1
0.0004640934,-0.0004637306,0,1
0.0004924549,-0.0004292107,0,1
0.0005245438,-0.0003760533,0,1
0.0005469088,-0.0003026377,0,1
0.000547395,-0.0002062088,0,1
0.0005148199,-9.924574e-05,0,1
0.0004498317,-7.192643e-06,0,1
0.0003637749,4.45062e-05,0,1
0.0002752873,5.001642e-05,0,1
0.0002025199,2.246531e-05,0,1
0.0001500107,-1.497178e-05,0,1
0.0001128978,-3.960571e-05,0,1
8.064677e-05,-3.960571e-05,0,1
4.126489e-05,-2.372331e-05,0,1
-1.140634e-05,-1.221667e-05,0,1
-8.093236e-05,-2.177852e-05,0,1
-0.0001632615,-5.192267e-05,0,1
-0.0002509389,-8.40116e-05,0,1
-0.0003391024,-9.746302e-05,0,1
-0.0004290486,-8.109443e-05,0,1
-0.0005199672,-3.766092e-05,0,1
-0.0006026206,1.938607e-05,0,1
-0.0006653398,7.238143e-05,0,1
-0.0006974287,0.0001078737,0,1
-0.0006904599,0.0001140322,0,1
-0.0006423265,9.490851e-05,0,1
-0.0005554595,6.281957e-05,0,1
-0.0004428242,2.829966e-05,0,1
-0.0003241924,-2.330684e-06,0,1
-0.0002169052,-2.242678e-05,0,1
-0.0001300382,-3.604027e-05,0,1
-6.294311e-05,-4.625038e-05,0,1
-8.813297e-06,-5.289507e-05,0,1
3.316162e-05,-5.64605e-05,0,1
6.152305e-05,-6.197072e-05,0,1
7.173317e-05,-7.428769e-05,0,1
6.622294e-05,-9.405965e-05,0,1
5.358185e-05,-0.0001133454,0,1
4.855783e-05,-0.000119828,0,1
5.730935e-05,-0.0001075111,0,1
7.772959e-05,-7.396356e-05,0,1
0.000101067,-2.518189e-05,0,1
0.0001213252,3.462021e-05,0,1
0.0001417454,0.000101067,0,1
0.0001752929,0.000165569,0,1
0.0002321778,0.0002184023,0,1
0.0003038107,0.0002600531,0,1
0.0003777126,0.0003000832,0,1
0.0004392974,0.00035162,0,1
0.0004725208,0.0004188772,0,1
0.0004618245,0.0004909963,0,1
0.0004002396,0.0005490156,0,1
0.0003004074,0.0005755944,0,1
0.0001861513,0.0005616568,0,1
8.145709e-05,0.0005107683,0,1
-2.492749e-06,0.0004360561,0,1
-6.213279e-05,0.0003582647,0,1
-0.0001020008,0.0002937627,0,1
-0.0001269589,0.0002504913,0,1
-0.0001303623,0.0002247229,0,1
-0.0001039456,0.0002086784,0,1
-5.127441e-05,0.000192958,0,1
1.22552e-05,0.0001715654,0,1
6.735741e-05,0.0001388282,0,1
0.000105929,9.814982e-05,0,1
0.0001289422,5.487838e-05,0,1
0.000148228,1.484824e-05,0,1
0.0001675138,-2.031993e-05,0,1
0.0001699448,-5.030202e-05,0,1
0.0001312112,-7.688073e-05,0,1
4.547859e-05,-0.0001032974,0,1
-6.780507e-05,-0.0001342519,0,1
-0.0001712027,-0.0001770371,0,1
-0.0002301945,-0.0002337599,0,1
-0.0002295462,-0.0003019894,0,1
-0.0001794681,-0.0003690845,0,1
-0.0001039456,-0.0004165696,0,1
-3.458168e-05,-0.00042759,0,1
8.527692e-06,-0.0003955011,0,1
1.808955e-05,-0.0003339163,0,1
-3.858999e-07,-0.0002655248,0,1
-3.085418e-05,-0.0002144742,0,1
-5.030202e-05,-0.0001909747,0,1
-4.47918e-05,-0.0001893541,0,1
-1.448558e-05,-0.00019924,0,1
3.170304e-05,-0.000213988,0,1
8.210535e-05,-0.0002233878,0,1
0.0001331559,-0.0002138259,0,1
0.0001772377,-0.0001757406,0,1
0.0002104611,-0.0001170729,0,1
0.0002313675,-5.69467e-05,0,1
0.000242388,-1.545797e-05,0,1
0.00024255,-3.789272e-06,0,1
0.0002258573,-1.821308e-05,0,1
0.0001908512,-4.38194e-05,0,1
0.0001386662,-5.289507e-05,0,1
7.691926e-05,-1.497178e-05,0,1
1.501031e-05,8.858796e-05,0,1
-4.300908e-05,0.0002485465,0,1
-9.649064e-05,0.0004261701,0,1
-0.0001477033,0.0005676532,0,1
-0.0001940539,0.0006373413,0,1
-0.0002300324,0.000626807,0,1
-0.0002517492,0.0005520949,0,1
-0.0002523975,0.0004448076,0,1
-0.0002253326,0.0003383307,0,1
-0.0001687718,0.0002558394,0,1
-8.887356e-05,0.0002051129,0,1
3.827799e-06,0.0001832341,0,1
9.377406e-05,0.0001840444,0,1
0.0001610312,0.0001989545,0,1
0.0001869616,0.0002162954,0,1
0.0001616794,0.0002284504,0,1
8.550872e-05,0.000235095,0,1
-2.939559e-05,0.00024255,0,1
-0.0001676373,0.000250005,0,1
-0.0003042584,0.0002553532,0,1
-0.0004081422,0.0002568118,0,1
-0.0004531963,0.0002509774,0,1
-0.00042759,0.0002376881,0,1
-0.0003416954,0.0002180782,0,1
-0.0002259808,0.0001960373,0,1
-0.0001063766,0.0001707551,0,1
-2.978945e-06,0.0001406109,0,1
7.351589e-05,0.0001039842,0,1
0.0001163011,6.346784e-05,0,1
0.0001248906,2.246531e-05,0,1
0.0001070634,-1.643037e-05,0,1
7.400208e-05,-5.613637e-05,0,1
4.175109e-05,-9.811128e-05,0,1
2.619281e-05,-0.0001363587,0,1
4.02925e-05,-0.0001626133,0,1
9.328786e-05,-0.0001754164,0,1
0.0001840444,-0.0001831956,0,1
0.0003004074,-0.0001963229,0,1
0.0004141773,-0.0002224154,0,1
0.000497803,-0.0002616352,0,1
0.0005357263,-0.0003053928,0,1
0.0005287575,-0.0003410472,0,1
0.0004919686,-0.0003611433,0,1
0.0004438352,-0.0003718396,0,1
0.0003952156,-0.0003812394,0,1
0.0003472443,-0.0003987424,0,1
0.0002879283,-0.0004296969,0,1
0.0002115956,-0.0004632444,0,1
0.0001240803,-0.000487068,0,1
3.769945e-05,-0.0004922541,0,1
-3.701266e-05,-0.0004781544,0,1
-9.017008e-05,-0.0004468758,0,1
-0.0001010285,-0.0004060354,0,1
-4.868137e-05,-0.0003622777,0,1
6.41161e-05,-0.0003170615,0,1
0.0001914995,-0.0002682799,0,1
0.0002644289,-0.0002128535,0,1
0.0002222919,-0.0001493239,0,1
4.239934e-05,-8.352541e-05,0,1
-0.0002447804,-2.664048e-05,0,1
-0.0005697213,1.54965e-05,0,1
-0.0008533355,4.418206e-05,0,1
-0.001041169,6.249545e-05,0,1
-0.001107616,7.140904e-05,0,1
-0.001059483,7.043665e-05,0,1
-0.0009296683,6.978839e-05,0,1
-0.0007669547,7.772959e-05,0,1
-0.0006131548,9.328786e-05,0,1
-0.0004912817,0.0001049566,0,1
-0.0004018217,0.0001026876,0,1
-0.0003339163,9.26396e-05,0,1
-0.0002757348,9.717743e-05,0,1
-0.0002186879,0.0001417454,0,1
-0.0001596961,0.0002372019,0,1
-9.827335e-05,0.0003598854,0,1
-3.63644e-05,0.0004644175,0,1
2.295151e-05,0.0005114165,0,1
7.886404e-05,0.0004869446,0,1
0.0001305629,0.0004004017,0,1
0.0001731861,0.000277232,0,1
0.000202844,0.0001487142,0,1
0.0002179161,4.693717e-05,0,1
0.0002112714,-6.058186e-06,0,1
0.000178048,-1.075808e-05,0,1
0.0001221355,1.290346e-05,0,1
5.552663e-05,4.580272e-05,0,1
-1.464765e-05,7.789165e-05,0,1
-8.547019e-05,0.0001107909,0,1
-0.000149486,0.0001469315,0,1
-0.0001911368,0.0001819376,0,1
-0.0001951884,0.0002120818,0,1
-0.0001533756,0.0002362295,0,1
-6.650855e-05,0.0002535705,0,1
5.730935e-05,0.0002551911,0,1
0.0001999268,0.0002239125,0,1
0.0003333067,0.0001519555,0,1
0.0004328148,5.115087e-05,0,1
0.0004866205,-4.997789e-05,0,1
0.0004914824,-0.0001266348,0,1
0.0004485351,-0.0001723372,0,1
0.0003649094,-0.0001951884,0,1
0.0002556773,-0.0002086398,0,1
0.0001521176,-0.0002217671,0,1
9.247754e-05,-0.0002306807,0,1
9.588091e-05,-0.0002274394,0,1
0.0001487142,-0.0002060468,0,1
0.0002239125,-0.0001665028,0,1
0.0002981384,-0.0001209625,0,1
0.0003644232,-8.158062e-05,0,1
0.0004277907,-5.565017e-05,0,1
0.0004900239,-4.236082e-05,0,1
0.0005370228,-3.863332e-05,0,1
0.0005480433,-4.009191e-05,0,1
0.000512551,-4.560212e-05,0,1
0.0004318424,-5.386745e-05,0,1
0.0003187208,-5.953974e-05,0,1
0.0001963614,-5.856735e-05,0,1
8.372601e-05,-4.722278e-05,0,1
-4.923729e-06,-3.134038e-05,0,1
-6.278104e-05,-1.610624e-05,0,1
-0.0001002181,1.072688e-06,0,1
-0.0001319829,2.457216e-05,0,1
-0.0001724993,4.936815e-05,0,1
-0.0002254946,6.395404e-05,0,1
-0.0002943724,5.860588e-05,0,1
-0.0003762153,2.927205e-05,0,1
-0.000459679,-1.99958e-05,0,1
-0.0005283947,-7.833932e-05,0,1
-0.0005702075,-0.0001384655,0,1
-0.0005762039,-0.0001981056,0,1
-0.000544115,-0.0002609869,0,1
-0.0004833405,-0.0003339163,0,1
-0.0004130042,-0.0004285624,0,1
-0.0003587123,-0.0005405495,0,1
-0.0003399127,-0.0006517263,0,1
-0.0003557951,-0.0007322728,0,1
-0.0003961493,-0.0007582033,0,1
-0.0004413656,-0.000720442,0,1
-0.0004682684,-0.0006266062,0,1
-0.0004604893,-0.0004946851,0,1
-0.0004092767,-0.0003463953,0,1
-0.0003141443,-0.0001984297,0,1
-0.0001838438,-5.013995e-05,0,1
-3.182657e-05,0.0001132219,0,1
0.0001214872,0.0002997591,0,1
0.0002558394,0.0004939134,0,1
0.0003495132,0.0006676476,0,1
0.0003906778,0.0007895208,0,1
0.0003819262,0.0008305234,0,1
0.0003295791,0.0007809313,0,1
0.0002417397,0.0006606788,0,1
0.0001320215,0.0005234093,0,1
1.59827e-05,0.0004451317,0,1
-8.919769e-05,0.0004862963,0,1
-0.0001707166,0.0006459308,0,1
-0.0002277635,0.000854509,0,1
-0.0002642282,0.00101544,0,1
-0.0002830278,0.00106017,0,1
-0.0002828657,0.0009765443,0,1
-0.0002627696,0.0008041067,0,1
-0.0002243602,0.0006033076,0,1
-0.0001724993,0.0004271425,0,1
-0.0001199901,0.0002973281,0,1
-7.120844e-05,0.0002085163,0,1
-2.404744e-05,0.0001440143,0,1
2.133085e-05,8.194328e-05,0,1
5.649903e-05,3.179537e-06,0,1
7.740546e-05,-9.908367e-05,0,1
0.0001020394,-0.000216581,0,1
0.0001589243,-0.0003326198,0,1
0.0002649151,-0.0004288866,0,1
0.0004112601,-0.0004967919,0,1
0.0005715428,-0.0005343911,0,1
0.000720643,-0.0005399013,0,1
0.0008436506,-0.0005151053,0,1
0.0009391072,-0.0004640547,0,1
0.001005392,-0.0003932322,0,1
0.001035374,-0.0003128478,0,1
0.00102095,-0.0002371633,0,1
0.0009642274,-0.0001728234,0,1
0.0008797912,-0.0001258245,0,1
0.0007830382,-9.535618e-05,0,1
0.0006828817,-8.482193e-05,0,1
0.0005883976,-9.179074e-05,0,1
0.0005086614,-0.0001041077,0,1
0.0004430249,-0.0001067007,0,1
0.0003828986,-9.227693e-05,0,1
0.0003156415,-6.294311e-05,0,1
0.0002307193,-2.728874e-05,0,1
0.000130887,3.827799e-06,0,1
3.073064e-05,2.489629e-05,0,1
-5.046408e-05,3.251336e-05,0,1
-9.179074e-05,2.700314e-05,0,1
-7.720486e-05,1.014835e-05,0,1
-5.734056e-06,-1.643037e-05,0,1
9.21534e-05,-5.257093e-05,0,1
0.0001657311,-9.746302e-05,0,1
0.0001783722,-0.0001478653,0,1
0.0001248906,-0.0001981056,0,1
3.18651e-05,-0.0002431597,0,1
-5.743289e-05,-0.0002865932,0,1
-0.0001118868,-0.0003297026,0,1
-0.0001284175,-0.000367788,0,1
-0.0001219349,-0.0003935563,0,1
-0.0001107524,-0.0004016596,0,1
-0.0001164247,-0.0003967976,0,1
-0.00015451,-0.0003867496,0,1
-0.0002277635,-0.0003739464,0,1
-0.0003235441,-0.0003570916,0,1
-0.0004194868,-0.0003290543,0,1
-0.000496954,-0.0002797865,0,1
-0.0005486528,-0.0002112329,0,1
-0.000578959,-0.0001399241,0,1
-0.0005992171,-8.709085e-05,0,1
-0.0006196374,-5.937768e-05,0,1
-0.0006411921,-5.062615e-05,0,1
-0.0006543194,-4.300908e-05,0,1
-0.0006437852,-2.777494e-05,0,1
-0.0005984068,-8.165035e-06,0,1
-0.0005253154,8.527692e-06,0,1
-0.0004410415,2.068259e-05,0,1
-0.000370543,3.575467e-05,0,1
-0.0003366714,5.893001e-05,0,1
-0.0003434782,9.037068e-05,0,1
-0.0003815635,0.0001239182,0,1
-0.0004308313,0.0001513072,0,1
-0.0004752372,0.0001686482,0,1
-0.0005018159,0.0001707551,0,1
-0.000504409,0.0001547106,0,1
-0.0004826922,0.0001235941,0,1
-0.0004369898,8.405014e-05,0,1
-0.0003658432,5.487838e-05,0,1
-0.0002652006,5.309566e-05,0,1
-0.0001402483,8.648112e-05,0,1
-9.623623e-06,0.0001470936,0,1
0.0001007429,0.0002156472,0,1
0.0001722137,0.0002678322,0,1
0.0001986303,0.0002812837,0,1
0.0001898788,0.0002558394,0,1
0.000163138,0.0002044647,0,1
0.0001334801,0.0001477418,0,1
0.0001103047,0.000105929,0,1
9.442231e-05,9.004655e-05,0,1
8.275361e-05,0.0001054428,0,1
7.108491e-05,0.0001508211,0,1
5.682316e-05,0.0002213195,0,1
3.948217e-05,0.0003081865,0,1
1.517237e-05,0.0003947294,0,1
-2.09682e-05,0.0004637693,0,1
-6.942573e-05,0.0005018546,0,1
-0.0001212866,0.0005039615,0,1
-0.0001621271,0.0004751139,0,1
-0.0001784957,0.000426008,0,1
-0.0001674752,0.0003681507,0,1
-0.0001340898,0.0003115899,0,1
-8.854943e-05,0.0002649151,0,1
-4.090223e-05,0.00022764,0,1
-2.654814e-06,0.0001944166,0,1
1.776542e-05,0.0001590864,0,1
1.711715e-05,0.0001094944,0,1
-6.058186e-06,3.267542e-05,0,1
-4.641245e-05,-7.931171e-05,0,1
-9.649064e-05,-0.0002143121,0,1
-0.0001439758,-0.0003436402,0,1
-0.0001686097,-0.0004298589,0,1
-0.0001536997,-0.0004488206,0,1
-8.725291e-05,-0.0004032803,0,1
3.218923e-05,-0.0003185201,0,1
0.0001918236,-0.0002271153,0,1
0.0003584268,-0.0001527273,0,1
0.0004995857,-0.0001032974,0,1
0.0005966629,-7.752899e-05,0,1
0.0006459308,-7.120844e-05,0,1
0.0006575995,-8.595638e-05,0,1
0.0006345862,-0.0001240417,0,1
0.000572191,-0.000176713,0,1
0.0004676588,-0.0002241981,0,1
0.0003315239,-0.0002454286,0,1
0.0001916615,-0.0002284118,0,1
7.659513e-05,-0.000181737,0,1
1.234753e-06,-0.000119828,0,1
-4.155049e-05,-5.937768e-05,0,1
-6.569822e-05,-9.947754e-06,0,1
-8.336335e-05,2.489629e-05,0,1
-0.0001008664,4.82337e-05,0,1
-0.0001240417,5.94162e-05,0,1
-0.0001549962,5.94162e-05,0,1
-0.0001883817,5.666109e-05,0,1
-0.0002203085,6.217132e-05,0,1
-0.0002525595,8.259155e-05,0,1
-0.0002877277,0.0001148425,0,1
-0.000328082,0.00015309,0,1
-0.0003674638,0.0001846927,0,1
-0.0003972838,0.0002012234,0,1
-0.0004117076,0.0001986303,0,1
-0.0004060354,0.000180479,0,1
-0.0003737844,0.0001553589,0,1
-0.0003209511,0.0001347766,0,1
-0.0002543422,0.0001260251,0,1
-0.0001781716,0.0001310491,0,1
-9.762509e-05,0.0001469315,0,1
-2.177852e-05,0.0001691344,0,1
4.385793e-05,0.0001825859,0,1
9.571884e-05,0.0001720516,0,1
0.0001292664,0.0001341283,0,1
0.0001522796,7.513654e-05,0,1
0.0001822617,4.638125e-06,0,1
0.0002273159,-7.266703e-05,0,1
0.0002861456,-0.0001561307,0,1
0.0003480546,-0.0002408908,0,1
0.0004002396,-0.0003233821,0,1
0.0004279528,-0.0004037664,0,1
0.0004179048,-0.0004812336,0,1
0.0003652335,-0.0005536768,0,1
0.00027707,-0.0006141272,0,1
0.0001765894,-0.0006523746,0,1
8.988449e-05,-0.0006520505,0,1
3.218923e-05,-0.0006005137,0,1
9.013889e-06,-0.0004917679,0,1
2.01964e-05,-0.0003324577,0,1
5.730935e-05,-0.0001467309,0,1
0.0001093323,3.056858e-05,0,1
0.0001603829,0.0001709172,0,1
0.0002015475,0.000257298,0,1
0.0002359054,0.0002892249,0,1
0.0002649151,0.0002804733,0,1
0.0002869559,0.0002487085,0,1
0.0003059176,0.0002140265,0,1
0.0003310377,0.0001869616,0,1
0.0003626405,0.000170431,0,1
0.0003921364,0.0001621656,0,1
0.0004099636,0.000160707,0,1
0.0004114222,0.0001715654,0,1
0.0003992672,0.0002085163,0,1
0.0003817642,0.0002743149,0,1
0.0003725265,0.000356482,0,1
0.000378685,0.0004273046,0,1
0.0003922984,0.0004639314,0,1
0.0003952156,0.0004561522,0,1
0.0003762539,0.0004098015,0,1
0.0003260137,0.0003451374,0,1
0.0002464396,0.0002833905,0,1
0.0001564933,0.0002341226,0,1
7.935024e-05,0.0001939304,0,1
3.202716e-05,0.0001586002,0,1
1.873781e-05,0.0001255389,0,1
3.105477e-05,9.928428e-05,0,1
5.277153e-05,8.502253e-05,0,1
6.281957e-05,8.356394e-05,0,1
4.564065e-05,8.988449e-05,0,1
-1.196227e-06,0.000103498,0,1
-7.039812e-05,0.0001177597,0,1
-0.0001572651,0.0001221355,0,1
-0.0002643903,0.0001078737,0,1
-0.0003770257,7.724339e-05,0,1
-0.0004702132,4.466826e-05,0,1
-0.0005173742,1.54965e-05,0,1
-0.0005102433,-1.918548e-05,0,1
-0.00046211,-6.942573e-05,0,1
-0.0003979321,-0.0001337657,0,1
-0.000335699,-0.0002000504,0,1
-0.0002874036,-0.0002468872,0,1
-0.0002574215,-0.0002652006,0,1
-0.0002429977,-0.0002655248,0,1
-0.0002395943,-0.000263742,0,1
-0.0002402425,-0.0002677937,0,1
-0.0002395943,-0.0002765452,0,1
-0.0002334358,-0.0002794623,0,1
-0.0002152845,-0.0002656868,0,1
-0.0001820611,-0.0002340841,0,1
-0.0001449482,-0.0001848162,0,1
-0.0001204763,-0.0001243659,0,1
-0.000122097,-6.342931e-05,0,1
-0.000134738,-1.335113e-05,0,1
-0.0001279313,1.776542e-05,0,1
-7.769106e-05,2.441009e-05,0,1
1.452411e-05,1.720949e-06,0,1
0.0001216493,-4.689865e-05,0,1
0.0001991165,-0.0001060525,0,1
0.0002099749,-0.0001491618,0,1
0.0001433661,-0.0001543479,0,1
2.408596e-05,-0.0001255003,0,1
-0.000104918,-9.017008e-05,0,1
-0.0002052365,-7.315322e-05,0,1
-0.0002556388,-8.563225e-05,0,1
-0.0002629317,-0.0001212866,0,1
-0.0002493182,-0.0001616409,0,1
-0.0002352185,-0.0001906506,0,1
-0.0002282497,-0.0001985918,0,1
-0.000233922,-0.000181737,0,1
-0.0002579077,-0.0001449482,0,1
-0.0003099306,-0.0001021629,0,1
-0.0003849669,-6.310517e-05,0,1
-0.0004616237,-3.21507e-05,0,1
-0.000509433,-7.516774e-06,0,1
-0.0005074882,1.841368e-05,0,1
-0.0004544929,5.001642e-05,0,1
-0.0003710293,8.405014e-05,0,1
-0.000288538,0.0001125736,0,1
-0.0002253326,0.0001250527,0,1
-0.0001849783,0.0001151667,0,1
-0.0001624512,8.486046e-05,0,1
-0.0001480274,4.661304e-05,0,1
-0.0001368449,1.776542e-05,0,1
-0.0001253383,1.160693e-05,0,1
-0.0001042698,3.429608e-05,0,1
-7.007399e-05,8.178122e-05,0,1
-2.210265e-05,0.0001402868,0,1
3.526847e-05,0.0001939304,0,1
9.507057e-05,0.0002334744,0,1
0.0001451488,0.0002478982,0,1
0.0001633001,0.0002321778,0,1
0.0001349386,0.0001902029,0,1
6.654708e-05,0.0001292664,0,1
-8.165035e-06,5.325772e-05,0,1
-4.576419e-05,-3.863332e-05,0,1
-1.173047e-05,-0.0001483515,0,1
9.750156e-05,-0.0002699005,0,1
0.0002556773,-0.0003922598,0,1
0.0004229288,-0.0005084606,0,1
0.000557281,-0.0006089411,0,1
0.0006318311,-0.0006797637,0,1
0.0006451205,-0.0007103939,0,1
0.0006127074,-0.0007050458,0,1
0.0005545259,-0.0006737672,0,1
0.0004884033,-0.0006272545,0,1
0.0004196875,-0.0005661559,0,1
0.0003474063,-0.0004865818,0,1
0.0002692908,-0.0003899909,0,1
0.0001827479,-0.0002843243,0,1
9.101894e-05,-0.0001762268,0,1
-1.034161e-06,-6.48879e-05,0,1
-8.514606e-05,5.860588e-05,0,1
-0.0001451102,0.0002132162,0,1
-0.0001723372,0.0004175806,0,1
-0.0001665028,0.0006718613,0,1
-0.0001306864,0.0009399176,0,1
-6.991193e-05,0.001162758,0,1
3.989864e-06,0.001283983,0,1
7.52986e-05,0.001277338,0,1
0.0001295905,0.001153196,0,1
0.0001592484,0.0009520725,0,1
0.0001620036,0.0007347427,0,1
0.0001391524,0.0005554983,0,1
0.0001028497,0.0004444835,0,1
6.946425e-05,0.000398619,0,1
5.277153e-05,0.0003953777,0,1
5.730935e-05,0.0004076947,0,1
7.448828e-05,0.0004190393,0,1
8.972242e-05,0.0004187151,0,1
8.567078e-05,0.0004000776,0,1
5.341979e-05,0.0003655576,0,1
5.772582e-06,0.0003328204,0,1
-3.409549e-05,0.0003203414,0,1
-5.127441e-05,0.0003305515,0,1
-4.43056e-05,0.0003467581,0,1
-1.124428e-05,0.0003433547,0,1
4.35338e-05,0.0003025142,0,1
0.0001073875,0.0002218057,0,1
0.000162976,0.0001128978,0,1
0.0001905271,-1.124428e-05,0,1
0.0001790204,-0.0001344139,0,1
0.0001257009,-0.0002460769,0,1
3.316162e-05,-0.0003472056,0,1
-8.611845e-05,-0.0004418518,0,1
-0.0002157707,-0.0005283947,0,1
-0.0003350507,-0.0006005137,0,1
-0.0004251591,-0.0006488092,0,1
-0.0004752372,-0.0006676087,0,1
-0.0004800992,-0.0006567503,0,1
-0.0004444448,-0.0006188271,0,1
-0.000380267,-0.0005499493,0,1
-0.0003063652,-0.0004465517,0,1
-0.0002316531,-0.0003141443,0,1
-0.0001580754,-0.0001705545,0,1
-8.692878e-05,-4.05781e-05,0,1
-1.967167e-05,5.99024e-05,0,1
4.045456e-05,0.0001250527,0,1
8.712937e-05,0.0001584381,0,1
0.0001143563,0.0001639484,0,1
0.0001218114,0.0001445005,0,1
0.0001171115,0.0001030118,0,1
0.0001103047,4.985435e-05,0,1
0.0001064152,-4.275467e-06,0,1
0.0001114392,-4.625038e-05,0,1
0.000130725,-7.817725e-05,0,1
0.0001663793,-0.0001131834,0,1
0.0002107852,-0.0001622891,0,1
0.000250005,-0.0002366771,0,1
0.0002735045,-0.0003363473,0,1
0.0002806354,-0.0004512515,0,1
0.0002752873,-0.0005643732,0,1
0.000257298,-0.0006564262,0,1
0.0002218057,-0.0007162283,0,1
0.000165569,-0.0007358382,0,1
9.523264e-05,-0.0007167145,0,1
2.586868e-05,-0.0006698776,0,1
-2.339918e-05,-0.0006022964,0,1
-4.009191e-05,-0.0005126743,0,1
-3.117831e-05,-0.000405225,0,1
-1.659243e-05,-0.0002955068,0,1
-1.270286e-05,-0.0002055606,0,1
-2.566809e-05,-0.0001452723,0,1
-5.289507e-05,-0.0001164247,0,1
-8.628052e-05,-0.000112211,0,1
-0.0001149661,-0.0001201522,0,1
-0.0001360346,-0.0001285796,0,1
-0.0001540238,-0.000129714,0,1
-0.0001752544,-0.0001235555,0,1
-0.0002005366,-0.0001126972,0,1
-0.0002237119,-9.373552e-05,0,1
-0.0002370013,-5.905355e-05,0,1
-0.0002415391,-3.465141e-06,0,1
-0.0002439701,6.508849e-05,0,1
-0.0002429977,0.0001367214,0,1
-0.0002305186,0.0001996027,0,1
-0.0001924333,0.0002508154,0,1
-0.0001250141,0.0003013798,0,1
-3.652646e-05,0.0003624784,0,1
5.260946e-05,0.0004368664,0,1
0.0001213252,0.0005128751,0,1
0.0001558451,0.0005700842,0,1
0.0001560072,0.0005956905,0,1
0.000130887,0.0005851563,0,1
0.0001020394,0.0005413986,0,1
9.020862e-05,0.0004702519,0,1
0.0001028497,0.000378685,0,1
0.0001302388,0.0002803113,0,1
0.0001564933,0.0001918236,0,1
0.0001670276,0.0001232699,0,1
0.0001509831,8.259155e-05,0,1
0.0001093323,7.513654e-05,0,1
5.244739e-05,9.409818e-05,0,1
-3.627206e-06,0.0001261871,0,1
-4.641245e-05,0.0001623277,0,1
-6.926366e-05,0.0001999268,0,1
-6.683268e-05,0.0002352571,0,1
-3.490581e-05,0.0002589186,0,1
1.987227e-05,0.0002584324,0,1
7.805372e-05,0.000227478,0,1
0.000120839,0.0001725378,0,1
0.0001394765,0.0001072255,0,1
0.000133318,5.115087e-05,0,1
0.0001117633,1.889987e-05,0,1
8.097089e-05,1.501031e-05,0,1
4.061663e-05,3.543054e-05,0,1
-1.043395e-05,7.20573e-05,0,1
-6.537409e-05,0.000115977,0,1
-0.0001071869,0.0001594105,0,1
-0.0001201522,0.0001996027,0,1
-0.0001008664,0.0002372019,0,1
-6.002594e-05,0.0002728562,0,1
-1.25408e-05,0.0003064038,0,1
2.34377e-05,0.0003368721,0,1
3.721326e-05,0.0003668542,0,1
2.667901e-05,0.0003966742,0,1
4.244267e-07,0.0004174185,0,1
-3.101625e-05,0.0004054258,0,1
-6.229485e-05,0.0003397893,0,1
-8.773911e-05,0.0002111094,0,1
-9.762509e-05,2.943412e-05,0,1
-8.482193e-05,-0.0001765509,0,1
-4.884343e-05,-0.000377836,0,1
-1.844488e-06,-0.0005509217,0,1
4.02925e-05,-0.000685598,0,1
6.217132e-05,-0.0007781372,0,1
6.103686e-05,-0.000822219,0,1
5.325772e-05,-0.0008118468,0,1
5.066468e-05,-0.0007473448,0,1
6.055066e-05,-0.0006403818,0,1
8.518459e-05,-0.0005086227,0,1
0.0001140322,-0.0003752429,0,1
0.0001279698,-0.0002561249,0,1
0.000105929,-0.0001592099,0,1
3.380988e-05,-8.968389e-05,0,1
-8.692878e-05,-4.252288e-05,0,1
-0.0002332737,-8.489166e-06,0,1
-0.0003698948,1.954813e-05,0,1
-0.0004679443,3.802358e-05,0,1
-0.0005136467,4.304761e-05,0,1
-0.0005074882,3.850978e-05,0,1
-0.0004629203,3.202716e-05,0,1
-0.0003967976,3.008238e-05,0,1
-0.000325651,3.964424e-05,0,1
-0.0002596904,6.233338e-05,0,1
-0.0002075054,9.020862e-05,0,1
-0.0001686097,0.0001098185,0,1
-0.0001379794,0.0001163011,0,1
-0.000104918,0.0001146805,0,1
-5.548811e-05,0.0001166253,0,1
1.889987e-05,0.0001328318,0,1
0.0001146805,0.0001626518,0,1
0.0002166196,0.0001996027,0,1
0.0003111037,0.0002380122,0,1
0.0003858158,0.0002777182,0,1
0.0004339493,0.0003227724,0,1
0.0004566384,0.000378685,0,1
0.0004569625,0.0004449697,0,1
0.0004316803,0.0005065545,0,1
0.0003780367,0.000547395,0,1
0.0003000832,0.0005640878,0,1
0.000200413,0.0005592257,0,1
8.388807e-05,0.0005302161,0,1
-3.895745e-05,0.0004765725,0,1
-0.0001546721,0.0004076947,0,1
-0.0002472114,0.0003352514,0,1
-0.0003102548,0.0002728562,0,1
-0.0003413713,0.0002290986,0,1
-0.0003321336,0.0002068957,0,1
-0.0002804347,0.0001989545,0,1
-0.0001950263,0.0001910133,0,1
-8.725291e-05,0.0001590864,0,1
2.635488e-05,9.26396e-05,0,1
0.0001245665,-9.947754e-06,0,1
0.0001974959,-0.0001400862,0,1
0.0002470879,-0.0002794623,0,1
0.00029198,-0.0004107352,0,1
0.0003477304,-0.0005238568,0,1
0.0004101256,-0.0006120203,0,1
0.0004632831,-0.00067085,0,1
0.0004934272,-0.0006954839,0,1
0.0004987754,-0.0006846256,0,1
0.0004824068,-0.000638599,0,1
0.0004438352,-0.0005587008,0,1
0.0003884089,-0.0004514136,0,1
0.0003218,-0.0003342404,0,1
0.0002527602,-0.0002254946,0,1
0.0001963614,-0.0001397621,0,1
0.0001663793,-8.563225e-05,0,1
0.0001603829,-5.856735e-05,0,1
0.0001539003,-3.879538e-05,0,1
0.0001257009,-6.058186e-06,0,1
7.724339e-05,4.677511e-05,0,1
2.959619e-05,0.0001128978,0,1
1.883015e-06,0.0001772377,0,1
-2.654814e-06,0.000220023,0,1
1.12828e-05,0.0002286124,0,1
3.089271e-05,0.0002030061,0,1
4.402e-05,0.0001517934,0,1
4.158902e-05,8.729144e-05,0,1
2.100672e-05,2.603075e-05,0,1
-1.545797e-05,-2.210265e-05,0,1
-6.278104e-05,-5.435365e-05,0,1
-0.0001120489,-7.250496e-05,0,1
-0.0001507825,-8.482193e-05,0,1
-0.0001728234,-0.0001013526,0,1
-0.000179306,-0.000127121,0,1
-0.0001789819,-0.0001613168,0,1
-0.0001857886,-0.0002034537,0,1
-0.0002144742,-0.0002483458,0,1
-0.0002674695,-0.0002912931,0,1
-0.0003318095,-0.0003204649,0,1
-0.0003807532,-0.0003225718,0,1
-0.0003967976,-0.0002908069,0,1
-0.0003767015,-0.0002285739,0,1
-0.0003374817,-0.0001509446,0,1
-0.0002968033,-7.250496e-05,0,1
-0.0002671454,-2.654814e-06,0,1
-0.0002449425,5.585077e-05,0,1
-0.0002199844,0.000101067,0,1
-0.000186761,0.0001352628,0,1
-0.0001473791,0.0001590864,0,1
-0.0001109144,0.0001702689,0,1
-9.033215e-05,0.0001671896,0,1
-0.0001005423,0.0001511452,0,1
-0.0001473791,0.0001305629,0,1
-0.0002300324,0.0001130598,0,1
-0.000335699,9.863601e-05,0,1
-0.0004402311,8.810177e-05,0,1
-0.0005141329,8.534666e-05,0,1
-0.0005377944,9.247754e-05,0,1
-0.0005113778,0.000108522,0,1
-0.0004470379,0.0001240803,0,1
-0.0003622777,0.0001304008,0,1
-0.000271197,0.000125863,0,1
-0.0001833576,0.0001093323,0,1
-0.0001055663,7.999851e-05,0,1
-4.43056e-05,4.077869e-05,0,1
-2.654814e-06,-4.599598e-06,0,1
2.473423e-05,-5.289507e-05,0,1
4.693717e-05,-9.843541e-05,0,1
7.870197e-05,-0.0001324691,0,1
0.0001286181,-0.0001496481,0,1
0.0001981441,-0.0001507825,0,1
0.0002777182,-0.0001421931,0,1
