EMG1,EMG2,class,user
0.0003098072,0.000192796,0,1
0.0003472443,0.000113384,0,1
0.0003940812,4.175109e-05,0,1
0.0004555039,7.069105e-06,0,1
0.0005289196,2.035846e-05,0,1
0.0006146522,6.946425e-05,0,1
0.0007060571,0.0001263492,0,1
0.0007890346,0.0001671896,0,1
0.0008481885,0.0001809652,0,1
0.0008729845,0.0001709172,0,1
0.0008606675,0.0001503349,0,1
0.0008193408,0.0001297526,0,1
0.0007637524,0.0001094944,0,1
0.0007033019,8.323981e-05,0,1
0.0006391241,4.02925e-05,0,1
0.000562305,-2.46957e-05,0,1
0.0004709002,-0.0001021629,0,1
0.0003649094,-0.0001765509,0,1
0.0002441707,-0.0002298704,0,1
0.000113384,-0.0002548284,0,1
-2.453363e-05,-0.0002517492,0,1
-0.0001658546,-0.0002241981,0,1
-0.0003037722,-0.0001810887,0,1
-0.0004233763,-0.0001404103,0,1
-0.0005107295,-0.0001267968,0,1
-0.0005582146,-0.0001488377,0,1
-0.0005703696,-0.0001940539,0,1
-0.0005601594,-0.0002421874,0,1
-0.0005411978,-0.000276221,0,1
-0.000514457,-0.0002930758,0,1
-0.0004713477,-0.000303448,0,1
-0.0004091146,-0.0003235441,0,1
-0.0003371576,-0.0003596847,0,1
-0.000271197,-0.0004070078,0,1
-0.000221605,-0.0004535205,0,1
-0.0001880575,-0.0004857715,0,1
-0.0001660166,-0.0004985746,0,1
-0.0001464067,-0.0004946851,0,1
-0.0001217728,-0.0004831784,0,1
-8.368748e-05,-0.00047702,0,1
-3.279896e-05,-0.0004830164,0,1
2.359977e-05,-0.0004972781,0,1
7.238143e-05,-0.0005105674,0,1
9.831188e-05,-0.0005138087,0,1
9.053275e-05,-0.0005074882,0,1
5.455425e-05,-0.0004907955,0,1
6.258778e-06,-0.0004590307,0,1
-4.592625e-05,-0.0004063595,0,1
-0.0001034594,-0.0003275957,0,1
-0.000171851,-0.0002269532,0,1
-0.000251101,-0.0001096179,0,1
-0.0003309991,1.419998e-05,0,1
-0.000402794,0.0001300767,0,1
-0.0004595169,0.000222616,0,1
-0.0005003574,0.0002880904,0,1
-0.0005227224,0.0003315239,0,1
-0.0005238568,0.0003598854,0,1
-0.0004995471,0.0003770643,0,1
-0.0004425001,0.0003914881,0,1
-0.0003527159,0.0004136911,0,1
-0.0002365151,0.0004477248,0,1
-0.0001091317,0.000478031,0,1
8.365628e-06,0.0004840274,0,1
0.0001033359,0.0004585832,0,1
0.0001660552,0.0004051016,0,1
0.0001889064,0.0003357376,0,1
0.0001658931,0.0002618358,0,1
0.0001023635,0.0001934442,0,1
1.938607e-05,0.0001323456,0,1
-5.953974e-05,7.562274e-05,0,1
-0.0001206384,1.695509e-05,0,1
-0.0001585616,-4.317115e-05,0,1
-0.0001746061,-9.681477e-05,0,1
-0.0001699062,-0.0001313347,0,1
-0.0001455964,-0.0001423551,0,1
-0.0001078352,-0.0001332795,0,1
-6.764301e-05,-0.000112211,0,1
-3.150244e-05,-8.773911e-05,0,1
8.041497e-06,-6.472583e-05,0,1
5.925414e-05,-4.187462e-05,0,1
0.0001197045,-1.464765e-05,0,1
0.0001748067,1.954813e-05,0,1
0.0002112714,6.379197e-05,0,1
0.0002235884,0.0001180839,0,1
0.0002169437,0.0001782101,0,1
0.0002018716,0.0002372019,0,1
0.0001893926,0.0002882525,0,1
0.000180479,0.0003307136,0,1
0.0001723757,0.0003653956,0,1
0.0001645966,0.0003867882,0,1
0.0001645966,0.0003892192,0,1
0.0001812893,0.0003618301,0,1
0.0002164575,0.000299597,0,1
0.0002631324,0.0002188885,0,1
0.0003271482,0.000148228,0,1
0.0004188772,0.0001146805,0,1
0.0005266506,0.000130887,0,1
0.0006211348,0.0001850168,0,1
0.0006835299,0.0002509774,0,1
0.0007042743,0.0003007315,0,1
0.0006820714,0.0003196932,0,1
0.0006253485,0.0003052694,0,1
0.0005631154,0.0002652392,0,1
0.0005289196,0.0002133783,0,1
0.0005315126,0.0001550348,0,1
0.0005480433,9.150514e-05,0,1
0.0005483674,2.716521e-05,0,1
0.0005200059,-3.798505e-05,0,1
0.0004674968,-0.0001058904,0,1
0.0004018603,-0.0001778474,0,1
0.0003337929,-0.0002507768,0,1
0.0002773941,-0.000313334,0,1
0.000239957,-0.0003569296,0,1
0.0002182402,-0.0003831841,0,1
0.0001958752,-0.0003961493,0,1
0.0001561692,-0.0003950149,0,1
8.680524e-05,-0.000372974,0,1
-7.678839e-06,-0.0003253268,0,1
-0.0001076731,-0.0002627696,0,1
-0.000194216,-0.0001935677,0,1
-0.0002572594,-0.000112373,0,1
-0.0002916173,-1.043395e-05,0,1
-0.0003016653,0.0001164632,0,1
-0.00030831,0.0002626462,0,1
-0.0003316474,0.0004169324,0,1
-0.0003841565,0.0005504743,0,1
-0.0004624341,0.0006334517,0,1
-0.0005509217,0.0006504686,0,1
-0.0006308199,0.0006151384,0,1
-0.0006915944,0.0005611706,0,1
-0.0007296797,0.0005157923,0,1
-0.0007368106,0.0004775448,0,1
-0.0006966184,0.0004289252,0,1
-0.0006155858,0.0003543751,0,1
-0.0005369841,0.0002527602,0,1
-0.0005248293,0.0001380179,0,1
-0.0006287131,2.878586e-05,0,1
-0.0008434496,-5.905355e-05,0,1
-0.001108588,-0.0001217728,0,1
-0.00134569,-0.0001634236,0,1
-0.001496087,-0.0001904885,0,1
-0.001549244,-0.0002042641,0,1
-0.001528824,-0.0002130156,0,1
-0.001463998,-0.0002222533,0,1
-0.001370324,-0.0002352185,0,1
-0.001251206,-0.000253694,0,1
-0.001108426,-0.0002773555,0,1
-0.0009445783,-0.0003015032,0,1
-0.0007641996,-0.0003246786,0,1
-0.000573935,-0.0003527159,0,1
-0.0003888564,-0.0003909633,0,1
-0.0002370013,-0.0004410415,0,1
-0.0001438137,-0.0004943609,0,1
-0.0001141558,-0.0005369841,0,1
-0.0001259865,-0.000556756,0,1
-0.0001467309,-0.000554001,0,1
-0.0001514308,-0.0005395772,0,1
-0.000127283,-0.0005394151,0,1
-6.893953e-05,-0.0005698834,0,1
3.154097e-05,-0.0006197995,0,1
0.0001765894,-0.0006596675,0,1
0.0003653956,-0.0006659881,0,1
0.0005856425,-0.0006389232,0,1
0.0008243649,-0.0005904656,0,1
0.00107346,-0.0005311498,0,1
0.00132531,-0.0004651892,0,1
0.001561439,-0.0003942046,0,1
0.001758835,-0.0003203028,0,1
0.001889784,-0.0002397564,0,1
0.001939539,-0.0001467309,0,1
0.001912474,-3.992984e-05,0,1
0.001823013,7.157111e-05,0,1
0.001693037,0.0001733481,0,1
0.001546529,0.0002615117,0,1
0.001408935,0.0003435168,0,1
0.001297272,0.0004297355,0,1
0.001215105,0.0005253541,0,1
0.001141689,0.0006174073,0,1
0.001041371,0.0006806127,0,1
0.0008780085,0.000685961,0,1
0.0006507927,0.0006234037,0,1
0.0003931088,0.0005107683,0,1
0.0001488763,0.000383709,0,1
-4.80331e-05,0.0002773941,0,1
-0.0001827094,0.0002109473,0,1
-0.0002585559,0.0001846927,0,1
-0.0002945344,0.0001837203,0,1
-0.0003141443,0.0001911753,0,1
-0.0003403989,0.0002017096,0,1
-0.0003848048,0.0002182402,0,1
-0.0004342347,0.0002435224,0,1
-0.0004679443,0.0002780424,0,1
-0.0004715097,0.000314345,0,1
-0.0004434724,0.0003386548,0,1
-0.0003925839,0.0003370341,0,1
-0.0003394265,0.0003000832,0,1
-0.0003049066,0.0002310434,0,1
-0.0003003688,0.0001427178,0,1
-0.0003250027,5.747142e-05,0,1
-0.0003663294,-1.059602e-05,0,1
-0.0004034423,-6.602235e-05,0,1
-0.0004272659,-0.0001152902,0,1
-0.0004483344,-0.0001558065,0,1
-0.0004867439,-0.0001812508,0,1
-0.0005505976,-0.0001890299,0,1
-0.0006290372,-0.0001784957,0,1
-0.0007063423,-0.0001548341,0,1
-0.0007680892,-0.0001235555,0,1
-0.0008076332,-8.709085e-05,0,1
-0.0008186536,-4.527799e-05,0,1
-0.000799854,4.244267e-07,0,1
-0.0007596618,3.996837e-05,0,1
-0.0007099077,5.99024e-05,0,1
-0.0006564262,4.742337e-05,0,1
-0.0005966241,-1.034161e-06,0,1
-0.0005238568,-7.833932e-05,0,1
-0.0004285624,-0.0001707166,0,1
-0.0003086341,-0.0002590421,0,1
-0.0001731475,-0.0003228959,0,1
-3.26369e-05,-0.0003523917,0,1
9.879808e-05,-0.0003497987,0,1
0.00021273,-0.0003253268,0,1
0.0003018659,-0.0002964792,0,1
0.0003636129,-0.0002827037,0,1
0.0004070464,-0.0002865932,0,1
0.0004464283,-0.0002930758,0,1
0.0004958582,-0.0002857829,0,1
0.0005579292,-0.0002572594,0,1
0.000626645,-0.00021415,0,1
0.0006964952,-0.0001707166,0,1
0.0007634282,-0.0001402483,0,1
0.0008227442,-0.0001316588,0,1
0.0008637467,-0.0001455964,0,1
0.0008768741,-0.0001733096,0,1
0.0008626123,-0.0002010227,0,1
0.0008251752,-0.0002191741,0,1
0.0007739625,-0.0002229016,0,1
0.0007251808,-0.0002076674,0,1
0.0006950366,-0.0001726613,0,1
0.0006913091,-0.0001167488,0,1
0.0007016813,-4.495386e-05,0,1
0.0007086502,3.60788e-05,0,1
0.00069844,0.0001245665,0,1
0.0006566271,0.0002205092,0,1
0.0005678153,0.0003156415,0,1
0.000433301,0.000388895,0,1
0.0002686426,0.0004138531,0,1
9.652917e-05,0.0003759298,0,1
-6.44017e-05,0.0002767458,0,1
-0.0001985918,0.0001368834,0,1
-0.0002993964,-1.513384e-05,0,1
-0.0003575778,-0.0001491618,0,1
-0.0003700569,-0.0002395943,0,1
-0.0003444506,-0.0002729798,0,1
-0.0002934,-0.0002459149,0,1
-0.0002233878,-0.0001697442,0,1
-0.0001451102,-6.618442e-05,0,1
-8.222889e-05,4.223728e-05,0,1
-6.213279e-05,0.0001365593,0,1
-0.000104756,0.0002039785,0,1
-0.0002107467,0.0002367157,0,1
-0.0003514194,0.000237526,0,1
-0.000484637,0.0002149989,0,1
-0.0005791211,0.0001773998,0,1
-0.0006199615,0.000135749,0,1
-0.000618665,0.000105929,0,1
-0.000601162,9.669123e-05,0,1
-0.000591276,0.0001072255,0,1
-0.0005922483,0.0001318594,0,1
-0.0005893312,0.0001684862,0,1
-0.0005663179,0.0002080301,0,1
-0.0005219121,0.0002422259,0,1
-0.0004728062,0.0002694529,0,1
-0.0004434724,0.0002947351,0,1
-0.0004480103,0.0003190449,0,1
-0.0004791268,0.0003452995,0,1
-0.0005151053,0.0003770643,0,1
-0.0005352014,0.000416122,0,1
-0.0005345531,0.0004593935,0,1
-0.0005283947,0.0004887274,0,1
-0.0005314739,0.0004838654,0,1
-0.0005399013,0.0004350837,0,1
-0.0005295291,0.0003579406,0,1
-0.0004760476,0.0002814457,0,1
-0.0003749188,0.0002292607,0,1
-0.0002473734,0.0002060853,0,1
-0.0001334415,0.0002055991,0,1
-7.493595e-05,0.000215161,0,1
-9.276313e-05,0.0002209954,0,1
-0.0001755785,0.0002166196,0,1
-0.0002778417,0.0001997648,0,1
-0.0003442885,0.000170431,0,1
-0.0003389403,0.0001310491,0,1
-0.000258718,7.918817e-05,0,1
-0.0001259865,1.274139e-05,0,1
3.380988e-05,-7.104638e-05,0,1
0.0001984683,-0.0001674752,0,1
0.0003467581,-0.0002598524,0,1
0.0004558281,-0.0003264613,0,1
0.0005062304,-0.00035304,0,1
0.0004900239,-0.0003421817,0,1
0.0004146635,-0.0003000446,0,1
0.0003008936,-0.0002290601,0,1
0.0001748067,-0.0001405724,0,1
5.649903e-05,-6.715681e-05,0,1
-4.365734e-05,-3.749886e-05,0,1
-0.0001173971,-6.229485e-05,0,1
-0.0001684476,-0.0001368449,0,1
-0.0002011848,-0.0002494803,0,1
-0.0002173914,-0.0003797808,0,1
-0.0002149604,-0.000501978,0,1
-0.0001964849,-0.0005972724,0,1
-0.0001708786,-0.0006617744,0,1
-0.0001415448,-0.0006967805,0,1
-0.0001115627,-0.0007078009,0,1
-8.82253e-05,-0.0006951598,0,1
-7.785312e-05,-0.0006629088,0,1
-8.352541e-05,-0.0006094273,0,1
-0.0001036215,-0.0005215878,0,1
-0.0001266348,-0.0003823738,0,1
-0.0001402483,-0.0001828714,0,1
-0.000137007,5.763349e-05,0,1
-0.0001126972,0.0002948972,0,1
-6.991193e-05,0.0004832171,0,1
-1.027188e-05,0.0005908285,0,1
6.703327e-05,0.0006026593,0,1
0.0001637863,0.0005245438,0,1
0.0002793389,0.0003828986,0,1
0.0004187151,0.0002166196,0,1
0.0005838597,7.108491e-05,0,1
0.0007611593,-4.761664e-06,0,1
0.0009311661,2.408596e-05,0,1
0.001066491,0.0001628139,0,1
0.001141689,0.0003884089,0,1
0.001136827,0.0006550064,0,1
0.001048339,0.0009100975,0,1
0.0009018321,0.001107979,0,1
0.0007313393,0.001216239,0,1
0.0005658705,0.001220939,0,1
0.0004187151,0.001128724,0,1
0.0002966799,0.0009617964,0,1
0.0002051129,0.0007540284,0,1
0.0001441764,0.000539778,0,1
0.0001070634,0.0003433547,0,1
8.486046e-05,0.0001838824,0,1
7.52986e-05,8.145709e-05,0,1
7.935024e-05,4.677511e-05,0,1
0.0001004187,6.444023e-05,0,1
0.0001318594,0.0001067393,0,1
0.0001641104,0.0001446626,0,1
0.0001799928,0.0001597346,0,1
0.000160545,0.0001498487,0,1
8.972242e-05,0.0001265113,0,1
-3.21507e-05,0.000111115,0,1
-0.0001856265,0.0001099806,0,1
-0.0003399127,0.0001125736,0,1
-0.0004655133,0.000101067,0,1
-0.0005437909,5.601284e-05,0,1
-0.0005702075,-3.409549e-05,0,1
-0.0005543251,-0.000161965,0,1
-0.0005172121,-0.0003040963,0,1
-0.0004766958,-0.000434883,0,1
-0.0004439586,-0.0005361738,0,1
-0.0004091146,-0.000603593,0,1
-0.0003533641,-0.000640868,0,1
-0.0002595283,-0.0006539953,0,1
-0.0001336036,-0.0006512401,0,1
1.002961e-07,-0.0006384369,0,1
0.0001081979,-0.0006176926,0,1
0.0001657311,-0.0005951655,0,1
0.000162976,-0.00058139,0,1
0.0001101427,-0.0005846313,0,1
2.327564e-05,-0.0006027826,0,1
-8.093236e-05,-0.0006282268,0,1
-0.0001825473,-0.0006489712,0,1
-0.0002632558,-0.0006543194,0,1
-0.0003097686,-0.0006377887,0,1
-0.0003149546,-0.0005993792,0,1
-0.000273628,-0.0005423322,0,1
-0.0001862748,-0.0004713477,0,1
-7.688073e-05,-0.0003906392,0,1
1.760335e-05,-0.000303286,0,1
7.124698e-05,-0.0002177155,0,1
9.426025e-05,-0.0001493239,0,1
0.0001193804,-0.0001152902,0,1
0.0001859892,-0.000127283,0,1
0.0003171001,-0.00018433,0,1
0.0004981271,-0.0002737901,0,1
0.0006866092,-0.0003713534,0,1
0.0008374922,-0.0004520619,0,1
0.0009198214,-0.0004982505,0,1
0.0009194973,-0.0005006815,0,1
0.0008387887,-0.0004634065,0,1
0.0006982779,-0.0003984183,0,1
0.0005334574,-0.0003186821,0,1
0.0003785229,-0.0002300324,0,1
0.0002563256,-0.0001329553,0,1
0.0001675138,-3.393342e-05,0,1
0.0001002567,5.1475e-05,0,1
4.709924e-05,0.0001106288,0,1
-6.176923e-08,0.0001453108,0,1
-4.884343e-05,0.0001684862,0,1
-0.0001007043,0.0001963614,0,1
-0.0001475412,0.0002378501,0,1
-0.0001784957,0.0002900352,0,1
-0.0001854645,0.000334117,0,1
-0.0001684476,0.0003535648,0,1
-0.0001384655,0.0003449753,0,1
-0.0001065387,0.0003179104,0,1
-8.07703e-05,0.0002918179,0,1
-7.137051e-05,0.0002843629,0,1
-8.271508e-05,0.0003023522,0,1
-0.0001084835,0.0003381686,0,1
-0.0001355484,0.000368961,0,1
-0.0001574272,0.0003744712,0,1
-0.0001755785,0.0003483787,0,1
-0.0001924333,0.0003055935,0,1
-0.0002113949,0.0002688046,0,1
-0.0002368392,0.0002478982,0,1
-0.0002639041,0.0002368777,0,1
-0.0002883759,0.0002171058,0,1
-0.0003117133,0.0001739964,0,1
-0.0003412093,0.0001064152,0,1
-0.000382698,2.700314e-05,0,1
-0.000434883,-4.074016e-05,0,1
-0.0004817198,-7.23429e-05,0,1
-0.0004972781,-5.581224e-05,0,1
-0.0004634065,4.313994e-06,0,1
-0.0003856151,9.199134e-05,0,1
-0.0002958309,0.0001859892,0,1
-0.0002360289,0.0002619979,0,1
-0.0002357047,0.0003077003,0,1
-0.000298424,0.0003185587,0,1
-0.000412518,0.0002952213,0,1
-0.0005552975,0.0002397949,0,1
-0.0006909461,0.0001633001,0,1
-0.0007880232,8.194328e-05,0,1
-0.0008301602,9.013889e-06,0,1
-0.000817195,-4.738484e-05,0,1
-0.0007609584,-8.40116e-05,0,1
-0.0006773326,-0.0001055663,0,1
-0.0005724764,-0.0001191798,0,1
-0.0004379622,-0.0001279313,0,1
-0.0002663351,-0.0001327933,0,1
-6.683268e-05,-0.0001313347,0,1
0.0001352628,-0.0001201522,0,1
0.0003171001,-0.0001013526,0,1
0.0004715484,-7.833932e-05,0,1
0.0005974732,-5.159854e-05,0,1
0.0006929298,-1.432352e-05,0,1
0.0007522457,3.55926e-05,0,1
0.0007707212,8.356394e-05,0,1
0.0007551629,0.0001069013,0,1
0.0007193465,9.701536e-05,0,1
0.000685961,7.092284e-05,0,1
0.0006669993,5.714729e-05,0,1
0.0006580857,8.259155e-05,0,1
0.0006483617,0.000160707,0,1
0.000626807,0.0002798251,0,1
0.0005879114,0.0004055878,0,1
0.0005319988,0.0004921307,0,1
0.0004602039,0.0005078511,0,1
0.0003798194,0.0004436732,0,1
0.0002947351,0.0003161277,0,1
0.0001986303,0.0001563313,0,1
8.437427e-05,-2.330684e-06,0,1
-4.090223e-05,-0.0001332795,0,1
-0.0001587237,-0.0002222533,0,1
-0.000248832,-0.0002702246,0,1
-0.0003006929,-0.0002921034,0,1
-0.0003168994,-0.000300855,0,1
-0.0003087962,-0.0002968033,0,1
-0.0002804347,-0.0002741142,0,1
-0.0002297083,-0.0002332737,0,1
-0.0001592099,-0.0001807646,0,1
-7.590833e-05,-0.0001256624,0,1
1.306552e-05,-8.320128e-05,0,1
0.0001022015,-7.250496e-05,0,1
0.0001808031,-9.405965e-05,0,1
0.0002402811,-0.0001292278,0,1
0.0002733424,-0.0001548341,0,1
0.0002762596,-0.0001562927,0,1
0.0002545429,-0.0001295519,0,1
0.0002216436,-7.769106e-05,0,1
0.000192958,-8.489166e-06,0,1
0.0001660552,7.367795e-05,0,1
0.0001222976,0.0001650828,0,1
4.709924e-05,0.0002600531,0,1
-6.035007e-05,0.0003461098,0,1
-0.0001904885,0.0004140152,0,1
-0.0003272716,0.0004600418,0,1
-0.0004470379,0.0004846757,0,1
-0.0005301774,0.0004931031,0,1
-0.0005731247,0.0004958582,0,1
-0.0005830107,0.0004995857,0,1
-0.0005729626,0.0005012064,0,1
-0.0005593491,0.0004932652,0,1
-0.0005538389,0.0004671726,0,1
-0.0005599973,0.0004162841,0,1
-0.000576528,0.0003388169,0,1
-0.0006040792,0.0002393087,0,1
-0.0006374646,0.000130887,0,1
-0.0006606399,2.586868e-05,0,1
-0.0006522125,-6.229485e-05,0,1
-0.000591438,-0.0001157764,0,1
-0.000474589,-0.0001245279,0,1
-0.0003151167,-9.649064e-05,0,1
-0.0001339277,-4.85193e-05,0,1
5.066468e-05,1.234753e-06,0,1
0.0002213195,4.110282e-05,0,1
0.0003608578,6.508849e-05,0,1
0.0004546936,7.189524e-05,0,1
0.0005042856,6.087479e-05,0,1
0.0005263265,3.202716e-05,0,1
0.0005344298,-1.99958e-05,0,1
0.0005224369,-9.146661e-05,0,1
0.0004798138,-0.0001697442,0,1
0.0004059119,-0.0002357047,0,1
0.000314345,-0.0002768693,0,1
0.0002243987,-0.0002893484,0,1
0.0001571416,-0.0002840002,0,1
0.0001255389,-0.0002689281,0,1
0.0001271595,-0.0002473734,0,1
0.0001475797,-0.0002149604,0,1
0.0001654069,-0.0001728234,0,1
0.0001568175,-0.0001276072,0,1
0.0001172735,-8.773911e-05,0,1
5.94162e-05,-5.824322e-05,0,1
5.610517e-06,-3.360929e-05,0,1
-1.99958e-05,-9.461558e-06,0,1
-3.789272e-06,1.1769e-05,0,1
5.56887e-05,1.565857e-05,0,1
0.0001550348,-1.092015e-05,0,1
0.0002874421,-8.07703e-05,0,1
0.0004339493,-0.0001968091,0,1
0.0005702463,-0.0003470436,0,1
0.0006763991,-0.0005066779,0,1
0.0007441425,-0.00064103,0,1
0.0007744487,-0.0007194696,0,1
0.0007668316,-0.0007363244,0,1
0.0007047605,-0.0007073147,0,1
0.0005777013,-0.0006501057,0,1
0.0004039671,-0.0005726385,0,1
0.0002308813,-0.0004766958,0,1
0.0001047945,-0.000370381,0,1
3.948217e-05,-0.0002653627,0,1
1.906194e-05,-0.0001682856,0,1
8.041497e-06,-8.887356e-05,0,1
-2.372331e-05,-3.458168e-05,0,1
-8.271508e-05,-4.275467e-06,0,1
-0.0001551583,1.095867e-05,0,1
-0.00021415,2.327564e-05,0,1
-0.0002344082,4.126489e-05,0,1
-0.0002094502,7.076078e-05,0,1
-0.0001549962,0.0001140322,0,1
-9.681477e-05,0.0001709172,0,1
-6.537409e-05,0.0002310434,0,1
-7.444975e-05,0.0002678322,0,1
-0.0001209625,0.0002529222,0,1
-0.000194216,0.0001770756,0,1
-0.0002823795,5.682316e-05,0,1
-0.0003598467,-7.315322e-05,0,1
-0.0004016596,-0.0001802784,0,1
-0.0004005251,-0.0002381357,0,1
-0.000362926,-0.000246239,0,1
-0.0002990722,-0.0002224154,0,1
-0.0002319772,-0.00018433,0,1
-0.0001864369,-0.0001389517,0,1
-0.0001700683,-7.995997e-05,0,1
-0.0001697442,9.106227e-07,0,1
-0.0001673132,0.0001065772,0,1
-0.0001475412,0.0002260194,0,1
-9.973194e-05,0.0003386548,0,1
-1.67545e-05,0.0004172565,0,1
9.344993e-05,0.0004451317,0,1
0.0002054371,0.0004266563,0,1
0.000289549,0.0003807918,0,1
0.0003282826,0.0003299033,0,1
0.000316938,0.0002889007,0,1
0.000264753,0.000259891,0,1
0.0001921477,0.0002337985,0,1
0.0001180839,0.000192796,0,1
5.52025e-05,0.0001329939,0,1
7.23117e-06,5.666109e-05,0,1
-2.84232e-05,-2.89094e-05,0,1
-5.581224e-05,-0.0001118868,0,1
-7.169464e-05,-0.0001835197,0,1
-7.153257e-05,-0.0002394322,0,1
-5.419158e-05,-0.0002763831,0,1
-2.858527e-05,-0.0002841623,0,1
-6.706447e-06,-0.0002590421,0,1
4.244267e-07,-0.0002094502,0,1
-1.010982e-05,-0.0001501342,0,1
-3.506788e-05,-9.049421e-05,0,1
-6.991193e-05,-2.826114e-05,0,1
-0.0001125351,4.920609e-05,0,1
-0.0001624512,0.0001645966,0,1
-0.0002167431,0.0003258516,0,1
-0.0002721694,0.0005209784,0,1
-0.0003274337,0.0007180499,0,1
-0.0003844807,0.0008736328,0,1
-0.0004476861,0.0009468864,0,1
-0.0005157535,0.0009167422,0,1
-0.0005807417,0.0007901691,0,1
-0.0006441093,0.0005979594,0,1
-0.0007137973,0.0003793332,0,1
-0.0007886715,0.0001717275,0,1
-0.0008505805,-1.034161e-06,0,1
-0.0008771592,-0.0001383035,0,1
-0.0008593319,-0.0002619593,0,1
-0.0008001782,-0.0003945287,0,1
-0.0007050458,-0.0005382806,0,1
-0.0005880346,-0.0006739292,0,1
-0.0004705373,-0.000772465,0,1
-0.0003700569,-0.0008120089,0,1
-0.0002891863,-0.0007826751,0,1
-0.0002251705,-0.0006911082,0,1
-0.0001650443,-0.0005533527,0,1
-8.968389e-05,-0.0003891806,0,1
1.112074e-05,-0.0002170672,0,1
0.0001325077,-5.095028e-05,0,1
0.0002561635,0.0001023635,0,1
0.0003602095,0.000244981,0,1
0.0004203358,0.0003801436,0,1
0.0004221185,0.0005037994,0,1
0.0003675024,0.0005990939,0,1
0.0002780424,0.0006475514,0,1
0.0001931201,0.0006402585,0,1
0.000148228,0.000589532,0,1
0.0001553589,0.0005216266,0,1
0.0002075439,0.0004600418,0,1
0.0002879283,0.0004125566,0,1
0.0003835469,0.0003715541,0,1
0.0004885653,0.0003289309,0,1
0.0005952043,0.0002814457,0,1
0.0007028158,0.0002347709,0,1
0.0008021619,0.0001916615,0,1
0.0008739569,0.0001470936,0,1
0.0009041011,9.847395e-05,0,1
0.0008802774,5.212327e-05,0,1
0.000797624,1.095867e-05,0,1
0.0006624615,-2.550602e-05,0,1
0.0005015305,-6.375344e-05,0,1
0.0003537269,-0.0001015147,0,1
0.0002464396,-0.0001292278,0,1
0.0001820997,-0.0001396,0,1
0.000145797,-0.0001350622,0,1
0.0001227837,-0.0001279313,0,1
0.000101067,-0.0001355484,0,1
7.546067e-05,-0.0001801163,0,1
4.304761e-05,-0.0002776796,0,1
1.063454e-05,-0.0004285624,0,1
-1.027188e-05,-0.0006147755,0,1
-1.62683e-05,-0.0008027712,0,1
-6.382317e-06,-0.000951223,0,1
1.663096e-05,-0.001022208,0,1
4.645098e-05,-0.001000977,0,1
6.946425e-05,-0.0009024413,0,1
6.865393e-05,-0.000755286,0,1
2.992031e-05,-0.0005992171,0,1
-4.317115e-05,-0.0004663236,0,1
-0.000129714,-0.0003702189,0,1
-0.0002011848,-0.0003044204,0,1
-0.0002397564,-0.0002530457,0,1
-0.0002441321,-0.0002097743,0,1
-0.0002233878,-0.0001812508,0,1
-0.0001844921,-0.0001660166,0,1
-0.0001413827,-0.0001580754,0,1
-0.0001029732,-0.000147055,0,1
-7.007399e-05,-0.0001336036,0,1
-3.668853e-05,-0.0001237176,0,1
-8.720959e-07,-0.0001232314,0,1
3.753739e-05,-0.0001303623,0,1
8.599492e-05,-0.000129714,0,1
0.0001566554,-0.0001083214,0,1
0.0002542187,-6.197072e-05,0,1
0.0003775505,9.66215e-06,0,1
0.0005187094,0.0001018773,0,1
0.0006624615,0.0002039785,0,1
0.0007841726,0.0002942489,0,1
0.0008558056,0.0003501615,0,1
0.0008624502,0.0003597233,0,1
0.0008029722,0.0003271482,0,1
0.0006843403,0.0002793389,0,1
0.0005140096,0.0002537325,0,1
0.0003081865,0.0002931144,0,1
9.652917e-05,0.0004240633,0,1
-9.324933e-05,0.0006324793,0,1
-0.0002386219,0.0008665019,0,1
-0.0003395886,0.001055308,0,1
-0.0004141386,0.00114493,0,1
-0.0004830164,0.001110572,0,1
-0.0005536768,0.0009687652,0,1
-0.0006193133,0.0007676419,0,1
-0.0006713362,0.0005569569,0,1
-0.0007060182,0.0003556717,0,1
-0.0007214144,0.0001649207,0,1
-0.000713149,-1.610624e-05,0,1
-0.0006786292,-0.0001849783,0,1
-0.000616234,-0.0003340784,0,1
-0.0005287188,-0.0004460655,0,1
-0.0004240246,-0.0004950092,0,1
-0.0003118754,-0.0004585445,0,1
-0.0002107467,-0.0003368335,0,1
-0.0001305243,-0.0001650443,0,1
-7.218083e-05,7.23117e-06,0,1
-3.279896e-05,0.0001367214,0,1
-1.221667e-05,0.0002007372,0,1
-1.821308e-05,0.0001992786,0,1
-5.743289e-05,0.0001410971,0,1
-0.0001217728,4.969229e-05,0,1
-0.0001961608,-4.106429e-05,0,1
-0.0002656868,-0.0001067007,0,1
-0.0003214373,-0.0001319829,0,1
-0.0003546606,-0.0001068628,0,1
-0.0003587123,-3.571614e-05,0,1
-0.0003215994,6.83298e-05,0,1
-0.000238946,0.000195227,0,1
-0.0001259865,0.0003543751,0,1
-7.840905e-06,0.0005527431,0,1
8.891209e-05,0.0007723419,0,1
0.0001428799,0.0009805959,0,1
0.0001464453,0.001145579,0,1
0.00010366,0.001238442,0,1
2.408596e-05,0.001231474,0,1
-8.158062e-05,0.001110248,0,1
-0.0002036158,0.0008815739,0,1
-0.0003214373,0.0005801322,0,1
-0.0003937184,0.0002608634,0,1
-0.0003809152,-2.631635e-05,0,1
-0.0002703867,-0.0002507768,0,1
-8.919769e-05,-0.0004044147,0,1
0.0001023635,-0.0004982505,0,1
0.0002255332,-0.0005549733,0,1
0.0002336365,-0.0005935449,0,1
0.0001423936,-0.0006193133,0,1
9.986281e-06,-0.0006241752,0,1
-9.405965e-05,-0.0006006758,0,1
-0.0001240417,-0.0005528665,0,1
-6.634648e-05,-0.0004990608,0,1
5.504044e-05,-0.0004635685,0,1
0.0002072198,-0.0004640547,0,1
0.0003606957,-0.0004963057,0,1
0.0004932652,-0.000546546,0,1
0.0005888838,-0.0005956517,0,1
0.0006378276,-0.0006240131,0,1
0.0006386379,-0.0006163961,0,1
0.0005926113,-0.0005627525,0,1
0.0005120648,-0.0004655133,0,1
0.0004221185,-0.000333106,0,1
0.0003485408,-0.0001827094,0,1
0.0002981384,-2.988179e-05,0,1
0.0002587566,0.0001177597,0,1
0.0002086784,0.0002538946,0,1
0.0001316974,0.0003705817,0,1
2.684107e-05,0.0004551798,0,1
-9.357346e-05,0.0004943996,0,1
-0.0002086398,0.0004841895,0,1
-0.0003018274,0.000435732,0,1
-0.0003673017,0.0003653956,0,1
-0.0004117076,0.0002906835,0,1
-0.0004459034,0.0002279642,0,1
-0.0004784786,0.0001820997,0,1
-0.0005048952,0.0001516314,0,1
-0.0005105674,0.0001257009,0,1
-0.0004890127,9.426025e-05,0,1
-0.0004390967,5.358185e-05,0,1
-0.0003673017,2.207145e-06,0,1
-0.0002906449,-6.035007e-05,0,1
-0.0002196603,-0.0001349001,0,1
-0.0001485136,-0.0002178775,0,1
-6.099833e-05,-0.0002990722,0,1
4.936815e-05,-0.0003616295,0,1
0.0001796687,-0.0003974459,0,1
0.0003205035,-0.0004084663,0,1
0.0004613383,-0.0004070078,0,1
0.0005887217,-0.0004029561,0,1
0.0006906608,-0.0003990665,0,1
0.0007554871,-0.0003935563,0,1
0.0007770417,-0.0003882082,0,1
0.0007587284,-0.0003899909,0,1
0.0007101087,-0.0004063595,0,1
0.0006434998,-0.0004425001,0,1
0.0005707325,-0.0004938748,0,1
0.0004995857,-0.0005471942,0,1
0.0004264942,-0.0005873864,0,1
0.0003496752,-0.0006006758,0,1
0.0002652392,-0.0005804176,0,1
0.0001735102,-0.0005288809,0,1
7.57848e-05,-0.0004604893,0,1
-2.858527e-05,-0.0003914495,0,1
-0.0001447861,-0.00033813,0,1
-0.0002773555,-0.0003081479,0,1
-0.0004262935,-0.0002992343,0,1
-0.0005830107,-0.0003002067,0,1
-0.0007308142,-0.0002982619,0,1
-0.0008462047,-0.0002852967,0,1
-0.0009097343,-0.0002635799,0,1
-0.000909086,-0.0002418632,0,1
-0.0008452323,-0.0002282497,0,1
-0.0007280591,-0.0002191741,0,1
-0.0005750695,-0.0002026434,0,1
-0.0004073319,-0.0001663408,0,1
-0.0002507768,-9.794922e-05,0,1
-0.0001195039,1.063454e-05,0,1
-1.691656e-05,0.0001657311,0,1
6.492643e-05,0.0003525924,0,1
0.0001380179,0.000532485,0,1
0.0002093267,0.0006577615,0,1
0.0002923041,0.0006995744,0,1
0.0003901916,0.0006598685,0,1
0.0004874308,0.0005652222,0,1
0.0005520949,0.0004589073,0,1
0.0005585775,0.0003794953,0,1
0.0004973168,0.0003357376,0,1
0.0003948915,0.0003104554,0,1
0.0002989488,0.0002814457,0,1
0.0002414156,0.0002365536,0,1
0.0002281262,0.0001751309,0,1
0.0002384984,0.000110953,0,1
0.0002372019,6.362991e-05,0,1
0.0002046267,4.677511e-05,0,1
0.0001470936,6.152305e-05,0,1
8.680524e-05,9.977047e-05,0,1
4.531652e-05,0.0001526038,0,1
3.332369e-05,0.0002109473,0,1
4.904402e-05,0.0002641047,0,1
8.307774e-05,0.0003089969,0,1
0.0001182459,0.0003461098,0,1
0.0001266733,0.0003830607,0,1
8.04847e-05,0.0004337872,0,1
-3.117831e-05,0.0004987754,0,1
-0.0001900023,0.0005644119,0,1
-0.0003564434,0.0006229175,0,1
-0.0004951713,0.000671213,0,1
-0.0005894933,0.0007063812,0,1
-0.0006462161,0.0007277738,0,1
-0.0006750637,0.0007389564,0,1
-0.0006766844,0.0007353909,0,1
-0.0006481609,0.000705895,0,1
-0.0005979206,0.000641393,0,1
-0.000539253,0.0005495019,0,1
-0.0004843129,0.0004561522,0,1
-0.0004421759,0.0003910019,0,1
-0.0004309934,0.0003636129,0,1
-0.0004600031,0.000356482,0,1
-0.0005126743,0.0003310377,0,1
-0.0005549733,0.0002501671,0,1
-0.0005543251,0.0001044704,0,1
-0.0004891749,-8.644259e-05,0,1
-0.0003601709,-0.0002823795,0,1
-0.0001877334,-0.0004436345,0,1
-7.354709e-06,-0.0005502735,0,1
0.0001522796,-0.0006018102,0,1
0.0002837146,-0.0006079687,0,1
0.0003864641,-0.00058139,0,1
0.0004584211,-0.0005343911,0,1
0.0005047718,-0.0004765338,0,1
0.000534754,-0.000417542,0,1
0.0005563086,-0.0003622777,0,1
0.0005666808,-0.0003121996,0,1
0.000557281,-0.000273628,0,1
0.0005242196,-0.0002496423,0,1
0.0004777069,-0.0002366771,0,1
0.0004318424,-0.000231329,0,1
0.0003929467,-0.0002318152,0,1
0.0003649094,-0.0002373254,0,1
0.0003474063,-0.0002447804,0,1
0.0003300653,-0.0002454286,0,1
0.0002931144,-0.0002308428,0,1
0.0002198609,-0.0002013469,0,1
0.0001052807,-0.0001715269,0,1
-3.247483e-05,-0.0001459206,0,1
-0.0001635857,-0.000127283,0,1
-0.0002622834,-0.0001186936,0,1
-0.000320789,-0.0001232314,0,1
-0.0003407231,-0.0001384655,0,1
-0.0003321336,-0.0001585616,0,1
-0.0003063652,-0.0001747682,0,1
-0.0002720074,-0.0001844921,0,1
-0.0002410529,-0.0001940539,0,1
-0.0002217671,-0.000206533,0,1
-0.000209126,-0.000216581,0,1
-0.0001864369,-0.0002143121,0,1
-0.0001397621,-0.0001901644,0,1
-6.861539e-05,-0.0001404103,0,1
1.209313e-05,-7.072225e-05,0,1
8.437427e-05,8.041497e-06,0,1
0.0001428799,8.080883e-05,0,1
0.0001833962,0.0001292664,0,1
0.0002067336,0.0001370455,0,1
0.0002260194,0.0001004187,0,1
0.0002564877,3.721326e-05,0,1
0.0003000832,-2.064406e-05,0,1
0.0003491891,-3.587821e-05,0,1
0.0004000776,2.538249e-05,0,1
0.0004529109,0.0001788584,0,1
0.0005088235,0.0003918123,0,1
0.0005601982,0.0005798081,0,1
0.0005903424,0.0006554927,0,1
0.0005806184,0.0005736496,0,1
0.0005251921,0.0003551855,0,1
0.000428439,6.654708e-05,0,1
0.0002999212,-0.0002136638,0,1
0.000160707,-0.0004246728,0,1
3.348575e-05,-0.0005373082,0,1
-6.39155e-05,-0.0005580526,0,1
-0.0001208004,-0.0005178604,0,1
-0.0001242038,-0.0004512515,0,1
-7.072225e-05,-0.0003815635,0,1
3.364782e-05,-0.0003196545,0,1
0.0001717275,-0.0002694143,0,1
0.0003098072,-0.0002358668,0,1
0.0004148255,-0.000226467,0,1
0.0004736553,-0.0002442942,0,1
0.0004885653,-0.0002750866,0,1
0.000465552,-0.0002793003,0,1
0.000411098,-0.0002031296,0,1
0.0003303894,4.313994e-06,0,1
0.000230071,0.0003537269,0,1
0.0001154908,0.0007694247,0,1
-5.085794e-06,0.001123538,0,1
-0.0001240417,0.001300513,0,1
-0.0002329496,0.001254325,0,1
-0.0003254889,0.00102565,0,1
-0.0003982562,0.0007180499,0,1
-0.0004554653,0.0004427008,0,1
-0.000507002,0.0002689667,0,1
-0.0005587008,0.0002033302,0,1
-0.0006021344,0.0002090025,0,1
-0.0006233649,0.0002331503,0,1
-0.0006183409,0.000230071,0,1
-0.0005893312,0.0001848548,0,1
-0.0005473563,9.879808e-05,0,1
-0.000509595,-9.623623e-06,0,1
-0.0004854474,-0.0001186936,0,1
-0.0004713477,-0.0002088019,0,1
-0.0004591928,-0.000271197,0,1
-0.0004405553,-0.0003063652,0,1
-0.0004120317,-0.0003160891,0,1
-0.0003710293,-0.0003005308,0,1
-0.0003201407,-0.0002652006,0,1
-0.0002634179,-0.0002225774,0,1
-0.000204102,-0.0001883817,0,1
-0.0001397621,-0.0001741199,0,1
-6.748094e-05,-0.0001786577,0,1
1.063454e-05,-0.000186761,0,1
8.956036e-05,-0.0001898403,0,1
0.0001633001,-0.0001900023,0,1
0.0002198609,-0.0001953505,0,1
0.0002487085,-0.0002109087,0,1
0.00024255,-0.0002358668,0,1
0.0002018716,-0.0002619593,0,1
0.0001394765,-0.0002791382,0,1
7.20573e-05,-0.000278652,0,1
8.851824e-06,-0.0002588801,0,1
-5.078821e-05,-0.0002284118,0,1
-0.0001110765,-0.0001859507,0,1
-0.0001703924,-0.0001115627,0,1
-0.0002178775,2.311357e-05,0,1
-0.0002421874,0.0002222919,0,1
-0.0002447804,0.0004495075,0,1
-0.0002337599,0.0006402585,0,1
-0.0002183637,0.0007237222,0,1
-0.0002011848,0.0006561409,0,1
-0.0001820611,0.0004378388,0,1
-0.0001551583,0.0001138702,0,1
-0.0001182074,-0.0002452666,0,1
-6.877746e-05,-0.0005668041,0,1
-1.351319e-05,-0.0007969369,0,1
3.850978e-05,-0.0009136238,0,1
8.210535e-05,-0.0009226995,0,1
0.0001145184,-0.0008465288,0,1
0.0001331559,-0.0007115284,0,1
0.0001368834,-0.0005458977,0,1
0.0001237561,-0.0003815635,0,1
9.31258e-05,-0.0002467252,0,1
5.212327e-05,-0.000159372,0,1
1.501031e-05,-0.0001164247,0,1
-9.623623e-06,-0.0001044318,0,1
-1.886135e-05,-0.0001099421,0,1
-1.075808e-05,-0.0001188556,0,1
1.906194e-05,-0.0001086455,0,1
7.691926e-05,-5.69467e-05,0,1
0.0001691344,4.175109e-05,0,1
0.0002793389,0.0001722137,0,1
0.0003725265,0.0003073762,0,1
0.0004198496,0.0004208219,0,1
0.0004174185,0.0004926169,0,1
0.0003864641,0.0005161164,0,1
0.000356644,0.0004969927,0,1
0.0003495132,0.0004462662,0,1
0.0003581026,0.0003778746,0,1
0.0003610198,0.000307052,0,1
0.0003433547,0.0002415777,0,1
0.0002979764,0.0001851789,0,1
0.0002239125,0.0001375317,0,1
0.0001239182,9.247754e-05,0,1
3.017472e-06,4.126489e-05,0,1
-0.0001300382,-1.918548e-05,0,1
-0.0002548284,-8.514606e-05,0,1
-0.0003374817,-0.0001436516,0,1
-0.0003540124,-0.0001828714,0,1
-0.0003087962,-0.0001984297,0,1
-0.0002297083,-0.0001998883,0,1
-0.0001532135,-0.0001982676,0,1
-0.000104918,-0.0001982676,0,1
-9.081835e-05,-0.000199078,0,1
-9.438378e-05,-0.0001935677,0,1
-9.341139e-05,-0.0001703924,0,1
-7.396356e-05,-0.0001287416,0,1
-3.166451e-05,-7.65566e-05,0,1
2.667901e-05,-2.161646e-05,0,1
9.134307e-05,3.769945e-05,0,1
0.000150659,0.0001009049,0,1
0.000192958,0.0001665414,0,1
0.0002055991,0.0002218057,0,1
0.0001824238,0.0002521119,0,1
0.0001260251,0.0002521119,0,1
5.212327e-05,0.0002261814,0,1
-1.659243e-05,0.0001820997,0,1
-6.342931e-05,0.0001261871,0,1
-7.817725e-05,6.930219e-05,0,1
-6.180866e-05,2.01964e-05,0,1
-2.955766e-05,-1.724069e-05,0,1
2.693341e-06,-4.706071e-05,0,1
2.116879e-05,-6.602235e-05,0,1
1.792748e-05,-7.104638e-05,0,1
-3.303076e-06,-6.099833e-05,0,1
-2.518189e-05,-4.284701e-05,0,1
-2.89094e-05,-2.388537e-05,0,1
-2.238346e-07,-7.678839e-06,0,1
5.487838e-05,9.338019e-06,0,1
0.0001177597,3.462021e-05,0,1
0.0001647587,7.416415e-05,0,1
0.0001811273,0.0001190562,0,1
0.0001584381,0.0001590864,0,1
9.798775e-05,0.0001846927,0,1
1.419998e-05,0.00019782,0,1
-7.039812e-05,0.0002062474,0,1
-0.0001285796,0.0002130541,0,1
-0.0001402483,0.0002172679,0,1
-0.0001112386,0.0002148369,0,1
-6.586029e-05,0.0001992786,0,1
-3.279896e-05,0.000168,0,1
-2.501983e-05,0.0001253768,0,1
-4.122636e-05,8.42122e-05,0,1
-7.153257e-05,5.844381e-05,0,1
-0.0001010285,5.552663e-05,0,1
-0.000119666,7.57848e-05,0,1
-0.0001261486,0.0001185701,0,1
-0.0001386276,0.0001845306,0,1
-0.0001896782,0.0002709115,0,1
-0.0003044204,0.0003606957,0,1
-0.000464703,0.0004279528,0,1
-0.000613641,0.0004517764,0,1
-0.0006935392,0.0004318424,0,1
-0.0006753879,0.0003777126,0,1
-0.0005621043,0.0002986247,0,1
-0.0003865875,0.0002070577,0,1
-0.0001934057,0.0001255389,0,1
-1.529591e-05,6.865393e-05,0,1
0.0001398006,4.110282e-05,0,1
0.000274801,2.829966e-05,0,1
0.0003950536,6.744974e-06,0,1
0.0004913204,-3.101625e-05,0,1
0.00055485,-7.33153e-05,0,1
0.0005833735,-9.973194e-05,0,1
0.0005804563,-9.649064e-05,0,1
0.0005606844,-6.586029e-05,0,1
0.0005355643,-1.788895e-05,0,1
0.0005097958,4.013043e-05,0,1
0.0004874308,0.0001004187,0,1
0.0004756001,0.0001561692,0,1
0.000473007,0.0002054371,0,1
0.0004700898,0.0002402811,0,1
0.0004555039,0.0002440086,0,1
0.0004216323,0.0001947408,0,1
0.0003696093,9.21534e-05,0,1
0.000309321,-4.122636e-05,0,1
0.0002513016,-0.0001697442,0,1
0.0001947408,-0.0002619593,0,1
0.0001299146,-0.0002922655,0,1
5.341979e-05,-0.0002622834,0,1
-2.210265e-05,-0.0001937298,0,1
-7.801519e-05,-0.0001159385,0,1
-0.0001091317,-5.176061e-05,0,1
-0.0001209625,-1.480971e-05,0,1
-0.000127283,-1.075808e-05,0,1
-0.0001493239,-3.63644e-05,0,1
-0.0001976194,-9.227693e-05,0,1
-0.0002664971,-0.0001699062,0,1
-0.0003392644,-0.0002527216,0,1
-0.0003990665,-0.0003190063,0,1
-0.0004425001,-0.0003502849,0,1
-0.0004674581,-0.0003447747,0,1
-0.0004690787,-0.0003152788,0,1
-0.0004467137,-0.00027849,0,1
-0.0004071698,-0.000251263,0,1
-0.0003695707,-0.0002370013,0,1
-0.0003564434,-0.0002327876,0,1
-0.0003752429,-0.0002293842,0,1
-0.0004108973,-0.0002138259,0,1
-0.00042759,-0.0001733096,0,1
-0.0003942046,-0.0001055663,0,1
-0.0003023136,-3.571614e-05,0,1
-0.0001639098,2.531276e-06,0,1
-3.303076e-06,-1.594417e-05,0,1
0.0001470936,-9.341139e-05,0,1
0.0002629703,-0.0002122053,0,1
0.0003459477,-0.000340561,0,1
0.0004156358,-0.0004426621,0,1
0.0004898618,-0.0004860956,0,1
0.00056976,-0.0004570859,0,1
0.0006446343,-0.0003528779,0,1
0.0007028158,-0.0001859507,0,1
0.0007352289,2.035846e-05,0,1
0.0007449528,0.00022764,0,1
0.0007363633,0.0003897054,0,1
0.0007127018,0.0004702519,0,1
0.0006798024,0.0004579349,0,1
0.0006371793,0.0003710679,0,1
0.0005658705,0.0002433604,0,1
0.0004472386,0.0001083599,0,1
0.0002898731,-8.651231e-06,0,1
0.0001265113,-9.827335e-05,0,1
5.86492e-07,-0.0001627754,0,1
-6.359137e-05,-0.0002070192,0,1
-6.81292e-05,-0.0002319772,0,1
-3.976777e-05,-0.0002301945,0,1
-1.25408e-05,-0.0001968091,0,1
-2.242678e-05,-0.0001318209,0,1
-8.854943e-05,-4.138842e-05,0,1
-0.0002070192,6.152305e-05,0,1
-0.0003520676,0.000153252,0,1
-0.0004885266,0.0002164575,0,1
-0.0005878726,0.0002436845,0,1
-0.0006356818,0.0002407673,0,1
-0.0006358439,0.0002263435,0,1
-0.0006034309,0.0002149989,0,1
-0.0005624284,0.000210137,0,1
-0.0005368221,0.0002122438,0,1
-0.0005363359,0.0002166196,0,1
-0.0005481666,0.0002161334,0,1
-0.000544115,0.0002106232,0,1
-0.0005061917,0.0001991165,0,1
-0.000435045,0.0001816135,0,1
-0.000355633,0.0001602208,0,1
-0.0002972895,0.0001349386,0,1
-0.0002699005,0.0001080358,0,1
-0.0002655248,8.161915e-05,0,1
-0.0002605007,5.61749e-05,0,1
-0.0002436459,2.781346e-05,0,1
-0.0002180396,-2.238346e-07,0,1
-0.0001912988,-1.740276e-05,0,1
-0.0001724993,-1.805102e-05,0,1
-0.0001674752,-1.318906e-05,0,1
-0.0001739578,-1.902341e-05,0,1
-0.000179306,-3.992984e-05,0,1
-0.0001789819,-6.407757e-05,0,1
-0.000181737,-7.493595e-05,0,1
-0.0001938919,-6.359137e-05,0,1
-0.0002245222,-3.328516e-05,0,1
-0.0002768693,4.80019e-06,0,1
-0.000340561,2.927205e-05,0,1
-0.0003971218,1.808955e-05,0,1
-0.0004382863,-3.749886e-05,0,1
-0.0004645409,-0.0001329553,0,1
-0.0004765338,-0.000248832,0,1
-0.0004692408,-0.0003624398,0,1
-0.000439907,-0.0004551412,0,1
-0.0003948528,-0.000519319,0,1
-0.0003488263,-0.0005533527,0,1
-0.0003160891,-0.0005587008,0,1
-0.0002956689,-0.0005364979,0,1
-0.0002702246,-0.0004909576,0,1
-0.0002196603,-0.0004230522,0,1
-0.0001352242,-0.0003416954,0,1
-1.983374e-05,-0.0002559629,0,1
0.000113546,-0.0001626133,0,1
0.0002464396,-4.187462e-05,0,1
0.0003525924,0.0001316974,0,1
0.0004083429,0.0003647473,0,1
0.0004007258,0.0006185417,0,1
0.0003321722,0.0008167478,0,1
0.0002190506,0.0008893532,0,1
9.069481e-05,0.0008084825,0,1
-2.664048e-05,0.0005986077,0,1
-0.0001157764,0.0003226103,0,1
-0.0001635857,4.953022e-05,0,1
-0.0001504584,-0.0001781716,0,1
-6.035007e-05,-0.0003376438,0,1
0.0001104668,-0.0004220798,0,1
0.0003436788,-0.0004339106,0,1
0.000591963,-0.0003898288,0,1
0.0008120479,-0.0003222476,0,1
0.0009763823,-0.0002681178,0,1
0.001079294,-0.0002501286,0,1
0.001135044,-0.0002697385,0,1
0.001163406,-0.0003175477,0,1
0.001176371,-0.0003862634,0,1
0.00117394,-0.0004614617,0,1
0.001150765,-0.0005282326,0,1
0.00109939,-0.0005706937,0,1
0.001021761,-0.0005737729,0,1
0.000923711,-0.0005183466,0,1
0.0008141547,-0.0003882082,0,1
0.0007042743,-0.0001818991,0,1
0.0006071971,7.30297e-05,0,1
0.0005319988,0.0003221241,0,1
0.0004760863,0.0004997478,0,1
0.000438325,0.0005626292,0,1
0.0004196875,0.0005067165,0,1
0.0004329769,0.0003700955,0,1
0.000480462,0.0002162954,0,1
0.0005444778,0.0001022015,0,1
0.0005921251,6.751948e-05,0,1
0.000586939,0.0001287802,0,1
0.0005115786,0.0002910076,0,1
0.0003757678,0.0005627912,0,1
0.0002067336,0.0009259799,0,1
4.158902e-05,0.001306186,0,1
-7.914964e-05,0.001596445,0,1
-0.0001353863,0.001704867,0,1
-0.0001326312,0.001600983,0,1
-9.794922e-05,0.001332764,0,1
-7.60704e-05,0.001002475,0,1
-0.0001067007,0.0007149707,0,1
-0.0002018331,0.0005383193,0,1
-0.0003374817,0.0004896998,0,1
-0.0004713477,0.0005430193,0,1
-0.0005729626,0.0006503066,0,1
-0.0006381128,0.0007601869,0,1
-0.0006745775,0.000837168,0,1
-0.0006993735,0.0008639088,0,1
-0.0007241695,0.0008426782,0,1
-0.0007499378,0.0007841726,0,1
-0.0007740856,0.0006927677,0,1
-0.0007946679,0.0005663567,0,1
-0.0008107124,0.0004016982,0,1
-0.0008209225,0.0002064095,0,1
-0.0008283774,-4.113403e-06,0,1
-0.0008363187,-0.0002102605,0,1
-0.0008398842,-0.0003987424,0,1
-0.0008312946,-0.0005624284,0,1
-0.0008066607,-0.0006937013,0,1
-0.0007697099,-0.0007936955,0,1
-0.0007256281,-0.0008724593,0,1
-0.0006729569,-0.0009423094,0,1
-0.0006123445,-0.001008918,0,1
-0.0005522182,-0.001072772,0,1
-0.0005102433,-0.001134519,0,1
-0.0005010056,-0.001190269,0,1
-0.0005233706,-0.00123273,0,1
-0.0005593491,-0.001246992,0,1
-0.0005791211,-0.001221062,0,1
-0.0005554595,-0.001152994,0,1
-0.0004856094,-0.001071637,0,1
-0.000392746,-0.001024152,0,1
-0.0003112272,-0.001034849,0,1
-0.0002621213,-0.001090923,0,1
-0.0002397564,-0.001149429,0,1
-0.0002311669,-0.001169363,0,1
-0.0002241981,-0.001124633,0,1
-0.0002097743,-0.001009566,0,1
-0.0001830335,-0.0008457185,0,1
-0.0001473791,-0.0006646916,0,1
-0.0001005423,-0.000496954,0,1
-4.074016e-05,-0.0003634122,0,1
3.445814e-05,-0.0002737901,0,1
0.0001201907,-0.0002154466,0,1
0.0002041406,-0.0001658546,0,1
0.0002764217,-0.0001084835,0,1
0.0003355756,-4.138842e-05,0,1
0.0003840331,2.149292e-05,0,1
0.0004245494,6.103686e-05,0,1
0.0004537212,7.335383e-05,0,1
0.0004632831,6.265751e-05,0,1
0.000455666,4.239934e-05,0,1
0.0004415663,3.899597e-05,0,1
0.0004243874,7.400208e-05,0,1
0.000406074,0.0001516314,0,1
0.0003924605,0.0002603772,0,1
0.0003914881,0.0003781987,0,1
0.0004112601,0.0004793275,0,1
0.0004443214,0.0005490156,0,1
0.0004743035,0.0005849942,0,1
0.0004872688,0.0005908285,0,1
0.0004812723,0.0005684635,0,1
0.0004571246,0.0005235714,0,1
0.0004169324,0.0004626348,0,1
0.0003673404,0.000393595,0,1
0.0003158036,0.0003219621,0,1
0.0002657254,0.0002493568,0,1
0.0002172679,0.0001848548,0,1
0.0001728619,0.0001398006,0,1
0.0001378558,0.0001197045,0,1
0.0001226217,0.0001180839,0,1
0.0001326697,0.0001141943,0,1
0.0001608691,9.280167e-05,0,1
0.0001859892,5.439218e-05,0,1
0.0001936063,1.290346e-05,0,1
0.0001842065,-9.137427e-06,0,1
0.0001767515,1.014835e-05,0,1
0.0001840444,7.335383e-05,0,1
0.0002057612,0.0001563313,0,1
0.0002253711,0.0002237505,0,1
0.0002172679,0.0002508154,0,1
0.0001626518,0.0002347709,0,1
6.119892e-05,0.0001869616,0,1
-5.759496e-05,0.0001297526,0,1
-0.0001507825,8.405014e-05,0,1
-0.0001875713,6.589881e-05,0,1
-0.0001618029,7.967438e-05,0,1
-9.130454e-05,0.0001163011,0,1
-3.789272e-06,0.0001574657,0,1
7.90261e-05,0.0001825859,0,1
0.0001409351,0.0001756171,0,1
0.0001702689,0.0001344524,0,1
0.0001623277,7.319176e-05,0,1
0.0001239182,8.527692e-06,0,1
7.254349e-05,-4.787104e-05,0,1
2.424803e-05,-9.19528e-05,0,1
-1.367526e-05,-0.0001182074,0,1
-4.203669e-05,-0.0001180453,0,1
-6.44017e-05,-8.044617e-05,0,1
-9.114248e-05,-6.176923e-08,0,1
-0.0001248521,0.0001130598,0,1
-0.0001558065,0.0002381743,0,1
-0.0001697442,0.0003478926,0,1
-0.0001590478,0.0004192013,0,1
-0.0001259865,0.0004490213,0,1
-7.623246e-05,0.0004551798,0,1
-2.761287e-05,0.0004660382,0,1
-2.978945e-06,0.0005039615,0,1
-1.643037e-05,0.0005754323,0,1
-6.229485e-05,0.0006708889,0,1
-0.0001289037,0.0007718556,0,1
-0.000201671,0.0008556435,0,1
-0.0002652006,0.0008958358,0,1
-0.0003036101,0.0008663398,0,1
-0.0003027998,0.0007545147,0,1
-0.0002643903,0.0005717048,0,1
-0.0002031296,0.0003499994,0,1
-0.0001397621,0.000128456,0,1
-8.109443e-05,-5.775702e-05,0,1
-2.647842e-05,-0.0001827094,0,1
2.684107e-05,-0.0002395943,0,1
8.777764e-05,-0.0002415391,0,1
0.0001663793,-0.0002146363,0,1
0.0002676702,-0.0001890299,0,1
0.0003751195,-0.0001835197,0,1
0.0004551798,-0.0001989159,0,1
0.0004785172,-0.0002219292,0,1
0.000438325,-0.0002410529,0,1
0.0003521062,-0.0002483458,0,1
0.0002560015,-0.000248832,0,1
0.0001837203,-0.0002558008,0,1
0.000150659,-0.000281083,0,1
0.0001542244,-0.0003254889,0,1
0.0001842065,-0.0003771877,0,1
0.0002240746,-0.0004209454,0,1
0.0002521119,-0.0004470379,0,1
0.0002538946,-0.0004536825,0,1
0.0002248849,-0.000447362,0,1
0.000175455,-0.0004392588,0,1
0.0001265113,-0.0004384484,0,1
9.717743e-05,-0.0004410415,0,1
8.583286e-05,-0.000439907,0,1
7.254349e-05,-0.0004298589,0,1
4.239934e-05,-0.0004130042,0,1
-5.89612e-06,-0.0003869116,0,1
-5.808115e-05,-0.0003434782,0,1
-9.794922e-05,-0.0002768693,0,1
-0.0001173971,-0.0001930815,0,1
-0.0001292278,-9.762509e-05,0,1
-0.0001577513,2.207145e-06,0,1
-0.0002194982,0.0001031738,0,1
-0.0003204649,0.000200251,0,1
-0.000447362,0.000289387,0,1
-0.0005684248,0.0003616681,0,1
-0.0006471885,0.0004117463,0,1
-0.0006578848,0.0004443214,0,1
-0.0005992171,0.0004689553,0,1
-0.0004929024,0.0004943996,0,1
-0.0003763774,0.0005258403,0,1
-0.0002849726,0.0005577672,0,1
-0.0002480217,0.0005819149,0,1
-0.0002781658,0.0005913147,0,1
-0.00035304,0.0005811046,0,1
-0.000422566,0.0005514466,0,1
-0.0004462276,0.0005088235,0,1
-0.0004164075,0.0004627969,0,1
-0.0003533641,0.0004200116,0,1
-0.0002815692,0.0003780367,0,1
-0.0002117191,0.0003328204,0,1
-0.0001454344,0.0002780424,0,1
-8.563225e-05,0.0002031682,0,1
-3.036798e-05,0.0001017153,0,1
2.424803e-05,-2.518189e-05,0,1
8.194328e-05,-0.000159534,0,1
0.0001446626,-0.0002775176,0,1
0.0002120818,-0.0003596847,0,1
0.0002720459,-0.000395177,0,1
0.0002968419,-0.0003849669,0,1
0.0002688046,-0.0003444506,0,1
0.0001919856,-0.0003005308,0,1
9.555677e-05,-0.0002733039,0,1
2.457216e-05,-0.000271197,0,1
1.582063e-05,-0.0002917793,0,1
7.643307e-05,-0.0003287302,0,1
0.0001833962,-0.0003695707,0,1
0.0002950592,-0.0004060354,0,1
0.0003780367,-0.0004343968,0,1
0.0004206599,-0.0004595169,0,1
0.0004277907,-0.0004891749,0,1
0.0004227667,-0.0005249913,0,1
0.0004286011,-0.0005663179,0,1
0.0004540453,-0.0006050515,0,1
0.0004841895,-0.000633575,0,1
0.0004875929,-0.0006445955,0,1
0.0004444835,-0.0006340612,0,1
0.0003556717,-0.0005984068,0,1
0.0002381743,-0.0005368221,0,1
0.0001145184,-0.0004481723,0,1
7.485573e-07,-0.0003287302,0,1
-9.470791e-05,-0.000166827,0,1
-0.0001656925,4.483033e-05,0,1
-0.0002186879,0.0002913317,0,1
-0.0002676316,0.0005334574,0,1
-0.0003172236,0.0007227498,0,1
-0.000360495,0.0008206373,0,1
-0.0003914495,0.0008068618,0,1
-0.0004089525,0.0006870955,0,1
-0.0004180282,0.0004994237,0,1
-0.0004287245,0.0002924662,0,1
-0.0004465517,0.0001057669,0,1
-0.0004663236,-4.122636e-05,0,1
-0.000477182,-0.0001464067,0,1
-0.0004784786,-0.0002172293,0,1
-0.000474589,-0.0002595283,0,1
-0.0004655133,-0.0002739521,0,1
-0.0004463896,-0.000261149,0,1
-0.0004121938,-0.0002276015,0,1
-0.0003561192,-0.0001814128,0,1
-0.0002682799,-0.0001326312,0,1
-0.0001399241,-8.854943e-05,0,1
2.894792e-05,-4.997789e-05,0,1
0.0002158093,-1.318906e-05,0,1
0.0003858158,3.13789e-05,0,1
0.000515144,9.134307e-05,0,1
0.0005984457,0.0001699448,0,1
0.0006486859,0.0002670219,0,1
0.0006877437,0.0003665301,0,1
0.0007334462,0.0004381629,0,1
0.000795031,0.000455666,0,1
0.0008634226,0.0004072085,0,1
0.0009191732,0.0003052694,0,1
0.0009405658,0.0001741585,0,1
0.000911394,2.927205e-05,0,1
0.0008340888,-0.0001183694,0,1
0.0007277738,-0.0002558008,0,1
0.0006143281,-0.0003684362,0,1
0.0005008822,-0.0004426621,0,1
0.000381278,-0.000477182,0,1
0.000252436,-0.0004843129,0,1
0.0001253768,-0.0004775062,0,1
2.635488e-05,-0.0004732924,0,1
-2.226472e-05,-0.000482044,0,1
-1.270286e-05,-0.0005057055,0,1
3.397195e-05,-0.0005395772,0,1
7.270556e-05,-0.000576528,0,1
6.136099e-05,-0.0006060239,0,1
-9.137427e-06,-0.0006118583,0,1
-0.0001161005,-0.0005736109,0,1
-0.000224036,-0.0004716718,0,1
-0.0003037722,-0.000283514,0,1
-0.0003436402,1.679302e-05,0,1
-0.0003491504,0.0004495075,0,1
-0.0003339163,0.0009968026,0,1
-0.0003068514,0.001577322,0,1
-0.0002794623,0.002065626,0,1
-0.0002543422,0.002329145,0,1
-0.000231329,0.002293329,0,1
-0.0002078295,0.001976652,0,1
-0.0001806025,0.001481217,0,1
-0.0001442999,0.0009407279,0,1
-0.000104918,0.0004671726,0,1
-7.979791e-05,0.0001214872,0,1
-8.482193e-05,-9.584238e-05,0,1
-0.0001311726,-0.0002169052,0,1
-0.0002104225,-0.0002752487,0,1
-0.0002989102,-0.0002912931,0,1
-0.0003757291,-0.000273628,0,1
-0.0004361795,-0.0002345703,0,1
-0.000484475,-0.0001951884,0,1
-0.0005274223,-0.0001833576,0,1
-0.0005710179,-0.0002131776,0,1
-0.0006147755,-0.0002802727,0,1
-0.0006637191,-0.0003614674,0,1
-0.0007126629,-0.000427428,0,1
-0.0007483172,-0.0004611376,0,1
-0.0007513965,-0.000462272,0,1
-0.0007035872,-0.0004386105,0,1
-0.0005977586,-0.0004047388,0,1
-0.0004483344,-0.0003723258,0,1
-0.0002869174,-0.0003450988,0,1
-0.0001549962,-0.0003222476,0,1
-8.725291e-05,-0.0002989102,0,1
-0.0001016767,-0.0002713591,0,1
-0.0001822232,-0.0002433218,0,1
-0.000286107,-0.000224036,0,1
-0.000370381,-0.0002143121,0,1
-0.0004128421,-0.000211557,0,1
-0.0004096008,-0.0002088019,0,1
-0.0003737844,-0.0002008607,0,1
-0.0003237062,-0.0001927574,0,1
-0.000271035,-0.0001888679,0,1
-0.000216581,-0.0001945401,0,1
-0.0001596961,-0.0002076674,0,1
-9.778715e-05,-0.0002232257,0,1
-2.501983e-05,-0.0002394322,0,1
6.46023e-05,-0.0002515871,0,1
0.000177886,-0.0002570974,0,1
0.0003127243,-0.0002569353,0,1
0.0004639314,-0.0002507768,0,1
0.00061919,-0.0002374874,0,1
0.0007490044,-0.0002201465,0,1
0.0008227442,-0.0002023193,0,1
0.0008240407,-0.0001818991,0,1
0.0007548388,-0.00015451,0,1
0.0006366931,-0.0001190177,0,1
0.0005050959,-8.757704e-05,0,1
0.0003898674,-7.104638e-05,0,1
0.000304459,-6.667062e-05,0,1
0.0002430362,-5.791909e-05,0,1
0.0001940925,-2.631635e-05,0,1
0.0001522796,3.526847e-05,0,1
0.0001180839,0.0001164632,0,1
0.0001025256,0.000202844,0,1
0.0001172735,0.000279663,0,1
0.0001652449,0.0003303894,0,1
0.0002333123,0.0003433547,0,1
0.0002991108,0.0003175863,0,1
0.0003300653,0.0002658874,0,1
0.0003073762,0.0002072198,0,1
0.0002305572,0.000160707,0,1
0.0001252147,0.0001461212,0,1
2.619281e-05,0.0001769136,0,1
-4.219875e-05,0.0002513016,0,1
-7.380149e-05,0.0003464339,0,1
-7.720486e-05,0.0004237391,0,1
-6.407757e-05,0.0004474007,0,1
-3.911951e-05,0.0004112601,0,1
-6.706447e-06,0.0003386548,0,1
1.711715e-05,0.0002600531,0,1
1.452411e-05,0.0001983062,0,1
-2.550602e-05,0.0001573037,0,1
-0.0001011905,0.0001257009,0,1
-0.0001903264,7.821578e-05,0,1
-0.0002609869,-2.006553e-06,0,1
-0.0002916173,-0.0001101041,0,1
-0.0002758969,-0.0002310048,0,1
-0.0002277635,-0.0003369955,0,1
-0.0001686097,-0.0004005251,0,1
-0.0001219349,-0.0004019837,0,1
-0.000104918,-0.0003403989,0,1
-0.000119666,-0.0002394322,0,1
-0.0001512687,-0.0001300382,0,1
-0.0001665028,-3.798505e-05,0,1
-0.0001327933,2.34377e-05,0,1
-3.895745e-05,5.341979e-05,0,1
9.588091e-05,6.379197e-05,0,1
0.0002344468,6.719535e-05,0,1
0.0003386548,7.562274e-05,0,1
0.0003853296,9.16672e-05,0,1
0.0003694472,0.000110953,0,1
0.0002963557,0.0001263492,0,1
0.0001814514,0.0001273216,0,1
5.131294e-05,0.0001101427,0,1
-6.407757e-05,8.291568e-05,0,1
-0.0001462447,5.666109e-05,0,1
-0.0001937298,3.073064e-05,0,1
-0.00021415,3.665733e-06,0,1
-0.0002169052,-2.712668e-05,0,1
-0.0002135018,-6.310517e-05,0,1
-0.0002188499,-0.0001062146,0,1
-0.0002394322,-0.0001561307,0,1
-0.0002684419,-0.0002126914,0,1
-0.0002887001,-0.0002705488,0,1
-0.0002893484,-0.0003212752,0,1
-0.0002622834,-0.0003574158,0,1
-0.0002104225,-0.0003739464,0,1
-0.0001460826,-0.0003697327,0,1
-8.303922e-05,-0.0003452609,0,1
-2.939559e-05,-0.0003047445,0,1
1.663096e-05,-0.0002559629,0,1
5.666109e-05,-0.0002053985,0,1
9.523264e-05,-0.0001530514,0,1
0.0001362352,-9.373552e-05,0,1
0.0001795066,-2.258885e-05,0,1
0.0002247229,5.504044e-05,0,1
0.0002757735,0.0001266733,0,1
0.0003337929,0.0001884202,0,1
0.0003968363,0.0002453052,0,1
0.0004555039,0.0003064038,0,1
0.0004997478,0.000373823,0,1
0.0005166026,0.0004418904,0,1
0.0005031512,0.0004940755,0,1
0.000465552,0.0005196818,0,1
0.0004101256,0.0005195198,0,1
0.000346596,0.0005041235,0,1
0.0002897111,0.0004926169,0,1
0.0002657254,0.0004956961,0,1
0.0003018659,0.0005070407,0,1
0.0004054258,0.0005059062,0,1
0.0005530673,0.0004684692,0,1
0.0007052467,0.0003804677,0,1
0.0008207994,0.0002438466,0,1
0.0008652053,7.20573e-05,0,1
0.0008216097,-0.0001152902,0,1
0.0006955228,-0.000285945,0,1
0.000507689,-0.0004099249,0,1
0.0002854973,-0.0004710235,0,1
6.055066e-05,-0.0004713477,0,1
-0.0001274451,-0.0004240246,0,1
-0.0002417012,-0.0003407231,0,1
-0.0002658489,-0.0002271153,0,1
-0.0002178775,-9.308726e-05,0,1
-0.0001421931,3.364782e-05,0,1
-8.465986e-05,0.000118408,0,1
-6.942573e-05,0.0001428799,0,1
-9.713889e-05,0.0001096565,0,1
-0.0001511067,4.547859e-05,0,1
-0.0002143121,-1.464765e-05,0,1
-0.0002770314,-4.122636e-05,0,1
-0.0003361852,-2.46957e-05,0,1
-0.0003857772,2.910999e-05,0,1
-0.0004232143,0.0001106288,0,1
-0.000442338,0.0002025199,0,1
-0.0004360174,0.0002843629,0,1
-0.0004003631,0.0003381686,0,1
-0.0003392644,0.0003571303,0,1
-0.0002642282,0.0003435168,0,1
-0.0001869231,0.0003038107,0,1
-0.0001227452,0.0002513016,0,1
-8.190475e-05,0.0001991165,0,1
-6.958779e-05,0.0001634622,0,1
-8.579432e-05,0.0001508211,0,1
-0.000129714,0.0001514693,0,1
-0.0001955125,0.0001477418,0,1
-0.0002674695,0.0001279698,0,1
-0.0003275957,8.696731e-05,0,1
-0.0003681121,2.635488e-05,0,1
-0.0003919357,-4.673658e-05,0,1
-0.0003997148,-0.0001146419,0,1
-0.0003916115,-0.0001632615,0,1
-0.0003713534,-0.0001815749,0,1
-0.0003473677,-0.0001720131,0,1
-0.0003245165,-0.0001439758,0,1
-0.000300855,-0.0001052422,0,1
-0.0002739521,-6.180866e-05,0,1
-0.0002459149,-2.177852e-05,0,1
-0.0002248464,1.095867e-05,0,1
-0.0002135018,3.98063e-05,0,1
-0.0002160948,6.330578e-05,0,1
-0.0002284118,7.448828e-05,0,1
-0.0002472114,6.184718e-05,0,1
-0.0002664971,2.165498e-05,0,1
-0.0002794623,-4.122636e-05,0,1
-0.0002723315,-0.0001146419,0,1
-0.0002374874,-0.0001896782,0,1
-0.0001854645,-0.0002601766,0,1
-0.0001313347,-0.000328082,0,1
-8.773911e-05,-0.0003966356,0,1
-6.229485e-05,-0.0004614617,0,1
-5.289507e-05,-0.0005134846,0,1
-4.38194e-05,-0.0005436288,0,1
-2.080613e-05,-0.0005509217,0,1
1.663096e-05,-0.000544277,0,1
5.666109e-05,-0.0005377944,0,1
8.534666e-05,-0.0005429805,0,1
8.680524e-05,-0.0005634008,0,1
5.763349e-05,-0.0005919242,0,1
8.689758e-06,-0.0006125065,0,1
-4.138842e-05,-0.0006071584,0,1
-7.526008e-05,-0.0005606457,0,1
-8.40116e-05,-0.000449793,0,1
-6.829127e-05,-0.0002616352,0,1
-3.960571e-05,-8.327101e-06,0,1
-1.545797e-05,0.0002735045,0,1
-3.303076e-06,0.0005307022,0,1
4.80019e-06,0.0007180499,0,1
1.760335e-05,0.0007990826,0,1
4.223728e-05,0.0007577559,0,1
7.610894e-05,0.0006046041,0,1
0.0001091703,0.0003804677,0,1
0.0001289422,0.0001422316,0,1
0.000130725,-6.456377e-05,0,1
0.0001171115,-0.0002126914,0,1
9.280167e-05,-0.000295993,0,1
6.265751e-05,-0.0003290543,0,1
2.586868e-05,-0.0003426678,0,1
-9.461558e-06,-0.0003611433,0,1
-2.615429e-05,-0.0003946908,0,1
-1.772689e-05,-0.0004318037,0,1
9.66215e-06,-0.0004502792,0,1
4.499239e-05,-0.0004233763,0,1
8.340187e-05,-0.0003303509,0,1
0.0001316974,-0.0001658546,0,1
0.0002046267,5.001642e-05,0,1
0.0003033245,0.0002788527,0,1
0.000410936,0.0004837033,0,1
0.0005018546,0.0006451205,0,1
0.0005514466,0.0007632662,0,1
0.0005529052,0.0008504574,0,1
0.0005161164,0.0009199835,0,1
0.0004550177,0.0009747617,0,1
0.0003850055,0.000992751,0,1
0.000316776,0.0009465622,0,1
0.000254867,0.0008305234,0,1
0.0002034923,0.0006645683,0,1
0.0001624898,0.0004845136,0,1
0.0001329939,0.0003188828,0,1
0.0001094944,0.0001786963,0,1
8.275361e-05,6.200925e-05,0,1
4.239934e-05,-3.279896e-05,0,1
-1.124428e-05,-0.0001037836,0,1
-7.104638e-05,-0.0001449482,0,1
-0.000132145,-0.000151917,0,1
-0.0001950263,-0.0001337657,0,1
-0.0002630937,-0.0001075111,0,1
-0.0003301888,-9.130454e-05,0,1
-0.000380267,-9.794922e-05,0,1
-0.0004023079,-0.0001298761,0,1
-0.0003898288,-0.0001796301,0,1
-0.0003407231,-0.0002326255,0,1
-0.0002689281,-0.0002708729,0,1
-0.0001989159,-0.0002820554,0,1
-0.0001598582,-0.0002664971,0,1
-0.0001603444,-0.0002350565,0,1
-0.000184168,-0.0002010227,0,1
-0.0002044261,-0.0001705545,0,1
-0.00019924,-0.0001442999,0,1
-0.0001634236,-0.0001243659,0,1
-0.0001094559,-0.0001138316,0,1
-5.467778e-05,-0.0001185315,0,1
-1.659243e-05,-0.0001413827,0,1
2.531276e-06,-0.0001763888,0,1
9.338019e-06,-0.0002117191,0,1
1.014835e-05,-0.0002321393,0,1
7.555301e-06,-0.0002301945,0,1
-1.034161e-06,-0.0002094502,0,1
-2.242678e-05,-0.0001710407,0,1
-5.710876e-05,-0.0001118868,0,1
-9.584238e-05,-2.971972e-05,0,1
-0.0001274451,6.217132e-05,0,1
-0.0001417068,0.0001422316,0,1
-0.0001319829,0.0001950649,0,1
-9.017008e-05,0.0002148369,0,1
-1.869928e-05,0.0002031682,0,1
6.687121e-05,0.0001663793,0,1
0.0001519555,0.0001124116,0,1
0.0002383363,5.212327e-05,0,1
0.000336548,1.002961e-07,0,1
0.0004511282,-3.506788e-05,0,1
0.0005704083,-5.095028e-05,0,1
0.0006678096,-4.527799e-05,0,1
0.0007159431,-1.869928e-05,0,1
0.0006939021,2.359977e-05,0,1
0.0006084936,6.654708e-05,0,1
0.0004892136,0.0001041462,0,1
0.000371392,0.0001354248,0,1
0.0002819319,0.0001589243,0,1
0.0002312055,0.0001731861,0,1
0.0002156472,0.0001858272,0,1
0.000225209,0.0002060853,0,1
0.0002537325,0.000230071,0,1
0.0002991108,0.0002470879,0,1
0.000356482,0.0002459534,0,1
0.0004098015,0.0002205092,0,1
0.000435732,0.000170431,0,1
0.0004200116,0.0001018773,0,1
0.0003650715,2.424803e-05,0,1
0.000284525,-5.257093e-05,0,1
0.00019782,-0.0001191798,0,1
0.0001180839,-0.0001749302,0,1
5.293359e-05,-0.0002263049,0,1
-3.858999e-07,-0.000281083,0,1
-5.095028e-05,-0.0003465574,0,1
-0.0001086455,-0.000422566,0,1
-0.0001754164,-0.0004974402,0,1
-0.0002433218,-0.0005475183,0,1
-0.0002968033,-0.0005488148,0,1
-0.0003288923,-0.0004924161,0,1
-0.0003420196,-0.0003825359,0,1
-0.0003402368,-0.0002353806,0,1
-0.0003322956,-6.39155e-05,0,1
-0.0003285682,0.0001253768,0,1
-0.0003428299,0.000316938,0,1
-0.0003885323,0.0004802999,0,1
-0.0004624341,0.0005809425,0,1
-0.0005405495,0.0006039558,0,1
-0.0005909518,0.0005584154,0,1
-0.0005998655,0.0004673347,0,1
-0.000571342,0.0003555096,0,1
-0.000519481,0.0002410915,0,1
-0.0004580583,0.0001362352,0,1
-0.0003979321,4.596478e-05,0,1
-0.0003475298,-3.198864e-05,0,1
-0.0003105789,-0.0001058904,0,1
-0.0002848105,-0.0001799543,0,1
-0.0002559629,-0.0002507768,0,1
-0.0002143121,-0.0003105789,0,1
-0.0001637477,-0.0003527159,0,1
-0.0001099421,-0.0003750809,0,1
-6.002594e-05,-0.0003810773,0,1
-1.286493e-05,-0.000370381,0,1
3.478228e-05,-0.0003394265,0,1
7.691926e-05,-0.0002857829,0,1
9.896015e-05,-0.0002099363,0,1
8.729144e-05,-0.0001201522,0,1
3.802358e-05,-3.004385e-05,0,1
-3.992984e-05,4.434413e-05,0,1
-0.0001289037,8.891209e-05,0,1
-0.0002125294,9.426025e-05,0,1
-0.0002770314,5.828175e-05,0,1
-0.0003149546,-9.785688e-06,0,1
-0.0003253268,-8.903562e-05,0,1
-0.0003180339,-0.0001559686,0,1
-0.0003078238,-0.0001938919,0,1
-0.0003013411,-0.000201671,0,1
-0.0002922655,-0.0001862748,0,1
-0.0002728177,-0.0001538618,0,1
-0.0002402425,-0.0001125351,0,1
-0.0002026434,-6.715681e-05,0,1
-0.000166827,-2.258885e-05,0,1
-0.0001326312,1.614476e-05,0,1
-9.519411e-05,4.920609e-05,0,1
-4.268495e-05,8.340187e-05,0,1
2.748934e-05,0.0001213252,0,1
0.0001007429,0.0001597346,0,1
0.0001483901,0.0001887444,0,1
0.0001521176,0.0002005751,0,1
0.0001167873,0.0001947408,0,1
7.043665e-05,0.0001803169,0,1
4.580272e-05,0.0001799928,0,1
6.962632e-05,0.0002193747,0,1
0.0001479039,0.0003089969,0,1
0.0002718839,0.0004321665,0,1
0.0004226047,0.0005538776,0,1
0.0005867769,0.0006423654,0,1
0.000750625,0.0006733199,0,1
0.0009005356,0.0006368551,0,1
0.001021274,0.000542371,0,1
0.001095338,0.0004128807,0,1
0.001114948,0.0002764217,0,1
0.001085776,0.0001496866,0,1
0.001024192,3.60788e-05,0,1
0.0009473725,-7.169464e-05,0,1
0.0008661778,-0.0001737958,0,1
0.0007913035,-0.0002598524,0,1
0.0007268014,-0.0003235441,0,1
0.0006600305,-0.0003765395,0,1
0.0005624671,-0.0004326141,0,1
0.0004170944,-0.0005032745,0,1
0.0002321778,-0.0005836589,0,1
4.061663e-05,-0.000658371,0,1
-0.0001146419,-0.0007099077,0,1
-0.0002081536,-0.0007249799,0,1
-0.0002455907,-0.0007014804,0,1
-0.0002598524,-0.0006573986,0,1
-0.0002951827,-0.0006232028,0,1
-0.0003838324,-0.0006290372,0,1
-0.0005270981,-0.000680574,0,1
-0.0006928909,-0.0007517206,0,1
-0.0008256224,-0.0007954782,0,1
-0.0008748902,-0.0007651721,0,1
-0.0008228673,-0.0006342233,0,1
-0.0006914323,-0.0003899909,0,1
-0.0005212637,-3.63644e-05,0,1
-0.0003499608,0.0004076947,0,1
-0.0002105846,0.000911232,0,1
-0.0001224211,0.001415904,0,1
-8.255302e-05,0.001831927,0,1
-6.731888e-05,0.002070974,0,1
-5.710876e-05,0.002087505,0,1
-4.349527e-05,0.001893188,0,1
-2.907146e-05,0.001553984,0,1
-2.615429e-05,0.001160651,0,1
-4.203669e-05,0.0008007033,0,1
-7.671866e-05,0.0005285954,0,1
-0.000127121,0.0003619922,0,1
-0.0001870851,0.0002819319,0,1
-0.0002485079,0.000254867,0,1
-0.00030831,0.0002493568,0,1
-0.0003616295,0.0002407673,0,1
-0.0004044147,0.0002145127,0,1
-0.0004305072,0.0001618415,0,1
-0.0004311555,8.356394e-05,0,1
-0.0003950149,-1.659243e-05,0,1
-0.0003203028,-0.0001303623,0,1
-0.0002060468,-0.0002423494,0,1
-4.414354e-05,-0.0003428299,0,1
0.0001587623,-0.0004261314,0,1
0.0003691231,-0.0004927403,0,1
0.0005323229,-0.000546708,0,1
0.0005942319,-0.0005865761,0,1
0.0005302161,-0.0006079687,0,1
0.0003603715,-0.0006089411,0,1
0.0001316974,-0.0005907898,0,1
-9.713889e-05,-0.0005569181,0,1
-0.0002815692,-0.0005141329,0,1
-0.000400039,-0.0004716718,0,1
-0.000452386,-0.0004368278,0,1
-0.0004533584,-0.0004160834,0,1
-0.0004272659,-0.000410087,0,1
-0.0003964735,-0.0004066836,0,1
-0.0003698948,-0.0003920977,0,1
-0.0003420196,-0.0003562813,0,1
-0.000301017,-0.0002945344,0,1
-0.0002441321,-0.0002162569,0,1
-0.0001846542,-0.0001488377,0,1
-0.0001455964,-0.0001250141,0,1
-0.0001357104,-0.0001499722,0,1
-0.0001478653,-0.0002055606,0,1
-0.0001705545,-0.0002645523,0,1
-0.0001953505,-0.0003168994,0,1
-0.0002081536,-0.0003668155,0,1
-0.0001945401,-0.0004241867,0,1
-0.0001514308,-0.0004948471,0,1
-7.931171e-05,-0.0005742591,0,1
2.424803e-05,-0.0006549676,0,1
0.0001654069,-0.0007296797,0,1
0.0003381686,-0.0007867267,0,1
0.0005221128,-0.0008079573,0,1
0.0006767232,-0.0007698719,0,1
0.0007566215,-0.0006593434,0,1
0.0007400909,-0.0004813957,0,1
0.0006394482,-0.0002605007,0,1
0.0004960203,-2.777494e-05,0,1
0.000368961,0.0001960373,0,1
0.0003008936,0.0004216323,0,1
0.0002955454,0.0006893643,0,1
0.0003264999,0.001015602,0,1
0.0003600474,0.00135513,0,1
0.0003691231,0.0016274,0,1
0.0003412479,0.001755918,0,1
0.0002743149,0.001708433,0,1
0.0001756171,0.001507633,0,1
5.552663e-05,0.001214457,0,1
-7.55842e-05,0.0009079906,0,1
-0.0001997262,0.0006535479,0,1
-0.0002987481,0.0004882411,0,1
-0.0003630881,0.0004175806,0,1
-0.000397608,0.000420984,0,1
-0.0004152731,0.000460528,0,1
-0.0004339106,0.0004969927,0,1
-0.0004638926,0.0005013684,0,1
-0.0005076503,0.0004589073,0,1
-0.0005522182,0.0003718782,0,1
-0.0005817142,0.0002551911,0,1
-0.0005792832,0.000128456,0,1
-0.0005376324,3.179537e-06,0,1
-0.0004551412,-0.0001146419,0,1
-0.0003447747,-0.0002191741,0,1
-0.0002300324,-0.0003015032,0,1
-0.0001255003,-0.0003561192,0,1
-2.113026e-05,-0.000380267,0,1
0.0001065772,-0.0003838324,0,1
0.0002851732,-0.0003731361,0,1
0.0005206542,-0.0003517435,0,1
0.000795031,-0.0003235441,0,1
0.00106406,-0.0002972895,0,1
0.001267614,-0.0002815692,0,1
0.001352374,-0.0002801106,0,1
0.001291438,-0.0002872415,0,1
0.001095338,-0.0002932379,0,1
0.0008034584,-0.0002893484,0,1
0.0004623107,-0.0002677937,0,1
0.0001305629,-0.0002280877,0,1
-0.0001314967,-0.0001822232,0,1
-0.0002862691,-0.0001493239,0,1
-0.0003303509,-0.0001396,0,1
-0.0002924276,-0.0001535376,0,1
-0.0002167431,-0.0001831956,0,1
-0.0001438137,-0.0002147983,0,1
-9.66527e-05,-0.0002371633,0,1
-7.947377e-05,-0.0002439701,0,1
-8.547019e-05,-0.0002358668,0,1
-9.956988e-05,-0.0002172293,0,1
-0.0001110765,-0.0001945401,0,1
-0.0001164247,-0.0001715269,0,1
-0.0001183694,-0.0001454344,0,1
-0.0001199901,-0.0001177212,0,1
-0.0001235555,-8.628052e-05,0,1
-0.0001293899,-5.22468e-05,0,1
-0.0001402483,-1.99958e-05,0,1
-0.0001522411,8.203562e-06,0,1
-0.000164396,3.267542e-05,0,1
-0.0001780095,5.082674e-05,0,1
-0.0001909747,6.46023e-05,0,1
-0.0001958367,7.610894e-05,0,1
-0.0001912988,8.372601e-05,0,1
-0.0001838438,8.016057e-05,0,1
-0.0001791439,5.56887e-05,0,1
-0.0001781716,9.66215e-06,0,1
-0.0001762268,-4.981582e-05,0,1
-0.0001629374,-0.0001149661,0,1
-0.0001316588,-0.0001771992,0,1
-8.368748e-05,-0.0002285739,0,1
-2.874733e-05,-0.0002622834,0,1
2.052053e-05,-0.0002818933,0,1
6.46023e-05,-0.000301017,0,1
0.0001137081,-0.0003313232,0,1
0.0001751309,-0.0003716775,0,1
0.0002383363,-0.0004136524,0,1
0.0002843629,-0.000449955,0,1
0.000292142,-0.0004781544,0,1
0.0002456293,-0.0005013297,0,1
0.0001459591,-0.0005185087,0,1
2.230325e-05,-0.0005235327,0,1
-8.02841e-05,-0.0005089468,0,1
-0.0001324691,-0.0004724821,0,1
-0.0001357104,-0.0004139766,0,1
-0.0001054042,-0.0003421817,0,1
-6.132246e-05,-0.0002747625,0,1
-2.242678e-05,-0.0002254946,0,1
1.002961e-07,-0.0001943781,0,1
4.151929e-06,-0.0001689338,0,1
-3.951337e-06,-0.0001344139,0,1
-1.610624e-05,-8.547019e-05,0,1
-2.42095e-05,-2.42095e-05,0,1
-3.053005e-05,4.126489e-05,0,1
-4.47918e-05,0.0001078737,0,1
-7.137051e-05,0.0001817755,0,1
-0.000104756,0.0002715597,0,1
-0.0001290658,0.0003845193,0,1
-0.000127121,0.0005122268,0,1
-9.811128e-05,0.0006318311,0,1
-5.824322e-05,0.0007128638,0,1
-3.26369e-05,0.0007332841,0,1
-4.025397e-05,0.0006887161,0,1
-7.914964e-05,0.0005908285,0,1
-0.00012469,0.0004618245,0,1
-0.0001468929,0.0003276344,0,1
-0.0001313347,0.0002104611,0,1
-8.644259e-05,0.0001291043,0,1
-4.05781e-05,9.150514e-05,0,1
-2.84232e-05,9.766362e-05,0,1
-6.796714e-05,0.0001380179,0,1
-0.0001459206,0.0001906891,0,1
-0.0002292221,0.0002383363,0,1
-0.0002812451,0.0002684805,0,1
-0.0002895104,0.0002773941,0,1
-0.0002681178,0.0002624841,0,1
-0.0002303566,0.0002292607,0,1
-0.0001788198,0.0001887444,0,1
-9.843541e-05,0.0001500107,0,1
1.906194e-05,0.0001172735,0,1
0.0001618415,8.761557e-05,0,1
0.0002986247,5.585077e-05,0,1
0.0003885709,1.841368e-05,0,1
0.0004016982,-2.307504e-05,0,1
0.0003355756,-6.229485e-05,0,1
0.0002138645,-9.260107e-05,0,1
8.226741e-05,-0.0001105903,0,1
-1.869928e-05,-0.0001167488,0,1
-6.829127e-05,-0.0001136696,0,1
-7.282909e-05,-0.0001063766,0,1
-5.59743e-05,-9.065628e-05,0,1
-4.268495e-05,-5.727083e-05,0,1
-3.960571e-05,-2.978945e-06,0,1
-4.090223e-05,6.768154e-05,0,1
-3.814712e-05,0.0001423936,0,1
-2.323711e-05,0.0002043026,0,1
2.855407e-06,0.0002389846,0,1
3.591673e-05,0.0002440086,0,1
7.043665e-05,0.0002273159,0,1
0.000103498,0.0002015475,0,1
0.0001278078,0.0001752929,0,1
0.0001336421,0.0001511452,0,1
0.0001091703,0.0001185701,0,1
2.959619e-05,6.314371e-05,0,1
-0.0001235555,-1.643037e-05,0,1
-0.0003434782,-0.0001063766,0,1
-0.0005875485,-0.0001836818,0,1
-0.0007914266,-0.0002316531,0,1
-0.0009019551,-0.0002428356,0,1
-0.0008922312,-0.0002220912,0,1
-0.0007739235,-0.0001830335,0,1
-0.0005847933,-0.0001374932,0,1
-0.0003685983,-8.935975e-05,0,1
-0.0001627754,-4.43056e-05,0,1
1.727922e-05,-5.57199e-06,0,1
0.0001691344,3.332369e-05,0,1
0.0002974902,8.550872e-05,0,1
0.000396188,0.0001590864,0,1
0.0004639314,0.0002558394,0,1
0.0005050959,0.0003710679,0,1
0.000534916,0.0004995857,0,1
0.0005739738,0.000638962,0,1
0.0006294001,0.0007914656,0,1
0.0006835299,0.0009595275,0,1
0.0007123777,0.00112921,0,1
0.0007024916,0.001267938,0,1
0.0006503066,0.001331468,0,1
0.0005619809,0.0012869,0,1
0.0004572867,0.001133748,0,1
0.0003597233,0.0009050734,0,1
0.0002913317,0.0006493342,0,1
0.0002652392,0.0004046154,0,1
0.0002853353,0.0001921477,0,1
0.0003409237,2.197911e-05,0,1
0.0004120704,-0.0001013526,0,1
0.0004759242,-0.0001825473,0,1
0.0005130371,-0.0002326255,0,1
0.000515144,-0.0002734659,0,1
0.0004874308,-0.0003227338,0,1
0.0004384871,-0.0003901529,0,1
0.000381278,-0.0004792889,0,1
0.0003299033,-0.0005844692,0,1
0.0002918179,-0.0006982391,0,1
0.0002689667,-0.0008134675,0,1
0.0002603772,-0.0009296683,0,1
0.0002624841,-0.00104198,0,1
0.0002618358,-0.001139867,0,1
0.0002333123,-0.001208096,0,1
0.0001542244,-0.001236458,0,1
1.841368e-05,-0.001223169,0,1
-0.0001553203,-0.001174873,0,1
-0.0003339163,-0.001103402,0,1
-0.0004873921,-0.001018156,0,1
-0.0005946793,-0.0009228616,0,1
-0.0006421645,-0.0008223811,0,1
-0.0006342233,-0.0007267626,0,1
-0.0005844692,-0.0006418404,0,1
-0.0005188328,-0.0005697213,0,1
-0.0004684305,-0.0005018159,0,1
-0.000454817,-0.0004272659,0,1
-0.0004804233,-0.0003428299,0,1
-0.0005314739,-0.0002592042,0,1
-0.0005940311,-0.0001896782,0,1
-0.0006562641,-0.0001404103,0,1
-0.000707963,-0.0001000561,0,1
-0.0007408622,-4.85193e-05,0,1
-0.000747669,2.684107e-05,0,1
-0.0007223868,0.0001192183,0,1
-0.0006603158,0.0002038164,0,1
-0.0005702075,0.0002532463,0,1
-0.0004732924,0.0002564877,0,1
-0.0003893426,0.0002261814,0,1
-0.0003259751,0.0001830721,0,1
-0.00027849,0.0001459591,0,1
-0.0002358668,0.0001261871,0,1
-0.0001898403,0.0001287802,0,1
-0.0001413827,0.0001501728,0,1
-9.892161e-05,0.0001876099,0,1
-6.845333e-05,0.000239957,0,1
-5.127441e-05,0.0003026763,0,1
-4.884343e-05,0.0003665301,0,1
-6.164659e-05,0.0004240633,0,1
-8.07703e-05,0.0004734932,0,1
-9.697683e-05,0.0005133613,0,1
-0.0001020008,0.0005462606,0,1
-9.308726e-05,0.0005713807,0,1
-7.266703e-05,0.0005853184,0,1
-4.608832e-05,0.0005851563,0,1
-2.226472e-05,0.0005730013,0,1
-3.465141e-06,0.0005501501,0,1
1.808955e-05,0.0005041235,0,1
4.953022e-05,0.0004101256,0,1
9.377406e-05,0.0002542187,0,1
0.0001503349,4.547859e-05,0,1
0.0002010613,-0.0001908126,0,1
0.0002179161,-0.000424997,0,1
0.0001858272,-0.0006219063,0,1
0.0001218114,-0.0007604721,0,1
5.293359e-05,-0.0008453943,0,1
5.610517e-06,-0.0009029275,0,1
-5.57199e-06,-0.0009656468,0,1
1.711715e-05,-0.001053162,0,1
5.747142e-05,-0.001147322,0,1
0.00010366,-0.00119578,0,1
0.0001514693,-0.001140353,0,1
0.0002025199,-0.000953654,0,1
0.0002607014,-0.0006526987,0,1
0.000324393,-0.0002726556,0,1
0.0003921364,0.0001642725,0,1
0.0004572867,0.0006716992,0,1
0.0005065545,0.001258538,0,1
0.0005316747,0.001891243,0,1
0.0005295678,0.002471277,0,1
0.0005050959,0.002871743,0,1
0.0004696036,0.002983245,0,1
0.0004464283,0.002768344,0,1
0.0004568005,0.002286684,0,1
0.0005073649,0.001673427,0,1
0.0005734875,0.001078808,0,1
0.0006140039,0.0006170832,0,1
0.0005932595,0.0003336308,0,1
0.0005072028,0.0002094887,0,1
0.0003919743,0.0001872858,0,1
0.0002986247,0.0002094887,0,1
0.0002702632,0.0002419018,0,1
0.0003190449,0.0002735045,0,1
0.0004193634,0.0002940868,0,1
0.0005169268,0.0002892249,0,1
0.0005439916,0.0002419018,0,1
0.0004590694,0.0001445005,0,1
0.000259729,7.717366e-06,0,1
-1.691656e-05,-0.0001418689,0,1
-0.0003160891,-0.0002763831,0,1
-0.0005810658,-0.0003807532,0,1
-0.0007784614,-0.0004574101,0,1
-0.0008988759,-0.00051705,0,1
-0.0009492782,-0.0005676145,0,1
-0.0009371233,-0.0006019723,0,1
-0.0008671111,-0.0006123445,0,1
-0.0007559343,-0.0005959758,0,1
-0.0006314681,-0.0005598353,0,1
-0.0005211017,-0.0005167259,0,1
-0.0004426621,-0.0004766958,0,1
-0.0003990665,-0.0004405553,0,1
-0.0003825359,-0.0004087905,0,1
-0.0003807532,-0.0003848048,0,1
-0.0003885323,-0.0003784843,0,1
-0.0003992286,-0.0004021458,0,1
-0.0004010113,-0.0004501171,0,1
-0.000387722,-0.0005000332,0,1
-0.0003522297,-0.0005282326,0,1
-0.0002880518,-0.0005219121,0,1
-0.0002005366,-0.0004927403,0,1
-0.0001070249,-0.0004651892,0,1
-1.416145e-05,-0.0004531963,0,1
7.90261e-05,-0.0004530343,0,1
0.0001701068,-0.000459841,0,1
0.0002517878,-0.0004726442,0,1
0.0003128864,-0.0004883645,0,1
0.0003431926,-0.0005001953,0,1
0.0003430306,-0.0005014918,0,1
0.0003161277,-0.0004831784,0,1
0.0002717218,-0.0004410415,0,1
0.0002243987,-0.0003745947,0,1
0.0001947408,-0.0002882139,0,1
0.0001976579,-0.0001810887,0,1
0.0002360674,-5.759496e-05,0,1
0.0002958695,6.914012e-05,0,1
0.000353889,0.000168162,0,1
0.0003895433,0.0002018716,0,1
0.0003947294,0.0001537382,0,1
0.0003733368,4.207521e-05,0,1
0.0003389789,-9.227693e-05,0,1
0.0002974902,-0.000209126,0,1
0.0002514636,-0.0002780038,0,1
0.0002036544,-0.0002867553,0,1
0.0001598967,-0.0002418632,0,1
0.0001211631,-0.0001626133,0,1
8.74535e-05,-7.542214e-05,0,1
5.99024e-05,-4.761664e-06,0,1
4.369587e-05,3.688912e-05,0,1
5.131294e-05,4.855783e-05,0,1
8.810177e-05,3.494434e-05,0,1
0.000143204,5.772582e-06,0,1
0.0001924718,-2.696461e-05,0,1
0.0002148369,-5.467778e-05,0,1
0.0001979821,-7.218083e-05,0,1
0.0001436902,-6.861539e-05,0,1
7.30297e-05,-2.194059e-05,0,1
1.695509e-05,9.182927e-05,0,1
6.258778e-06,0.0002702632,0,1
4.758544e-05,0.0004717105,0,1
0.0001224596,0.0006276174,0,1
0.00019782,0.0006789921,0,1
0.0002454672,0.0006161107,0,1
0.0002509774,0.0004756001,0,1
0.0002141886,0.0003132105,0,1
0.000140773,0.0001764274,0,1
4.077869e-05,8.74535e-05,0,1
-6.877746e-05,4.013043e-05,0,1
-0.0001697442,1.436204e-05,0,1
-0.0002436459,-6.868513e-06,0,1
-0.0002854588,-2.874733e-05,0,1
-0.0003011791,-4.932962e-05,0,1
-0.0003079858,-6.342931e-05,0,1
-0.0003243544,-7.056019e-05,0,1
-0.0003549848,-7.412562e-05,0,1
-0.0003919357,-7.23429e-05,0,1
-0.0004162455,-5.970181e-05,0,1
-0.0004078181,-3.733679e-05,0,1
-0.0003566054,-1.20546e-05,0,1
-0.0002723315,5.772582e-06,0,1
-0.0001848162,1.079661e-05,0,1
-0.0001276072,4.80019e-06,0,1
-0.0001146419,-6.058186e-06,0,1
-0.0001408965,-1.918548e-05,0,1
-0.0001869231,-3.134038e-05,0,1
-0.0002334358,-4.138842e-05,0,1
-0.0002715212,-4.90055e-05,0,1
-0.0002977757,-5.500191e-05,0,1
-0.0003094444,-5.921561e-05,0,1
-0.0003055549,-6.197072e-05,0,1
-0.0002827037,-6.456377e-05,0,1
-0.0002400805,-6.861539e-05,0,1
-0.0001861127,-7.428769e-05,0,1
-0.0001358725,-8.141856e-05,0,1
-0.0001008664,-8.935975e-05,0,1
-7.461182e-05,-9.422172e-05,0,1
-3.928157e-05,-9.811128e-05,0,1
1.014835e-05,-0.0001102662,0,1
6.136099e-05,-0.0001434896,0,1
9.004655e-05,-0.0002073433,0,1
7.724339e-05,-0.0002974516,0,1
2.586868e-05,-0.0003924218,0,1
-4.122636e-05,-0.0004681064,0,1
-9.308726e-05,-0.0005060296,0,1
-0.000107349,-0.0005014918,0,1
-7.509801e-05,-0.000462272,0,1
-2.81688e-06,-0.0004018217,0,1
8.761557e-05,-0.0003337542,0,1
0.0001701068,-0.0002718453,0,1
0.0002321778,-0.0002269532,0,1
0.0002713977,-0.000206533,0,1
0.0002939248,-0.0002060468,0,1
0.0003125623,-0.0002110708,0,1
0.0003370341,-0.0002060468,0,1
0.0003632887,-0.000179306,0,1
0.0003759298,-0.000127121,0,1
0.0003618301,-5.046408e-05,0,1
0.0003164518,3.834771e-05,0,1
0.0002477361,0.0001221355,0,1
0.0001671896,0.0001895547,0,1
8.826383e-05,0.0002360674,0,1
2.619281e-05,0.0002608634,0,1
-4.761664e-06,0.0002731804,0,1
-3.789272e-06,0.0002817699,0,1
1.565857e-05,0.000287118,0,1
3.656499e-05,0.0002979764,0,1
4.855783e-05,0.0003337929,0,1
5.698522e-05,0.0004068843,0,1
6.946425e-05,0.0005156302,0,1
8.74535e-05,0.000643986,0,1
0.0001028497,0.0007721797,0,1
0.000108522,0.0008861118,0,1
9.766362e-05,0.0009747617,0,1
6.735741e-05,0.001027919,0,1
1.889987e-05,0.001043477,0,1
-3.879538e-05,0.001030026,0,1
-8.530812e-05,0.0009992336,0,1
-0.0001024871,0.0009575827,0,1
-9.357346e-05,0.0009060458,0,1
-7.039812e-05,0.0008392748,0,1
-4.47918e-05,0.0007562974,0,1
-2.874733e-05,0.0006734819,0,1
-2.777494e-05,0.0006151384,0,1
-4.349527e-05,0.0005875872,0,1
-7.218083e-05,0.0005715428,0,1
-0.0001141558,0.0005358884,0,1
-0.0001705545,0.0004608521,0,1
-0.0002407288,0.0003436788,0,1
-0.0003198166,0.0001976579,0,1
-0.0003980942,5.034055e-05,0,1
-0.0004600031,-6.002594e-05,0,1
-0.00048723,-0.0001086455,0,1
-0.0004695649,-0.0001003802,0,1
-0.0004139766,-6.958779e-05,0,1
-0.000345585,-5.64605e-05,0,1
-0.0002862691,-8.595638e-05,0,1
-0.0002441321,-0.0001527273,0,1
-0.0002053985,-0.0002229016,0,1
-0.0001481895,-0.0002564491,0,1
-6.229485e-05,-0.0002298704,0,1
4.418206e-05,-0.0001381414,0,1
0.0001574657,-8.720959e-07,0,1
0.0002611876,0.0001464453,0,1
0.0003457857,0.0002574601,0,1
0.0004075326,0.0002876042,0,1
0.0004462662,0.0002135403,0,1
0.0004559901,4.402e-05,0,1
0.0004320045,-0.0001833576,0,1
0.0003751195,-0.0004240246,0,1
0.0002940868,-0.0006467023,0,1
0.0002013854,-0.0008424772,0,1
0.0001193804,-0.001010701,0,1
7.221937e-05,-0.001145539,0,1
6.525056e-05,-0.001235323,0,1
8.486046e-05,-0.001263361,0,1
0.000108522,-0.001221872,0,1
0.0001227837,-0.001121392,0,1
0.0001245665,-0.0009855808,0,1
0.0001257009,-0.0008361567,0,1
0.0001368834,-0.0006902979,0,1
0.0001603829,-0.0005572423,0,1
0.0001913374,-0.0004352071,0,1
0.0002180782,-0.0003167374,0,1
0.0002260194,-0.0002049123,0,1
0.0002047888,-0.0001117248,0,1
0.0001568175,-4.965376e-05,0,1
9.669123e-05,-2.226472e-05,0,1
4.564065e-05,-2.145439e-05,0,1
1.468618e-05,-4.754691e-05,0,1
-6.176923e-08,-0.0001000561,0,1
-1.237873e-05,-0.0001731475,0,1
-4.041603e-05,-0.0002491561,0,1
-8.838737e-05,-0.0003134961,0,1
-0.0001410586,-0.0003551469,0,1
-0.0001708786,-0.0003694086,0,1
-0.0001561307,-0.0003540124,0,1
-9.454585e-05,-0.0003089583,0,1
-1.108221e-05,-0.0002373254,0,1
6.46023e-05,-0.0001468929,0,1
0.0001119254,-3.863332e-05,0,1
0.000128456,8.46984e-05,0,1
0.0001154908,0.0002211574,0,1
8.032264e-05,0.0003655576,0,1
3.202716e-05,0.0005138475,0,1
-2.031993e-05,0.0006533858,0,1
-6.877746e-05,0.0007635903,0,1
-0.0001104282,0.0008250132,0,1
-0.0001425172,0.0008360335,0,1
-0.0001575893,0.0008242028,0,1
-0.0001418689,0.0008357094,0,1
-8.741498e-05,0.000906532,0,1
-1.196227e-06,0.001034402,0,1
0.0001020394,0.001192254,0,1
0.0002000889,0.001334061,0,1
0.0002668598,0.001402128,0,1
0.000279663,0.001341516,0,1
0.0002336365,0.001126455,0,1
0.0001391524,0.0007804451,0,1
1.614476e-05,0.000368799,0,1
-0.0001146419,-2.356124e-05,0,1
-0.0002395943,-0.000333268,0,1
-0.0003579019,-0.0005399013,0,1
-0.0004726442,-0.0006536711,0,1
-0.0005794452,-0.0006915944,0,1
-0.0006601537,-0.0006776568,0,1
-0.0006972667,-0.0006296854,0,1
-0.0006873807,-0.0005661559,0,1
-0.000646054,-0.0005021401,0,1
-0.0005922483,-0.0004525481,0,1
-0.0005309877,-0.0004295348,0,1
-0.0004463896,-0.0004413656,0,1
-0.0003240303,-0.0004856094,0,1
-0.000161965,-0.0005504355,0,1
1.938607e-05,-0.0006217443,0,1
0.0001885823,-0.0006851118,0,1
0.0003180725,-0.0007394037,0,1
0.0003901916,-0.0007865646,0,1
0.0003982949,-0.0008225431,0,1
0.0003443271,-0.0008416669,0,1
0.0002446569,-0.0008403703,0,1
0.0001242423,-0.000817357,0,1
1.338965e-05,-0.0007773269,0,1
-6.48879e-05,-0.0007246558,0,1
-9.843541e-05,-0.0006619364,0,1
-8.44978e-05,-0.0005958138,0,1
-2.955766e-05,-0.0005327704,0,1
5.228533e-05,-0.0004666478,0,1
0.0001451488,-0.0003914495,0,1
0.0002362295,-0.0003141443,0,1
0.0003099692,-0.0002528836,0,1
0.0003449753,-0.0002227395,0,1
0.0003264999,-0.0002254946,0,1
0.0002637806,-0.0002493182,0,1
0.000187772,-0.000273628,0,1
0.0001354248,-0.0002804347,0,1
0.0001197045,-0.0002655248,0,1
0.0001339663,-0.0002429977,0,1
0.0001602208,-0.000231329,0,1
0.000180479,-0.0002374874,0,1
0.0001791825,-0.000256287,0,1
0.0001508211,-0.0002684419,0,1
0.0001025256,-0.0002567732,0,1
4.191315e-05,-0.00021415,0,1
-2.631635e-05,-0.0001373311,0,1
-9.956988e-05,-2.550602e-05,0,1
-0.0001635857,0.0001281319,0,1
-0.0002005366,0.0003409237,0,1
-0.0002034537,0.0006321552,0,1
-0.0001807646,0.001001989,0,1
-0.0001524032,0.001397267,0,1
-0.0001277692,0.001720426,0,1
-0.0001067007,0.001874064,0,1
-8.854943e-05,0.00181572,0,1
-7.688073e-05,0.001576673,0,1
-7.995997e-05,0.001238442,0,1
-9.875954e-05,0.0008901635,0,1
-0.0001208004,0.0006046041,0,1
-0.0001302002,0.0004208219,0,1
-0.0001211246,0.0003378445,0,1
-0.0001024871,0.0003279585,0,1
-8.530812e-05,0.0003592371,0,1
-8.303922e-05,0.0004070464,0,1
-0.0001083214,0.0004465904,0,1
-0.0001608306,0.0004602039,0,1
-0.0002235498,0.0004389733,0,1
-0.0002656868,0.0003866261,0,1
-0.0002569353,0.0003179104,0,1
-0.0001887058,0.0002547049,0,1
-7.444975e-05,0.0002263435,0,1
6.476436e-05,0.0002487085,0,1
0.0002080301,0.0003146691,0,1
0.0003530786,0.0003979707,0,1
0.0005065545,0.0004668485,0,1
0.0006644063,0.0004984512,0,1
0.000804917,0.000492779,0,1
0.0008900014,0.0004637693,0,1
0.0008874084,0.0004307079,0,1
0.0007921138,0.0004073705,0,1
0.0006321552,0.0003905157,0,1
0.0004522626,0.0003692851,0,1
0.0002884145,0.0003383307,0,1
0.0001636242,0.0002979764,0,1
8.79397e-05,0.0002532463,0,1
4.920609e-05,0.0002107852,0,1
1.841368e-05,0.0001723757,0,1
-3.117831e-05,0.0001360731,0,1
-0.0001086455,9.879808e-05,0,1
-0.0002005366,5.585077e-05,0,1
-0.0002830278,1.072688e-06,0,1
-0.0003379679,-6.877746e-05,0,1
-0.0003572537,-0.0001566169,0,1
-0.00035304,-0.0002577456,0,1
-0.0003481781,-0.0003661673,0,1
-0.0003579019,-0.0004843129,0,1
-0.0003809152,-0.0006134789,0,1
-0.0004117076,-0.0007462104,0,1
-0.0004483344,-0.0008695421,0,1
-0.0004911196,-0.0009695364,0,1
-0.0005356876,-0.001033714,0,1
-0.0005716661,-0.001054783,0,1
-0.0005847933,-0.00103809,0,1
-0.0005703696,-0.001000815,0,1
-0.0005274223,-0.0009649985,0,1
-0.0004565997,-0.0009461989,0,1
-0.0003553089,-0.0009466851,0,1
-0.0002272773,-0.0009572194,0,1
-8.303922e-05,-0.0009596504,0,1
5.974033e-05,-0.000939068,0,1
0.0001817755,-0.0008812108,0,1
0.0002707494,-0.0007789475,0,1
0.0003219621,-0.0006321164,0,1
0.0003405996,-0.0004554653,0,1
0.0003461098,-0.0002663351,0,1
0.0003592371,-7.266703e-05,0,1
0.0003866261,0.0001245665,0,1
0.0004164462,0.0003214759,0,1
0.0004365423,0.0005078511,0,1
0.0004399457,0.0006648925,0,1
0.0004331389,0.00077769,0,1
0.0004347596,0.0008400852,0,1
0.0004546936,0.0008512677,0,1
0.0004786793,0.0008141547,0,1
0.000473007,0.0007331221,0,1
0.0003978086,0.0006193521,0,1
0.0002308813,0.0004921307,0,1
-1.189254e-05,0.0003699334,0,1
-0.0002765452,0.0002666978,0,1
-0.0005048952,0.0001918236,0,1
-0.0006624226,0.0001480659,0,1
-0.0007431312,0.000123432,0,1
-0.0007651721,0.0001030118,0,1
-0.0007562584,7.30297e-05,0,1
-0.0007319486,2.538249e-05,0,1
-0.0006917564,-3.766092e-05,0,1
-0.0006277406,-0.000104756,0,1
-0.0005347152,-0.0001666649,0,1
-0.0004136524,-0.0002169052,0,1
-0.0002817312,-0.0002522354,0,1
-0.0001658546,-0.0002707109,0,1
-9.260107e-05,-0.0002695764,0,1
-6.456377e-05,-0.0002476975,0,1
-6.407757e-05,-0.0002086398,0,1
-5.629844e-05,-0.0001579134,0,1
1.720949e-06,-9.503204e-05,0,1
0.0001363972,-1.25408e-05,0,1
0.000339141,0.000103498,0,1
0.000567167,0.0002472499,0,1
0.0007668316,0.0003824125,0,1
0.000896322,0.0004592314,0,1
0.0009379727,0.0004485351,0,1
0.0009011839,0.0003631267,0,1
0.0008065377,0.000239957,0,1
0.0006809369,0.0001145184,0,1
0.0005418848,1.274139e-05,0,1
0.0004018603,-5.824322e-05,0,1
0.000269777,-0.0001029732,0,1
0.0001521176,-0.0001293899,0,1
4.904402e-05,-0.0001383035,0,1
-3.555408e-05,-0.0001319829,0,1
-0.0001028112,-0.0001152902,0,1
-0.0001622891,-9.892161e-05,0,1
-0.0002159328,-8.433573e-05,0,1
-0.0002593663,-6.991193e-05,0,1
-0.0002814071,-5.467778e-05,0,1
-0.0002801106,-3.555408e-05,0,1
-0.0002622834,-8.975362e-06,0,1
-0.0002418632,3.18651e-05,0,1
-0.0002232257,8.891209e-05,0,1
-0.0001985918,0.00015309,0,1
-0.0001546721,0.0002099749,0,1
-8.287715e-05,0.0002482223,0,1
1.857574e-05,0.0002607014,0,1
0.0001396385,0.0002579462,0,1
0.000267346,0.0002584324,0,1
0.000388733,0.0002652392,0,1
0.0004976409,0.0002660495,0,1
0.0005804563,0.000239957,0,1
0.0006264829,0.0001723757,0,1
0.0006295622,6.946425e-05,0,1
0.0005932595,-4.625038e-05,0,1
0.0005269747,-0.0001536997,0,1
0.0004420525,-0.0002410529,0,1
0.0003459477,-0.0003049066,0,1
0.0002419018,-0.0003475298,0,1
0.0001289422,-0.0003781601,0,1
1.54965e-05,-0.0004071698,0,1
-7.65566e-05,-0.0004412035,0,1
-0.0001331174,-0.0004799371,0,1
-0.00015451,-0.0005189948,0,1
-0.0001566169,-0.0005510838,0,1
-0.0001543479,-0.0005692351,0,1
-0.0001577513,-0.0005708557,0,1
-0.0001621271,-0.0005622663,0,1
-0.0001554824,-0.0005543251,0,1
-0.0001355484,-0.0005562698,0,1
-0.0001161005,-0.0005646973,0,1
-0.0001208004,-0.0005646973,0,1
-0.0001606685,-0.0005332566,0,1
-0.0002311669,-0.0004541688,0,1
-0.0003190063,-0.0003288923,0,1
-0.0004154351,-0.000174444,0,1
-0.0005131605,-1.643037e-05,0,1
-0.0006091032,0.0001206769,0,1
-0.0006988873,0.0002269918,0,1
-0.0007761925,0.0003013798,0,1
-0.0008285395,0.0003475684,0,1
-0.0008442599,0.000373823,0,1
-0.0008163847,0.0003934329,0,1
-0.0007499378,0.0004107739,0,1
-0.0006624226,0.0004227667,0,1
-0.0005744212,0.0004164462,0,1
-0.0005018159,0.000378685,0,1
-0.0004515757,0.0003080245,0,1
-0.0004157593,0.0002171058,0,1
-0.0003728119,0.0001242423,0,1
-0.0003102548,3.850978e-05,0,1
-0.0002251705,-3.879538e-05,0,1
-0.0001183694,-0.0001161005,0,1
5.772582e-06,-0.0002021572,0,1
0.0001323456,-0.0002985861,0,1
0.0002407673,-0.0004021458,0,1
0.0003146691,-0.0005027883,0,1
0.0003511338,-0.0005852795,0,1
0.0003600474,-0.0006296854,0,1
0.0003542131,-0.0006308199,0,1
0.0003389789,-0.0006042412,0,1
0.0003107795,-0.0005719902,0,1
0.0002650771,-0.000539091,0,1
0.0002073819,-0.0004946851,0,1
0.0001475797,-0.0004228902,0,1
9.231547e-05,-0.0003079858,0,1
4.888196e-05,-0.0001327933,0,1
1.452411e-05,0.0001069013,0,1
-1.497178e-05,0.0003973225,0,1
-3.555408e-05,0.0007112432,0,1
-3.68506e-05,0.001019005,0,1
-1.432352e-05,0.001301972,0,1
2.76514e-05,0.001546367,0,1
7.999851e-05,0.001728691,0,1
0.0001362352,0.0018235,0,1
0.0001937684,0.0018188,0,1
0.0002558394,0.001729501,0,1
0.0003172622,0.001588666,0,1
0.0003699334,0.001431138,0,1
0.0004018603,0.001278959,0,1
0.0004044533,0.001139906,0,1
0.0003804677,0.001017223,0,1
0.0003508097,0.0009105837,0,1
0.0003324963,0.0008149651,0,1
0.000331848,0.0007216153,0,1
0.0003347652,0.0006308587,0,1
0.0003156415,0.0005459364,0,1
0.0002652392,0.0004662003,0,1
0.000190365,0.0003877606,0,1
0.0001081979,0.0003062417,0,1
4.158902e-05,0.0002164575,0,1
8.689758e-06,0.0001099806,0,1
1.031041e-05,-2.064406e-05,0,1
3.121684e-05,-0.0001705545,0,1
5.487838e-05,-0.0003199787,0,1
7.076078e-05,-0.0004446069,0,1
7.351589e-05,-0.000534229,0,1
6.346784e-05,-0.0006108859,0,1
5.034055e-05,-0.0007008321,0,1
5.358185e-05,-0.0008134675,0,1
8.583286e-05,-0.000946361,0,1
0.0001462832,-0.001087034,0,1
0.0002148369,-0.001213121,0,1
0.0002683184,-0.001300798,0,1
0.000292142,-0.001337587,0,1
0.0002866318,-0.001336614,0,1
0.0002603772,-0.001323973,0,1
0.0002290986,-0.001324621,0,1
0.000200251,-0.001353469,0,1
0.0001773998,-0.001400144,0,1
0.0001477418,-0.001437905,0,1
9.361199e-05,-0.00143985,0,1
1.209313e-05,-0.001386206,0,1
-7.736692e-05,-0.001269843,0,1
-0.0001481895,-0.001084765,0,1
-0.0001836818,-0.0008176812,0,1
-0.0001818991,-0.0004494688,0,1
-0.0001481895,3.179537e-06,0,1
-9.162867e-05,0.0004624728,0,1
-2.177852e-05,0.0008285785,0,1
4.677511e-05,0.00102565,0,1
9.782569e-05,0.001042019,0,1
0.0001224596,0.0009373245,0,1
0.0001169494,0.0008028102,0,1
8.275361e-05,0.0007128638,0,1
3.121684e-05,0.0006866092,0,1
-2.129233e-05,0.0006940642,0,1
-6.261898e-05,0.0006901747,0,1
-8.854943e-05,0.0006402585,0,1
-0.0001081593,0.0005384815,0,1
-0.000134738,0.0004068843,0,1
-0.0001746061,0.0002838767,0,1
-0.0002246843,0.0001991165,0,1
-0.0002758969,0.0001613553,0,1
-0.0003228959,0.000153252,0,1
-0.0003695707,0.0001477418,0,1
-0.0004222419,0.000121001,0,1
-0.0004873921,6.849186e-05,0,1
-0.0005595111,-2.330684e-06,0,1
-0.0006227166,-7.65566e-05,0,1
-0.0006572366,-0.0001464067,0,1
-0.000646054,-0.0002083157,0,1
-0.0005843072,-0.0002624455,0,1
-0.0004789647,-0.0003110651,0,1
-0.0003544986,-0.0003606571,0,1
-0.0002473734,-0.000407656,0,1
-0.0001823853,-0.0004329382,0,1
-0.0001656925,-0.0004173799,0,1
-0.0001755785,-0.0003583881,0,1
-0.0001721751,-0.0002653627,0,1
-0.0001240417,-0.0001506204,0,1
-2.761287e-05,-2.534396e-05,0,1
8.875003e-05,9.490851e-05,0,1
0.0001924718,0.000195389,0,1
0.0002655633,0.0002694529,0,1
0.0003151553,0.000324393,0,1
0.0003597233,0.0003694472,0,1
0.000413529,0.0004104497,0,1
0.0004676588,0.0004444835,0,1
0.0004900239,0.0004674968,0,1
0.0004486972,0.0004770586,0,1
0.0003381686,0.0004768966,0,1
0.0001858272,0.0004702519,0,1
4.402e-05,0.0004619866,0,1
-4.592625e-05,0.0004537212,0,1
-6.342931e-05,0.000443187,0,1
-1.545797e-05,0.0004187151,0,1
6.995045e-05,0.0003642611,0,1
0.000155683,0.0002728562,0,1
0.0002124059,0.0001487142,0,1
0.0002326641,1.808955e-05,0,1
0.0002308813,-8.806324e-05,0,1
0.0002243987,-0.0001549962,0,1
0.0002253711,-0.0001862748,0,1
0.0002313675,-0.0001953505,0,1
0.0002297469,-0.0001985918,0,1
0.000217592,-0.0002073433,0,1
0.0001931201,-0.0002266291,0,1
0.0001537382,-0.0002656868,0,1
0.0001046324,-0.0003284061,0,1
5.844381e-05,-0.0003979321,0,1
2.39239e-05,-0.0004468758,0,1
2.531276e-06,-0.0004614617,0,1
-1.480971e-05,-0.0004512515,0,1
-4.300908e-05,-0.0004314796,0,1
-8.579432e-05,-0.0004110594,0,1
-0.0001358725,-0.000377836,0,1
-0.0001781716,-0.0003128478,0,1
-0.0002005366,-0.0002152845,0,1
-0.0002047502,-0.0001084835,0,1
-0.000204102,-2.583016e-05,0,1
-0.000211557,7.23117e-06,0,1
-0.0002272773,-1.432352e-05,0,1
-0.0002446183,-7.704279e-05,0,1
-0.0002579077,-0.0001538618,0,1
-0.0002608248,-0.0002233878,0,1
-0.0002588801,-0.0002750866,0,1
-0.0002630937,-0.000318358,0,1
-0.0002796244,-0.0003619536,0,1
-0.0003112272,-0.0004024699,0,1
-0.0003549848,-0.0004266177,0,1
-0.0004068457,-0.0004228902,0,1
-0.0004564377,-0.0003990665,0,1
-0.0004898231,-0.0003734602,0,1
-0.0004924161,-0.0003626019,0,1
-0.000454817,-0.0003708672,0,1
-0.0003770257,-0.0003946908,0,1
-0.0002700626,-0.0004238625,0,1
-0.0001559686,-0.0004478482,0,1
-6.099833e-05,-0.0004606514,0,1
2.693341e-06,-0.000459679,0,1
4.531652e-05,-0.0004382863,0,1
8.372601e-05,-0.0003835083,0,1
0.0001253768,-0.0002865932,0,1
0.0001577899,-0.0001509446,0,1
0.000160545,6.258778e-06,0,1
0.000118408,0.0001613553,0,1
3.543054e-05,0.0002927903,0,1
-6.553616e-05,0.0003929467,0,1
-0.000142031,0.0004676588,0,1
-0.0001548341,0.0005255162,0,1
-8.82253e-05,0.0005657084,0,1
4.142696e-05,0.0005809425,0,1
0.0001913374,0.0005616568,0,1
0.0003140208,0.0005025029,0,1
0.0003785229,0.0004046154,0,1
0.000383709,0.0002861456,0,1
0.000344165,0.0001751309,0,1
0.0002842008,9.977047e-05,0,1
0.0002196988,7.870197e-05,0,1
0.0001616794,0.0001179218,0,1
0.0001197045,0.0002070577,0,1
0.0001033359,0.000321638,0,1
0.0001226217,0.000438325,0,1
0.0001726999,0.0005415607,0,1
0.0002402811,0.0006159487,0,1
0.0002986247,0.0006470652,0,1
0.0003261758,0.0006433378,0,1
0.0003114278,0.0006295622,0,1
0.0002581083,0.0006274553,0,1
0.0001850168,0.0006452826,0,1
0.0001104668,0.0006827196,0,1
4.466826e-05,0.0007392805,0,1
-7.516774e-06,0.000817234,0,1
-4.80331e-05,0.0009156077,0,1
-7.979791e-05,0.001024516,0,1
-0.0001018388,0.001117704,0,1
-0.0001092938,0.001158868,0,1
-0.000102325,0.00111511,0,1
-8.352541e-05,0.000973141,0,1
-6.002594e-05,0.0007462493,0,1
-3.004385e-05,0.0004691174,0,1
1.841368e-05,0.0001796687,0,1
9.409818e-05,-8.692878e-05,0,1
0.0001908512,-0.0003100927,0,1
0.0002858215,-0.0004859335,0,1
0.0003577785,-0.0006227166,0,1
0.0003950536,-0.0007282211,0,1
0.0003982949,-0.0008120089,0,1
0.0003749574,-0.0008881796,0,1
0.0003430306,-0.0009705087,0,1
0.0003133726,-0.001057214,0,1
0.0002926282,-0.001135329,0,1
0.0002751252,-0.001178276,0,1
0.0002519498,-0.001164339,0,1
0.0002145127,-0.001082658,0,1
0.0001611932,-0.0009353406,0,1
9.474644e-05,-0.0007262764,0,1
1.906194e-05,-0.0004504412,0,1
-5.970181e-05,-9.697683e-05,0,1
-0.0001358725,0.0003138588,0,1
-0.0002031296,0.0007143224,0,1
-0.0002543422,0.001025164,0,1
-0.0002805968,0.00118885,0,1
-0.0002814071,0.001189012,0,1
-0.0002653627,0.001048826,0,1
-0.0002491561,0.0008170719,0,1
-0.0002374874,0.0005496639,0,1
-0.0002253326,0.0003033245,0,1
-0.0002070192,0.0001175977,0,1
-0.0001810887,9.013889e-06,0,1
-0.0001535376,-2.534396e-05,0,1
-0.0001334415,4.151929e-06,0,1
-0.0001227452,8.615699e-05,0,1
-0.0001170729,0.0001979821,0,1
-0.0001088076,0.0003067279,0,1
-9.2439e-05,0.0003778746,0,1
-7.363943e-05,0.000393757,0,1
-5.727083e-05,0.0003527545,0,1
-4.43056e-05,0.0002670219,0,1
-3.344723e-05,0.0001519555,0,1
-1.707863e-05,2.295151e-05,0,1
1.1769e-05,-0.0001018388,0,1
5.893001e-05,-0.0002045882,0,1
0.0001221355,-0.0002781658,0,1
0.0001976579,-0.0003217614,0,1
0.0002759355,-0.0003410472,0,1
0.0003409237,-0.0003438023,0,1
0.0003712299,-0.0003352128,0,1
0.0003509718,-0.0003177098,0,1
0.0002843629,-0.0002899966,0,1
0.0001963614,-0.0002601766,0,1
0.0001148425,-0.0002425115,0,1
6.444023e-05,-0.0002410529,0,1
4.871989e-05,-0.0002467252,0,1
5.649903e-05,-0.0002407288,0,1
6.703327e-05,-0.0002037779,0,1
5.585077e-05,-0.0001250141,0,1
1.079661e-05,-1.237873e-05,0,1
-5.64605e-05,0.000115977,0,1
-0.0001185315,0.0002381743,0,1
-0.0001536997,0.0003331446,0,1
-0.0001499722,0.0003898674,0,1
-0.0001089697,0.0004073705,0,1
-4.932962e-05,0.0003877606,0,1
8.041497e-06,0.000334117,0,1
4.35338e-05,0.0002488706,0,1
4.320967e-05,0.0001368834,0,1
4.638125e-06,1.144487e-05,0,1
-5.905355e-05,-0.000104756,0,1
-0.0001214487,-0.0001911368,0,1
-0.0001613168,-0.0002418632,0,1
-0.0001665028,-0.0002681178,0,1
-0.0001323071,-0.0002937241,0,1
-6.91016e-05,-0.0003373197,0,1
-7.354709e-06,-0.0004084663,0,1
2.197911e-05,-0.0004990608,0,1
1.160693e-05,-0.0005943552,0,1
-2.647842e-05,-0.0006740913,0,1
-6.893953e-05,-0.0007236833,0,1
-9.551824e-05,-0.0007385933,0,1
-0.0001029732,-0.0007304901,0,1
-0.0001026491,-0.0007206041,0,1
-0.0001068628,-0.0007256281,0,1
-0.0001216107,-0.0007500999,0,1
-0.0001457585,-0.0007833233,0,1
-0.0001818991,-0.0008069849,0,1
-0.0002277635,-0.0008050401,0,1
-0.0002653627,-0.0007718167,0,1
-0.0002796244,-0.0007069906,0,1
-0.0002692523,-0.0006152617,0,1
-0.0002507768,-0.0005084606,0,1
-0.0002429977,-0.0004070078,0,1
-0.0002528836,-0.000325813,0,1
-0.0002823795,-0.0002739521,0,1
-0.0003233821,-0.0002483458,0,1
-0.0003583881,-0.0002344082,0,1
-0.0003619536,-0.0002169052,0,1
-0.0003186821,-0.0001851404,0,1
-0.0002397564,-0.0001430034,0,1
-0.0001652063,-0.0001010285,0,1
-0.0001350622,-6.699475e-05,0,1
-0.0001681235,-4.349527e-05,0,1
-0.0002569353,-2.485776e-05,0,1
-0.0003723258,-3.14101e-06,0,1
-0.0004843129,3.202716e-05,0,1
-0.0005718282,8.761557e-05,0,1
-0.0006270924,0.0001654069,0,1
-0.0006512401,0.0002550291,0,1
-0.0006450817,0.0003407616,0,1
-0.0005995413,0.0004076947,0,1
-0.0005068399,0.0004469145,0,1
-0.0003692465,0.0004568005,0,1
-0.0002055606,0.0004388112,0,1
-3.928157e-05,0.0004005638,0,1
0.000115977,0.0003550234,0,1
0.0002615117,0.0003145071,0,1
0.0004007258,0.0002851732,0,1
0.0005277851,0.0002675081,0,1
0.000636531,0.0002568118,0,1
0.0007211292,0.0002469258,0,1
0.0007869278,0.0002329882,0,1
0.0008465679,0.0002099749,0,1
0.0009047493,0.000177886,0,1
0.0009541793,0.0001428799,0,1
0.0009760582,0.0001124116,0,1
0.0009454277,9.393612e-05,0,1
0.0008559676,8.956036e-05,0,1
0.0007321496,9.701536e-05,0,1
0.0006211348,0.0001175977,0,1
0.0005689497,0.0001487142,0,1
0.000599256,0.000177886,0,1
0.0006971435,0.0001908512,0,1
0.0008182063,0.0001812893,0,1
0.0009105837,0.0001566554,0,1
0.000936028,0.0001294284,0,1
0.0008820602,0.0001112771,0,1
0.0007592146,0.0001090082,0,1
0.0005926113,0.0001235941,0,1
0.000418391,0.0001535762,0,1
0.0002691288,0.00019782,0,1
0.0001576278,0.0002579462,0,1
8.080883e-05,0.0003324963,0,1
3.445814e-05,0.0004115842,0,1
1.582063e-05,0.0004812723,0,1
1.695509e-05,0.0005271368,0,1
2.505836e-05,0.0005389676,0,1
3.397195e-05,0.0005135234,0,1
3.802358e-05,0.0004555039,0,1
3.543054e-05,0.0003845193,0,1
2.408596e-05,0.0003247172,0,1
4.313994e-06,0.0002923041,0,1
-2.145439e-05,0.0002901973,0,1
-5.111234e-05,0.0003067279,0,1
-7.769106e-05,0.0003245551,0,1
-0.0001008664,0.0003250413,0,1
-0.0001300382,0.0002963557,0,1
-0.0001757406,0.0002331503,0,1
-0.0002412149,0.0001470936,0,1
-0.0003297026,5.876794e-05,0,1
-0.0004332623,-1.335113e-05,0,1
-0.0005381186,-6.083626e-05,0,1
-0.0006267683,-8.563225e-05,0,1
-0.0006938633,-8.968389e-05,0,1
-0.0007392416,-7.55842e-05,0,1
-0.0007687375,-4.884343e-05,0,1
-0.0007938576,-1.497178e-05,0,1
-0.0008212466,1.322759e-05,0,1
-0.0008491218,1.760335e-05,0,1
-0.0008679214,-8.975362e-06,0,1
-0.0008588458,-6.667062e-05,0,1
-0.0008029332,-0.0001418689,0,1
-0.0006932151,-0.0002120432,0,1
-0.0005458977,-0.000251263,0,1
-0.0003925839,-0.0002415391,0,1
-0.0002655248,-0.0001853024,0,1
-0.000189192,-0.0001039456,0,1
-0.0001690959,-2.761287e-05,0,1
-0.0001930815,1.582063e-05,0,1
-0.0002412149,1.112074e-05,0,1
-0.0002972895,-3.150244e-05,0,1
-0.0003577399,-9.114248e-05,0,1
-0.0004269418,-0.0001485136,0,1
-0.0005006815,-0.0001943781,0,1
-0.0005661559,-0.0002276015,0,1
-0.0006055377,-0.0002494803,0,1
-0.0006045654,-0.0002640662,0,1
-0.000559187,-0.0002694143,0,1
-0.0004794509,-0.0002609869,0,1
-0.0003839945,-0.0002353806,0,1
-0.0002922655,-0.0001963229,0,1
-0.0002146363,-0.0001488377,0,1
-0.0001522411,-9.697683e-05,0,1
-0.0001021629,-4.236082e-05,0,1
-5.824322e-05,1.403791e-05,0,1
-2.437157e-05,6.865393e-05,0,1
-3.789272e-06,0.0001154908,0,1
7.879432e-06,0.0001514693,0,1
2.068259e-05,0.0001775618,0,1
4.434413e-05,0.0001965235,0,1
8.74535e-05,0.000207706,0,1
0.0001500107,0.0002088404,0,1
0.0002224539,0.0002020337,0,1
0.0002957075,0.0001892305,0,1
0.0003720403,0.0001720516,0,1
0.0004589073,0.0001493625,0,1
0.0005529052,0.0001172735,0,1
0.000636531,7.416415e-05,0,1
0.0006906608,2.262738e-05,0,1
0.0007041123,-3.360929e-05,0,1
0.0006875816,-8.984595e-05,0,1
0.0006614891,-0.0001374932,0,1
0.0006491721,-0.0001655305,0,1
0.0006571133,-0.0001681235,0,1
0.0006763991,-0.0001541859,0,1
0.0006874196,-0.0001279313,0,1
0.0006744543,-8.368748e-05,0,1
0.0006423654,-8.489166e-06,0,1
0.0006073592,0.0001023635,0,1
0.0005768909,0.0002321778,0,1
0.0005391297,0.0003522683,0,1
0.0004739794,0.0004367043,0,1
0.0003653956,0.0004736553,0,1
0.0002146748,0.0004649037,0,1
4.288554e-05,0.0004263322,0,1
-0.0001177212,0.0003720403,0,1
-0.0002368392,0.0003080245,0,1
-0.0002985861,0.0002329882,0,1
-0.0003047445,0.0001526038,0,1
-0.0002726556,8.259155e-05,0,1
-0.0002285739,4.126489e-05,0,1
-0.0001994021,3.267542e-05,0,1
-0.0002006986,3.948217e-05,0,1
-0.0002332737,3.543054e-05,0,1
-0.0002797865,8.203562e-06,0,1
-0.000310741,-3.911951e-05,0,1
-0.000301017,-9.794922e-05,0,1
-0.0002459149,-0.0001622891,0,1
-0.0001687718,-0.0002254946,0,1
-0.0001007043,-0.0002830278,0,1
-5.889148e-05,-0.0003219235,0,1
-3.976777e-05,-0.000328082,0,1
-2.210265e-05,-0.000300855,0,1
1.565857e-05,-0.000253856,0,1
7.6271e-05,-0.0002013469,0,1
0.0001487142,-0.0001493239,0,1
0.0002174299,-7.995997e-05,0,1
0.0002681563,2.246531e-05,0,1
0.0002853353,0.0001521176,0,1
0.0002619979,0.0002863077,0,1
0.0001997648,0.0003914881,0,1
0.0001098185,0.0004378388,0,1
7.879432e-06,0.0004117463,0,1
-9.341139e-05,0.0003264999,0,1
-0.0001802784,0.0002135403,0,1
-0.0002467252,9.960841e-05,0,1
-0.0002919414,-5.479652e-07,0,1
-0.0003168994,-8.709085e-05,0,1
-0.0003186821,-0.0001724993,0,1
-0.0002937241,-0.0002752487,0,1
-0.0002433218,-0.000407656,0,1
-0.0001848162,-0.0005693972,0,1
-0.0001339277,-0.0007436173,0,1
-9.649064e-05,-0.0009045482,0,1
-6.958779e-05,-0.001025287,0,1
-4.608832e-05,-0.001092058,0,1
-2.145439e-05,-0.001111992,0,1
-8.489166e-06,-0.001105995,0,1
-2.307504e-05,-0.001104537,0,1
-6.861539e-05,-0.001129657,0,1
-0.0001289037,-0.001185731,0,1
-0.0001770371,-0.001263685,0,1
-0.000191623,-0.00134569,0,1
-0.0001606685,-0.001410516,0,1
-8.854943e-05,-0.001436609,0,1
9.175954e-06,-0.001406464,0,1
0.0001064152,-0.001310522,0,1
0.0001811273,-0.001152832,0,1
0.0002279642,-0.0009444162,0,1
0.0002467637,-0.0006974287,0,1
0.0002367157,-0.0004248349,0,1
0.0001921477,-0.0001465688,0,1
0.0001099806,0.0001072255,0,1
-5.89612e-06,0.0003112658,0,1
-0.0001357104,0.000458259,0,1
-0.0002575835,0.0005538776,0,1
-0.0003488263,0.0006046041,0,1
-0.0003862634,0.0006154625,0,1
-0.0003561192,0.0005940699,0,1
-0.0002569353,0.0005506363,0,1
-0.0001057284,0.0005047718,0,1
6.200925e-05,0.0004731691,0,1
0.0002075439,0.0004691174,0,1
0.0003067279,0.0004973168,0,1
0.000356644,0.0005490156,0,1
0.0003743092,0.0006063868,0,1
0.0003830607,0.000648848,0,1
0.0004042913,0.0006577615,0,1
0.0004444835,0.000624214,0,1
0.0004984512,0.0005551741,0,1
0.000557281,0.0004720346,0,1
0.0006174073,0.0003963501,0,1
0.0006789921,0.0003474063,0,1
0.0007300428,0.0003443271,0,1
0.000752894,0.0004004017,0,1
0.0007352289,0.0005169268,0,1
0.0006780197,0.0006789921,0,1
0.0005947181,0.0008733086,0,1
0.0005041235,0.001096311,0,1
0.0004273046,0.001348647,0,1
0.0003743092,0.001617028,0,1
0.0003360618,0.001867905,0,1
0.0002890628,0.002050392,0,1
0.0002088404,0.002118297,0,1
8.777764e-05,0.002049743,0,1
-6.537409e-05,0.001857371,0,1
-0.0002297083,0.00157878,0,1
-0.0003752429,0.001264211,0,1
-0.0004788027,0.0009632549,0,1
-0.0005327704,0.000710919,0,1
-0.000541846,0.0005292437,0,1
-0.0005133225,0.000423415,0,1
-0.0004528722,0.0003769022,0,1
-0.0003627639,0.0003585888,0,1
-0.0002504527,0.0003375204,0,1
-0.0001323071,0.0002997591,0,1
-3.26369e-05,0.000244981,0,1
2.149292e-05,0.0001773998,0,1
1.987227e-05,0.0001017153,0,1
-2.696461e-05,2.39239e-05,0,1
-9.341139e-05,-4.770897e-05,0,1
-0.0001585616,-0.0001136696,0,1
-0.0002178775,-0.0001825473,0,1
-0.0002817312,-0.0002619593,0,1
-0.0003614674,-0.0003541745,0,1
-0.000459679,-0.0004510895,0,1
-0.0005706937,-0.0005436288,0,1
-0.0006774947,-0.0006222305,0,1
-0.0007617687,-0.0006808981,0,1
-0.0008163847,-0.0007188214,0,1
-0.000857063,-0.0007379451,0,1
-0.0009006586,-0.0007379451,0,1
-0.000951223,-0.0007201179,0,1
-0.001001949,-0.0006901358,0,1
-0.001047328,-0.0006522125,0,1
-0.001074879,-0.0006146134,0,1
-0.001068234,-0.0005877105,0,1
-0.001010701,-0.0005867381,0,1
-0.0008985517,-0.0006269303,0,1
-0.0007442656,-0.0007068285,0,1
-0.0005728005,-0.000804878,0,1
-0.0004053871,-0.0008896381,0,1
-0.0002498044,-0.0009387439,0,1
-0.0001007043,-0.0009450645,0,1
6.03886e-05,-0.0009157307,0,1
0.0002495189,-0.0008650042,0,1
0.0004551798,-0.0008137916,0,1
0.0006436619,-0.000782351,0,1
0.0007768797,-0.0007860785,0,1
0.0008326302,-0.0008201121,0,1
0.0008070238,-0.0008588458,0,1
0.0007174017,-0.0008697041,0,1
0.0006010387,-0.0008312946,0,1
0.0005046097,-0.0007374589,0,1
0.0004662003,-0.000586252,0,1
0.000495372,-0.0003770257,0,1
0.0005657084,-9.875954e-05,0,1
0.0006417171,0.0002628082,0,1
0.0006880678,0.0006963331,0,1
0.0006843403,0.001134072,0,1
0.0006358828,0.001469224,0,1
0.0005644119,0.001605359,0,1
0.00050542,0.001504392,0,1
0.0005036374,0.001206515,0,1
0.0005924492,0.000804917,0,1
0.0007640765,0.0004023465,0,1
0.0009655239,7.30297e-05,0,1
0.001132289,-0.0001609926,0,1
0.001225315,-0.0003178718,0,1
0.001239415,-0.0004288866,0,1
0.001190471,-0.0005108916,0,1
0.001098418,-0.0005595111,0,1
0.0009783271,-0.0005645352,0,1
0.0008348991,-0.0005236948,0,1
0.0006726716,-0.000452386,0,1
0.0005086614,-0.0003723258,0,1
0.0003587509,-0.0003060411,0,1
0.0002261814,-0.0002598524,0,1
0.0001039842,-0.0002269532,0,1
-1.20546e-05,-0.0001875713,0,1
-0.0001216107,-0.0001331174,0,1
-0.000213988,-6.861539e-05,0,1
-0.0002856209,-1.092015e-05,0,1
-0.0003403989,2.619281e-05,0,1
-0.0003912874,4.013043e-05,0,1
-0.0004450931,3.413401e-05,0,1
-0.0005034366,1.403791e-05,0,1
-0.000561456,-1.140634e-05,0,1
-0.0006150996,-3.63644e-05,0,1
-0.0006630709,-4.689865e-05,0,1
-0.000698077,-2.971972e-05,0,1
-0.000708125,1.679302e-05,0,1
-0.0006847876,8.275361e-05,0,1
-0.0006319543,0.0001438522,0,1
-0.0005621043,0.0001718896,0,1
-0.0004922541,0.0001566554,0,1
-0.000437476,0.0001104668,0,1
-0.0004006872,5.098881e-05,0,1
-0.0003783222,-3.303076e-06,0,1
-0.0003687603,-4.511593e-05,0,1
-0.0003695707,-7.072225e-05,0,1
-0.0003775118,-8.158062e-05,0,1
-0.0003943667,-8.093236e-05,0,1
-0.0004224039,-7.850138e-05,0,1
-0.0004638926,-8.514606e-05,0,1
-0.0005175362,-0.0001055663,0,1
-0.0005724764,-0.0001329553,0,1
-0.0006123445,-0.0001579134,0,1
-0.0006217443,-0.000171851,0,1
-0.0005954896,-0.0001687718,0,1
-0.0005322842,-0.0001465688,0,1
-0.0004358554,-0.0001092938,0,1
-0.0003194925,-5.775702e-05,0,1
-0.0002049123,1.387585e-05,0,1
-0.0001203142,0.0001164632,0,1
-8.498399e-05,0.0002514636,0,1
-0.0001045939,0.0003900295,0,1
-0.0001639098,0.000477869,0,1
-0.000231329,0.0004736553,0,1
-0.0002825416,0.0003726885,0,1
-0.0003126857,0.0002085163,0,1
-0.0003262992,2.992031e-05,0,1
-0.0003277578,-0.0001212866,0,1
-0.0003102548,-0.0002267911,0,1
-0.0002645523,-0.0002840002,0,1
-0.0001937298,-0.000293562,0,1
-0.0001112386,-0.0002551526,0,1
-3.490581e-05,-0.0001666649,0,1
1.857574e-05,-3.231277e-05,0,1
4.936815e-05,0.0001315353,0,1
6.136099e-05,0.0002999212,0,1
6.184718e-05,0.000448211,0,1
5.747142e-05,0.0005527431,0,1
4.758544e-05,0.0005963388,0,1
2.992031e-05,0.0005734875,0,1
6.582909e-06,0.0004898618,0,1
-1.173047e-05,0.0003723644,0,1
-9.623623e-06,0.0002571359,0,1
2.133085e-05,0.0001757791,0,1
7.67572e-05,0.0001422316,0,1
0.0001355869,0.0001551968,0,1
0.0001683241,0.0001992786,0,1
0.0001542244,0.0002553532,0,1
9.717743e-05,0.0003026763,0,1
1.776542e-05,0.0003294171,0,1
-5.856735e-05,0.0003357376,0,1
-0.0001130213,0.0003297412,0,1
-0.0001327933,0.0003106175,0,1
-0.0001180453,0.0002683184,0,1
-7.671866e-05,0.0001939304,0,1
-2.518189e-05,9.361199e-05,0,1
1.744129e-05,-1.67545e-05,0,1
4.207521e-05,-0.0001175591,0,1
4.969229e-05,-0.0001911368,0,1
5.633696e-05,-0.000226467,0,1
8.032264e-05,-0.0002198223,0,1
0.0001286181,-0.0001828714,0,1
0.0001914995,-0.0001352242,0,1
0.0002579462,-9.535618e-05,0,1
0.000324393,-6.861539e-05,0,1
0.0003880847,-4.819517e-05,0,1
0.000443349,-1.99958e-05,0,1
0.0004799758,2.133085e-05,0,1
0.0004952099,7.67572e-05,0,1
0.0004939134,0.0001401247,0,1
0.0004848378,0.0002062474,0,1
0.0004689553,0.0002644289,0,1
0.0004405939,0.0003007315,0,1
0.0003874365,0.0003052694,0,1
0.0003038107,0.0002733424,0,1
0.0001945787,0.0002098128,0,1
7.886404e-05,0.0001250527,0,1
-2.275091e-05,3.575467e-05,0,1
-9.568031e-05,-4.122636e-05,0,1
-0.0001368449,-9.940781e-05,0,1
-0.0001368449,-0.0001379794,0,1
-8.660465e-05,-0.0001621271,0,1
1.744129e-05,-0.0001757406,0,1
0.0001688103,-0.000184168,0,1
0.0003477304,-0.0001890299,0,1
0.0005245438,-0.0002008607,0,1
0.0006716992,-0.0002355427,0,1
0.0007750969,-0.0003016653,0,1
0.0008311716,-0.0003924218,0,1
0.0008480264,-0.0004865818,0,1
0.0008400852,-0.0005543251,0,1
0.0008207994,-0.0005698834,0,1
0.0007887104,-0.000526774,0,1
0.0007340944,-0.0004347209,0,1
0.0006533858,-0.0003151167,0,1
0.0005493398,-0.0001838438,0,1
0.0004300596,-5.629844e-05,0,1
0.000314345,4.77475e-05,0,1
0.0002209954,0.0001081979,0,1
0.000162976,0.0001279698,0,1
0.000140773,0.0001326697,0,1
0.0001385041,0.0001566554,0,1
0.0001365593,0.0002161334,0,1
0.0001169494,0.0002913317,0,1
6.687121e-05,0.0003428685,0,1
-2.275091e-05,0.0003349273,0,1
-0.0001491618,0.0002462775,0,1
-0.0002904828,8.291568e-05,0,1
-0.0004091146,-0.0001162626,0,1
-0.0004760476,-0.0003044204,0,1
-0.0004841508,-0.000449955,0,1
-0.0004491447,-0.000541846,0,1
-0.0003998769,-0.0005843072,0,1
-0.0003585502,-0.0005935449,0,1
-0.0003348887,-0.0005878726,0,1
-0.0003293785,-0.0005742591,0,1
-0.0003345645,-0.0005551354,0,1
-0.0003361852,-0.0005339049,0,1
-0.00032322,-0.0005066779,0,1
-0.0003016653,-0.0004708614,0,1
-0.0002783279,-0.0004337485,0,1
-0.0002514251,-0.0004049009,0,1
-0.0002173914,-0.0003872358,0,1
-0.0001783336,-0.0003775118,0,1
-0.0001433275,-0.0003651949,0,1
-0.0001177212,-0.0003327818,0,1
-0.0001024871,-0.0002723315,0,1
-9.827335e-05,-0.0001888679,0,1
-0.0001081593,-9.211487e-05,0,1
-0.0001352242,1.22552e-05,0,1
-0.000176875,0.0001200286,0,1
-0.000221443,0.0002263435,0,1
-0.0002549905,0.0003261758,0,1
-0.0002692523,0.000420984,0,1
-0.0002663351,0.0005094717,0,1
-0.0002577456,0.0005874252,0,1
-0.0002566112,0.0006373413,0,1
-0.0002689281,0.0006481997,0,1
-0.000288538,0.0006212969,0,1
-0.0003062031,0.000572029,0,1
-0.0003165753,0.000514982,0,1
-0.0003225718,0.0004592314,0,1
-0.0003309991,0.0004044533,0,1
-0.0003386162,0.000344165,0,1
-0.0003314853,0.000274801,0,1
-0.0003019894,0.0002038164,0,1
-0.0002559629,0.0001404489,0,1
-0.0002193361,8.599492e-05,0,1
-0.0002232257,3.640293e-05,0,1
-0.0002749245,-8.651231e-06,0,1
-0.0003538503,-3.830919e-05,0,1
-0.0004295348,-4.398147e-05,0,1
-0.0004786406,-2.09682e-05,0,1
-0.0004907955,2.538249e-05,0,1
-0.0004698891,9.280167e-05,0,1
-0.0004232143,0.0001782101,0,1
-0.0003583881,0.0002756114,0,1
-0.0002904828,0.0003655576,0,1
-0.0002277635,0.0004208219,0,1
-0.0001712027,0.0004187151,0,1
-0.0001105903,0.000356644,0,1
-3.522994e-05,0.0002603772,0,1
5.179914e-05,0.0001671896,0,1
0.0001338042,0.0001070634,0,1
0.0001971717,9.588091e-05,0,1
0.0002419018,0.0001291043,0,1
0.0002712356,0.0001965235,0,1
0.0002944109,0.0003021901,0,1
0.0003081865,0.0004597176,0,1
0.0003057555,0.0006614891,0,1
0.000294573,0.0008705535,0,1
0.0002872801,0.001032943,0,1
0.000289549,0.001098094,0,1
0.0002971661,0.001039102,0,1
0.0002960316,0.0008660157,0,1
0.0002778803,0.0006237278,0,1
0.000242388,0.000373823,0,1
0.0001991165,0.0001652449,0,1
0.0001576278,2.035846e-05,0,1
0.0001297526,-6.553616e-05,0,1
0.000121001,-0.0001138316,0,1
0.0001260251,-0.0001548341,0,1
0.0001370455,-0.0002068571,0,1
0.0001462832,-0.0002692523,0,1
0.0001529279,-0.000328244,0,1
0.0001573037,-0.0003690845,0,1
0.0001553589,-0.0003843186,0,1
0.0001404489,-0.0003789705,0,1
0.000108522,-0.0003632501,0,1
6.622294e-05,-0.0003494746,0,1
3.105477e-05,-0.000343154,0,1
2.408596e-05,-0.0003360231,0,1
5.212327e-05,-0.0003204649,0,1
9.620504e-05,-0.0002958309,0,1
0.0001205148,-0.0002676316,0,1
9.458438e-05,-0.0002452666,0,1
1.727922e-05,-0.0002329496,0,1
-8.012204e-05,-0.0002253326,0,1
-0.0001579134,-0.0002183637,0,1
-0.0001870851,-0.0002099363,0,1
-0.0001583996,-0.0002008607,0,1
-8.255302e-05,-0.000191785,0,1
1.97102e-05,-0.0001830335,0,1
0.0001304008,-0.000169258,0,1
0.0002370398,-0.0001481895,0,1
0.0003229345,-0.0001203142,0,1
0.0003666921,-9.114248e-05,0,1
0.0003550234,-7.137051e-05,0,1
0.0002910076,-6.764301e-05,0,1
0.0001913374,-7.347736e-05,0,1
7.886404e-05,-7.688073e-05,0,1
-2.210265e-05,-7.428769e-05,0,1
-8.984595e-05,-7.120844e-05,0,1
-0.0001120489,-7.33153e-05,0,1
-8.903562e-05,-8.044617e-05,0,1
-2.291298e-05,-8.984595e-05,0,1
7.594687e-05,-9.373552e-05,0,1
0.0001835583,-8.336335e-05,0,1
0.0002615117,-5.791909e-05,0,1
0.0002744769,-2.129233e-05,0,1
0.0002156472,1.889987e-05,0,1
0.0001075496,5.325772e-05,0,1
-1.3027e-05,7.52986e-05,0,1
-0.0001151281,7.90261e-05,0,1
-0.000181737,5.536457e-05,0,1
-0.0002079916,-2.654814e-06,0,1
-0.0001974573,-9.66527e-05,0,1
-0.0001572651,-0.0002167431,0,1
-0.0001013526,-0.0003418575,0,1
-3.895745e-05,-0.0004506033,0,1
2.76514e-05,-0.0005233706,0,1
0.0001004187,-0.0005533527,0,1
0.0001825859,-0.0005411978,0,1
0.0002691288,-0.0004930644,0,1
0.0003553475,-0.0004228902,0,1
0.000435732,-0.0003541745,0,1
0.0005059062,-0.0003045825,0,1
0.0005582534,-0.0002789762,0,1
0.0005836976,-0.0002723315,0,1
0.0005747841,-0.0002729798,0,1
0.0005315126,-0.0002664971,0,1
0.0004640934,-0.0002442942,0,1
0.0003785229,-0.0002071812,0,1
0.0002806354,-0.0001608306,0,1
0.0001764274,-0.0001115627,0,1
7.708133e-05,-6.667062e-05,0,1
-9.137427e-06,-2.858527e-05,0,1
-7.817725e-05,4.244267e-07,0,1
-0.00012469,2.084466e-05,0,1
-0.0001452723,3.073064e-05,0,1
-0.0001410586,3.040651e-05,0,1
-0.0001188556,2.651694e-05,0,1
-8.82253e-05,2.927205e-05,0,1
-5.500191e-05,4.158902e-05,0,1
-1.918548e-05,6.03886e-05,0,1
1.97102e-05,7.90261e-05,0,1
5.098881e-05,9.280167e-05,0,1
6.346784e-05,9.782569e-05,0,1
4.483033e-05,8.891209e-05,0,1
-7.840905e-06,7.076078e-05,0,1
-8.417367e-05,4.709924e-05,0,1
-0.00016942,1.889987e-05,0,1
-0.0002541802,-9.623623e-06,0,1
-0.0003361852,-3.441962e-05,0,1
-0.0004217557,-4.997789e-05,0,1
-0.0005134846,-6.051213e-05,0,1
-0.000603755,-7.590833e-05,0,1
-0.0006765223,-0.000102325,0,1
-0.0007102319,-0.0001360346,0,1
-0.0006901358,-0.000164396,0,1
-0.0005975965,-0.000174444,0,1
-0.0004217557,-0.0001630995,0,1
-0.0001715269,-0.0001441378,0,1
0.0001143563,-0.0001276072,0,1
0.0003846814,-0.0001110765,0,1
0.0005927734,-8.498399e-05,0,1
0.0007060571,-4.187462e-05,0,1
0.0007123777,1.419998e-05,0,1
0.0006153004,6.735741e-05,0,1
0.0004367043,0.000111115,0,1
0.0002107852,0.0001522796,0,1
-1.99958e-05,0.0001934442,0,1
-0.0002243602,0.0002372019,0,1
-0.000380267,0.000284687,0,1
-0.0004792889,0.0003311998,0,1
-0.0005175362,0.0003769022,0,1
-0.0004967919,0.0004336251,0,1
-0.0004219178,0.0005153061,0,1
-0.0003049066,0.0006201624,0,1
-0.0001703924,0.0007305289,0,1
-4.916756e-05,0.0008224201,0,1
2.311357e-05,0.000874281,0,1
2.473423e-05,0.0008707156,0,1
-3.814712e-05,0.000814803,0,1
-0.0001374932,0.000728098,0,1
-0.0002295462,0.0006319932,0,1
-0.0002799486,0.0005402642,0,1
-0.0002754107,0.0004602039,0,1
-0.0002287359,0.0003976466,0,1
-0.0001686097,0.0003521062,0,1
-0.0001274451,0.000321638,0,1
-0.0001238797,0.0003039728,0,1
-0.0001572651,0.0002947351,0,1
-0.0002118811,0.0002903593,0,1
-0.0002677937,0.0002884145,0,1
-0.0003139823,0.0002869559,0,1
-0.0003478539,0.0002795009,0,1
-0.0003698948,0.0002608634,0,1
-0.0003833462,0.0002282883,0,1
-0.0003875599,0.0001786963,0,1
-0.0003794566,0.0001088461,0,1
-0.00035304,1.64689e-05,0,1
-0.0003039342,-9.956988e-05,0,1
-0.0002355427,-0.000236353,0,1
-0.0001566169,-0.0003767015,0,1
-8.012204e-05,-0.0004938748,0,1
-1.643037e-05,-0.0005635628,0,1
2.473423e-05,-0.000573935,0,1
4.077869e-05,-0.0005317981,0,1
4.369587e-05,-0.0004587066,0,1
4.499239e-05,-0.0003812394,0,1
5.341979e-05,-0.000328082,0,1
6.800567e-05,-0.0003121996,0,1
7.691926e-05,-0.000325813,0,1
7.011252e-05,-0.0003483401,0,1
4.45062e-05,-0.0003637363,0,1
1.322759e-05,-0.0003690845,0,1
-7.192643e-06,-0.0003669776,0,1
-5.247859e-06,-0.0003600088,0,1
1.371378e-05,-0.0003533641,0,1
3.543054e-05,-0.0003528779,0,1
4.888196e-05,-0.000360495,0,1
5.277153e-05,-0.0003666535,0,1
5.050261e-05,-0.0003551469,0,1
4.402e-05,-0.0003097686,0,1
3.510641e-05,-0.000221605,0,1
1.436204e-05,-9.616651e-05,0,1
-2.46957e-05,4.580272e-05,0,1
-8.125649e-05,0.0001746447,0,1
-0.0001442999,0.0002611876,0,1
-0.0002047502,0.0002882525,0,1
-0.0002481838,0.0002584324,0,1
-0.0002608248,0.0001798307,0,1
-0.0002412149,6.362991e-05,0,1
-0.0001925954,-7.282909e-05,0,1
-0.0001217728,-0.0002031296,0,1
-3.766092e-05,-0.0003016653,0,1
4.661304e-05,-0.0003535262,0,1
0.0001239182,-0.0003617915,0,1
0.0001923098,-0.0003363473,0,1
0.0002495189,-0.000286107,0,1
0.0002842008,-0.0002211189,0,1
0.0002892249,-0.0001583996,0,1
0.0002650771,-0.0001173971,0,1
0.0002265056,-0.0001131834,0,1
0.0001905271,-0.0001493239,0,1
0.0001772377,-0.0002154466,0,1
0.0001999268,-0.0002946965,0,1
0.0002594049,-0.000367788,0,1
0.0003440029,-0.0004237005,0,1
0.0004381629,-0.0004583824,0,1
0.0005238955,-0.0004724821,0,1
0.0005864528,-0.0004681064,0,1
0.0006169211,-0.0004480103,0,1
0.0006104385,-0.0004105732,0,1
0.0005717048,-0.000350609,0,1
0.0005117406,-0.0002619593,0,1
0.0004477248,-0.0001457585,0,1
0.0003982949,-1.756482e-05,0,1
0.0003728506,9.831188e-05,0,1
0.0003770643,0.0001848548,0,1
0.0004029947,0.0002394708,0,1
0.0004297355,0.0002735045,0,1
0.0004355699,0.0003033245,0,1
0.0004104497,0.0003422202,0,1
0.0003548613,0.0004031568,0,1
0.0002723701,0.0004918066,0,1
0.0001715654,0.0006003904,0,1
6.654708e-05,0.0007060571,0,1
-2.583016e-05,0.0007793107,0,1
-8.790117e-05,0.0008007033,0,1
-0.0001083214,0.0007697488,0,1
-8.579432e-05,0.0007049226,0,1
-3.360929e-05,0.0006256726,0,1
2.489629e-05,0.0005444778,0,1
6.281957e-05,0.0004624728,0,1
6.152305e-05,0.000378847,0,1
1.614476e-05,0.0002963557,0,1
-6.261898e-05,0.0002149989,0,1
-0.0001483515,0.0001313732,0,1
-0.0002175534,4.191315e-05,0,1
-0.000258718,-5.176061e-05,0,1
-0.000268604,-0.0001454344,0,1
-0.000243808,-0.0002282497,0,1
-0.0001875713,-0.0002951827,0,1
-0.000114804,-0.0003407231,0,1
-4.576419e-05,-0.0003569296,0,1
-3.465141e-06,-0.0003392644,0,1
4.244267e-07,-0.0002812451,0,1
-3.766092e-05,-0.000176713,0,1
-0.0001125351,-2.696461e-05,0,1
-0.0002177155,0.0001466074,0,1
-0.0003412093,0.0003153174,0,1
-0.0004616237,0.0004546936,0,1
-0.0005530285,0.0005483674,0,1
-0.0005899795,0.0005835356,0,1
-0.0005608077,0.0005537156,0,1
-0.0004775062,0.0004613383,0,1
-0.0003728119,0.0003237448,0,1
-0.0002788141,0.0001644345,0,1
-0.0002126914,4.962256e-06,0,1
-0.0001723372,-0.0001425172,0,1
-0.0001457585,-0.0002739521,0,1
-0.0001216107,-0.0003917736,0,1
-9.29252e-05,-0.0004954954,0,1
-5.791909e-05,-0.0005783107,0,1
-1.20546e-05,-0.0006313061,0,1
4.045456e-05,-0.0006591813,0,1
9.377406e-05,-0.0006729569,0,1
0.0001402868,-0.0006843015,0,1
0.0001652449,-0.0006933771,0,1
0.0001615174,-0.0006857601,0,1
0.0001344524,-0.0006360059,0,1
0.0001004187,-0.0005275843,0,1
7.140904e-05,-0.0003635742,0,1
4.888196e-05,-0.0001712027,0,1
3.332369e-05,1.063454e-05,0,1
2.894792e-05,0.0001423936,0,1
4.288554e-05,0.0002067336,0,1
7.562274e-05,0.0002245608,0,1
0.0001150046,0.0002354192,0,1
0.0001513072,0.0002649151,0,1
0.0001817755,0.0003086727,0,1
0.0002070577,0.0003462718,0,1
0.0002255332,0.0003623164,0,1
0.0002321778,0.0003582647,0,1
0.0002148369,0.000349027,0,1
0.0001626518,0.0003501615,0,1
7.57848e-05,0.0003730126,0,1
-3.587821e-05,0.0004240633,0,1
-0.0001613168,0.0004974789,0,1
-0.0002899966,0.0005799701,0,1
-0.0004099249,0.0006478756,0,1
-0.0005081365,0.0006789921,0,1
-0.000574097,0.000663596,0,1
-0.0006066722,0.0006127074,0,1
-0.0006189891,0.0005420469,0,1
-0.0006249856,0.0004674968,0,1
-0.0006266062,0.0003950536,0,1
-0.0006172064,0.0003240689,0,1
-0.0005849554,0.0002537325,0,1
-0.0005232086,0.0001880961,0,1
-0.0004335865,0.0001312112,0,1
-0.0003284061,8.42122e-05,0,1
-0.0002206326,4.904402e-05,0,1
-0.000117235,2.829966e-05,0,1
-2.031993e-05,2.278944e-05,0,1
6.719535e-05,2.975825e-05,0,1
0.0001451488,4.709924e-05,0,1
0.0002148369,7.173317e-05,0,1
0.0002773941,9.863601e-05,0,1
0.0003381686,0.0001167873,0,1
0.0004141773,0.0001127357,0,1
0.0005342677,8.194328e-05,0,1
0.0007174017,2.927205e-05,0,1
0.0009551517,-3.458168e-05,0,1
0.001215105,-9.568031e-05,0,1
0.00146112,-0.0001415448,0,1
0.001663541,-0.0001652063,0,1
0.001793193,-0.0001708786,0,1
0.001817503,-0.0001674752,0,1
0.001708271,-0.0001601823,0,1
0.00146031,-0.0001546721,0,1
0.001101173,-0.0001603444,0,1
0.0006900126,-0.0001825473,0,1
0.0003004074,-0.000216419,0,1
6.90704e-06,-0.0002590421,0,1
-0.0001413827,-0.0003086341,0,1
-0.0001467309,-0.0003617915,0,1
-4.949169e-05,-0.000410249,0,1
8.550872e-05,-0.0004454172,0,1
0.0001882582,-0.0004674581,0,1
0.0002141886,-0.0004843129,0,1
0.0001535762,-0.0004943609,0,1
2.619281e-05,-0.0004888507,0,1
-0.000134576,-0.0004655133,0,1
-0.0002899966,-0.0004301831,0,1
-0.0004011734,-0.0003909633,0,1
-0.0004465517,-0.0003527159,0,1
-0.0004261314,-0.0003141443,0,1
-0.0003596847,-0.0002707109,0,1
-0.0002809209,-0.0002156086,0,1
-0.0002204706,-0.0001509446,0,1
-0.000199078,-8.530812e-05,0,1
-0.0002227395,-3.117831e-05,0,1
-0.0002827037,-3.303076e-06,0,1
-0.0003567675,-8.813297e-06,0,1
-0.0004222419,-4.122636e-05,0,1
-0.0004659995,-7.979791e-05,0,1
-0.0004882024,-0.0001021629,0,1
-0.0004922541,-9.503204e-05,0,1
-0.0004906334,-6.132246e-05,0,1
-0.0004932265,-1.270286e-05,0,1
-0.0005115399,3.267542e-05,0,1
-0.0005458977,5.844381e-05,0,1
-0.0005950035,6.249545e-05,0,1
-0.0006554538,4.953022e-05,0,1
-0.0007214144,2.262738e-05,0,1
-0.0007802441,-1.20546e-05,0,1
-0.0008116848,-4.187462e-05,0,1
-0.0007992057,-4.770897e-05,0,1
-0.0007400519,-1.67545e-05,0,1
-0.0006442713,4.466826e-05,0,1
-0.0005301774,0.0001164632,0,1
-0.0004186764,0.000178048,0,1
-0.0003254889,0.0002154851,0,1
-0.0002606628,0.0002268297,0,1
-0.0002297083,0.000207706,0,1
-0.0002243602,0.0001479039,0,1
-0.0002271153,4.855783e-05,0,1
-0.000221605,-7.461182e-05,0,1
-0.0001974573,-0.0001987538,0,1
-0.0001548341,-0.0003027998,0,1
-0.0001039456,-0.0003744326,0,1
-6.083626e-05,-0.0004141386,0,1
-4.138842e-05,-0.0004237005,0,1
-4.85193e-05,-0.0004105732,0,1
-6.974985e-05,-0.0003835083,0,1
-8.530812e-05,-0.0003543365,0,1
-8.44978e-05,-0.0003264613,0,1
-7.007399e-05,-0.0002865932,0,1
-5.467778e-05,-0.0002130156,0,1
-4.284701e-05,-9.162867e-05,0,1
-3.425755e-05,6.606088e-05,0,1
-3.036798e-05,0.0002328261,0,1
-3.490581e-05,0.0003858158,0,1
-4.997789e-05,0.0005166026,0,1
-7.218083e-05,0.0006391241,0,1
-9.843541e-05,0.0007707212,0,1
-0.000127283,0.0009070183,0,1
-0.0001590478,0.001003933,0,1
-0.0001956746,0.001006851,0,1
-0.0002319772,0.0008900014,0,1
-0.0002540181,0.0006780197,0,1
-0.0002478596,0.000425846,0,1
-0.0002099363,0.0001913374,0,1
-0.0001507825,7.069105e-06,0,1
-9.373552e-05,-0.0001161005,0,1
-6.359137e-05,-0.0001830335,0,1
-7.590833e-05,-0.0002039399,0,1
-0.0001282554,-0.0001968091,0,1
-0.0002008607,-0.0001822232,0,1
-0.000268766,-0.000176875,0,1
-0.0003206269,-0.0001807646,0,1
-0.000348016,-0.0001828714,0,1
-0.0003344025,-0.0001656925,0,1
-0.0002681178,-0.0001206384,0,1
-0.0001527273,-5.500191e-05,0,1
-8.165035e-06,1.54965e-05,0,1
0.0001269974,7.173317e-05,0,1
0.0002253711,9.701536e-05,0,1
0.0002897111,9.280167e-05,0,1
0.0003362238,7.513654e-05,0,1
0.0003827366,6.265751e-05,0,1
0.0004425387,6.46023e-05,0,1
0.0005191956,7.708133e-05,0,1
0.0006078454,8.680524e-05,0,1
0.0006973055,8.875003e-05,0,1
0.000777528,7.853991e-05,0,1
0.0008373301,5.633696e-05,0,1
0.0008708776,2.81376e-05,0,1
0.0008781706,3.017472e-06,0,1
0.0008653674,-1.821308e-05,0,1
0.0008418679,-4.333321e-05,0,1
0.0008146409,-7.866345e-05,0,1
0.0007870898,-0.0001204763,0,1
0.0007684522,-0.0001606685,0,1
0.0007647247,-0.0001901644,0,1
0.0007723419,-0.0002073433,0,1
0.0007739625,-0.0002167431,0,1
0.000753056,-0.0002293842,0,1
0.0006982779,-0.0002577456,0,1
0.0006130316,-0.0003068514,0,1
0.0005172509,-0.000372974,0,1
0.0004371906,-0.000444931,0,1
0.0003947294,-0.0005045711,0,1
0.0003960259,-0.0005373082,0,1
0.00043087,-0.0005481666,0,1
0.0004777069,-0.0005543251,0,1
0.0005104441,-0.0005705316,0,1
0.0005029891,-0.0005995413,0,1
0.0004347596,-0.0006327647,0,1
0.0002991108,-0.0006586951,0,1
0.0001185701,-0.0006685811,0,1
-6.715681e-05,-0.0006606399,0,1
-0.0002151224,-0.0006390853,0,1
-0.0003024756,-0.0006039171,0,1
-0.0003314853,-0.0005505976,0,1
-0.00032322,-0.0004739407,0,1
-0.0002997205,-0.0003711913,0,1
-0.0002804347,-0.0002444563,0,1
-0.0002793003,-9.924574e-05,0,1
-0.0003016653,5.163707e-05,0,1
-0.0003399127,0.0002033302,0,1
-0.0003784843,0.0003521062,0,1
-0.0004078181,0.0004884033,0,1
-0.0004215936,0.0005987698,0,1
-0.0004136524,0.0006718613,0,1
-0.0003891806,0.0007062191,0,1
-0.0003561192,0.0007088122,0,1
-0.0003217614,0.0006947125,0,1
-0.0002883759,0.0006798024,0,1
-0.0002600145,0.0006788301,0,1
-0.0002455907,0.0007063812,0,1
-0.000251263,0.0007750969,0,1
-0.0002750866,0.000886598,0,1
-0.0003091203,0.001019978,0,1
-0.0003470436,0.001136503,0,1
-0.0003857772,0.001200195,0,1
-0.0004220798,0.001193388,0,1
-0.0004559515,0.001120134,0,1
-0.000482044,0.000997775,0,1
-0.0004958195,0.0008522401,0,1
-0.0004917679,0.0007075156,0,1
-0.0004677822,0.0005809425,0,1
-0.0004271038,0.0004781931,0,1
-0.0003736223,0.0004005638,0,1
-0.0003091203,0.0003431926,0,1
-0.0002431597,0.0002952213,0,1
-0.0001861127,0.0002414156,0,1
-0.0001402483,0.0001738343,0,1
-0.000104918,9.555677e-05,0,1
-7.428769e-05,1.695509e-05,0,1
-4.90055e-05,-5.451572e-05,0,1
-4.187462e-05,-0.0001169109,0,1
-6.537409e-05,-0.0001699062,0,1
-0.000119666,-0.0002122053,0,1
-0.0001904885,-0.0002476975,0,1
-0.0002519113,-0.0002823795,0,1
-0.0002830278,-0.0003175477,0,1
-0.0002758969,-0.0003465574,0,1
-0.0002348944,-0.000365357,0,1
-0.0001677994,-0.0003720016,0,1
-8.109443e-05,-0.0003687603,0,1
1.209313e-05,-0.0003614674,0,1
