EMG1,EMG2,class,user
-0.0002476975,-2.485776e-05,5,1
-0.0001882196,-2.534396e-05,5,1
-0.0001454344,-2.777494e-05,5,1
-0.000127283,-3.879538e-05,5,1
-0.0001303623,-6.375344e-05,5,1
-0.0001457585,-9.730096e-05,5,1
-0.0001608306,-0.0001326312,5,1
-0.0001627754,-0.0001614788,5,1
-0.0001392759,-0.0001815749,5,1
-8.368748e-05,-0.0001914609,5,1
-2.978945e-06,-0.0001929195,5,1
8.550872e-05,-0.0001900023,5,1
0.0001675138,-0.0001880575,5,1
0.000237526,-0.0001880575,5,1
0.000287118,-0.0001887058,5,1
0.0003161277,-0.0001901644,5,1
0.000331848,-0.0001887058,5,1
0.0003431926,-0.000181737,5,1
0.0003537269,-0.0001712027,5,1
0.0003593992,-0.0001637477,5,1
0.0003628026,-0.0001640719,5,1
0.0003715541,-0.0001671511,5,1
0.0003950536,-0.0001674752,5,1
0.0004305459,-0.0001618029,5,1
0.000463121,-0.000151917,5,1
0.0004710622,-0.0001418689,5,1
0.0004268184,-0.000137169,5,1
0.0003122381,-0.0001394379,5,1
0.0001334801,-0.0001423551,5,1
-7.979791e-05,-0.0001417068,5,1
-0.0002775176,-0.0001360346,5,1
-0.000402632,-0.0001314967,5,1
-0.0004089525,-0.0001310105,5,1
-0.0002943724,-0.0001340898,5,1
-9.19528e-05,-0.0001350622,5,1
0.000148228,-0.0001303623,5,1
0.0003746333,-0.0001165867,5,1
0.0005490156,-9.486997e-05,5,1
0.0006370172,-6.213279e-05,5,1
0.0006206486,-1.869928e-05,5,1
0.0005068787,2.76514e-05,5,1
0.0003274723,6.735741e-05,5,1
0.0001278078,9.118101e-05,5,1
-5.127441e-05,9.490851e-05,5,1
-0.0001770371,8.194328e-05,5,1
-0.0002391081,6.427817e-05,5,1
-0.0002417012,5.325772e-05,5,1
-0.00019924,5.52025e-05,5,1
-0.0001264727,7.221937e-05,5,1
-3.555408e-05,0.0001038221,5,1
5.115087e-05,0.0001446626,5,1
0.0001000946,0.0001845306,5,1
8.194328e-05,0.0002106232,5,1
-8.720959e-07,0.0002167816,5,1
-0.0001169109,0.0002111094,5,1
-0.0002229016,0.000210137,5,1
-0.0002833519,0.000225047,5,1
-0.0002838381,0.0002509774,5,1
-0.0002261429,0.0002767458,5,1
-0.0001314967,0.0002859836,5,1
-4.349527e-05,0.0002707494,5,1
-7.840905e-06,0.0002289366,5,1
-3.944364e-05,0.0001725378,5,1
-0.000117235,0.0001188942,5,1
-0.0002073433,8.04847e-05,5,1
-0.000285945,5.893001e-05,5,1
-0.0003447747,4.807163e-05,5,1
-0.0003843186,4.110282e-05,5,1
-0.000407656,3.380988e-05,5,1
-0.000419973,2.76514e-05,5,1
-0.0004198109,2.230325e-05,5,1
-0.0004070078,1.630683e-05,5,1
-0.0003933943,8.689758e-06,5,1
-0.0003980942,-4.923729e-06,5,1
-0.0004303451,-2.291298e-05,5,1
-0.0004841508,-3.814712e-05,5,1
-0.0005376324,-4.544006e-05,5,1
-0.0005729626,-4.576419e-05,5,1
-0.0005736109,-4.349527e-05,5,1
-0.0005400634,-4.317115e-05,5,1
-0.000489499,-4.754691e-05,5,1
-0.0004470379,-5.354332e-05,5,1
-0.0004343968,-5.872941e-05,5,1
-0.0004556273,-5.824322e-05,5,1
-0.0004917679,-4.90055e-05,5,1
-0.0005102433,-3.749886e-05,5,1
-0.0004792889,-3.198864e-05,5,1
-0.0003872358,-3.814712e-05,5,1
-0.0002475355,-5.662256e-05,5,1
-9.713889e-05,-8.093236e-05,5,1
3.283749e-05,-0.0001036215,5,1
0.0001420695,-0.000117235,5,1
0.0002503292,-0.000119828,5,1
0.0003726885,-0.0001175591,5,1
0.0005065545,-0.0001175591,5,1
0.0006344241,-0.0001238797,5,1
0.0007373357,-0.0001298761,5,1
0.0008011895,-0.000132145,5,1
0.0008209614,-0.0001292278,5,1
0.0008092928,-0.0001204763,5,1
0.0007909794,-0.0001091317,5,1
0.0007879001,-9.746302e-05,5,1
0.0008062135,-8.692878e-05,5,1
0.0008289027,-7.914964e-05,5,1
0.0008350612,-7.623246e-05,5,1
0.0008186926,-7.785312e-05,5,1
0.0008041067,-7.947377e-05,5,1
0.000822258,-7.882551e-05,5,1
0.0008849773,-7.428769e-05,5,1
0.0009616343,-6.618442e-05,5,1
0.001010416,-5.176061e-05,5,1
0.001006202,-3.474375e-05,5,1
0.0009528828,-1.821308e-05,5,1
0.0008647192,-3.951337e-06,5,1
0.0007558112,1.031041e-05,5,1
0.0006366931,2.473423e-05,5,1
0.000505258,3.996837e-05,5,1
0.0003493511,5.390598e-05,5,1
0.0001616794,6.751948e-05,5,1
-3.847125e-05,7.448828e-05,5,1
-0.0002107467,6.914012e-05,5,1
-0.0003251648,5.277153e-05,5,1
-0.0003814014,3.688912e-05,5,1
-0.0004013355,3.462021e-05,5,1
-0.000415111,5.001642e-05,5,1
-0.0004544929,7.416415e-05,5,1
-0.0005402254,9.63671e-05,5,1
-0.0006684191,0.0001101427,5,1
-0.0008037436,0.0001145184,5,1
-0.0009056826,0.0001106288,5,1
-0.0009624055,0.0001023635,5,1
-0.0009821774,9.620504e-05,5,1
-0.0009724535,9.409818e-05,5,1
-0.0009348544,9.377406e-05,5,1
-0.0008745661,9.296373e-05,5,1
-0.0007977472,9.182927e-05,5,1
-0.0007168766,9.344993e-05,5,1
-0.0006551297,0.0001009049,5,1
-0.0006426507,0.000113384,5,1
-0.0006873807,0.0001305629,5,1
-0.0007606342,0.0001524417,5,1
-0.0008204363,0.0001798307,5,1
-0.0008465288,0.0002107852,5,1
-0.0008397221,0.0002376881,5,1
-0.0008110365,0.0002527602,5,1
-0.0007680892,0.0002495189,5,1
-0.0007078009,0.0002229401,5,1
-0.000618665,0.0001756171,5,1
-0.0004912817,0.0001203528,5,1
-0.0003224097,7.416415e-05,5,1
-0.0001250141,4.547859e-05,5,1
6.670914e-05,3.154097e-05,5,1
0.0002213195,2.068259e-05,5,1
0.0003266619,5.934648e-06,5,1
0.0003832228,-1.367526e-05,5,1
0.0004044533,-3.393342e-05,5,1
0.0004083429,-5.338126e-05,5,1
0.0004123946,-6.748094e-05,5,1
0.0004315182,-7.169464e-05,5,1
0.0004812723,-6.926366e-05,5,1
0.0005725152,-6.764301e-05,5,1
0.0007071915,-6.829127e-05,5,1
0.0008720121,-7.120844e-05,5,1
0.001030998,-7.509801e-05,5,1
0.001139906,-7.752899e-05,5,1
0.001172482,-7.914964e-05,5,1
0.001135044,-8.255302e-05,5,1
0.001055146,-8.757704e-05,5,1
0.0009562862,-9.600444e-05,5,1
0.000859533,-0.0001042698,5,1
0.0007802831,-0.0001102662,5,1
0.0007212912,-0.0001141558,5,1
0.000681261,-0.000119666,5,1
0.0006428516,-0.0001306864,5,1
0.000572191,-0.0001478653,5,1
0.0004459421,-0.0001658546,5,1
0.0002707494,-0.0001750923,5,1
8.486046e-05,-0.0001705545,5,1
-5.921561e-05,-0.0001564548,5,1
-0.0001316588,-0.0001392759,5,1
-0.0001368449,-0.0001279313,5,1
-0.0001104282,-0.0001235555,5,1
-9.600444e-05,-0.0001199901,5,1
-0.000112373,-0.0001102662,5,1
-0.000159534,-9.29252e-05,5,1
-0.0002269532,-6.926366e-05,5,1
-0.0003052308,-4.592625e-05,5,1
-0.0003718396,-2.453363e-05,5,1
-0.0003959873,-6.544382e-06,5,1
-0.0003509331,5.934648e-06,5,1
-0.0002368392,1.501031e-05,5,1
-8.482193e-05,2.651694e-05,5,1
5.747142e-05,4.580272e-05,5,1
0.0001660552,7.335383e-05,5,1
0.0002407673,0.0001046324,5,1
0.0002824181,0.0001318594,5,1
0.0002812837,0.0001519555,5,1
0.0002316917,0.0001636242,5,1
0.0001464453,0.0001686482,5,1
5.098881e-05,0.0001684862,5,1
-3.506788e-05,0.0001639484,5,1
-0.0001005423,0.0001524417,5,1
-0.0001349001,0.0001329939,5,1
-0.0001361966,0.0001101427,5,1
-0.0001230693,9.344993e-05,5,1
-0.0001208004,8.583286e-05,5,1
-0.0001430034,8.42122e-05,5,1
-0.0001840059,8.923623e-05,5,1
-0.0002300324,0.0001039842,5,1
-0.0002656868,0.0001291043,5,1
-0.0002827037,0.000160707,5,1
-0.0002836761,0.0001914995,5,1
-0.0002814071,0.00021273,5,1
-0.0002929138,0.0002187264,5,1
-0.0003288923,0.0002112714,5,1
-0.0003864254,0.0001957132,5,1
-0.0004556273,0.0001822617,5,1
-0.0005198052,0.0001746447,5,1
-0.0005679386,0.0001718896,5,1
-0.0006009999,0.0001694586,5,1
-0.0006248235,0.0001639484,5,1
-0.0006418404,0.0001504969,5,1
-0.0006392473,0.0001271595,5,1
-0.000603755,9.750156e-05,5,1
-0.0005330946,6.233338e-05,5,1
-0.0004407173,2.214118e-05,5,1
-0.0003499608,-2.501983e-05,5,1
-0.000278652,-7.995997e-05,5,1
-0.0002358668,-0.000142031,5,1
-0.0002207947,-0.0002047502,5,1
-0.0002258187,-0.0002619593,5,1
-0.0002455907,-0.0003063652,5,1
-0.0002731418,-0.0003324577,5,1
-0.0002972895,-0.0003399127,5,1
-0.0003076617,-0.000335537,5,1
-0.0003015032,-0.0003209511,5,1
-0.0002794623,-0.0002969654,5,1
-0.0002483458,-0.0002642282,5,1
-0.0002178775,-0.0002224154,5,1
-0.0001938919,-0.0001724993,5,1
-0.0001775233,-0.0001211246,5,1
-0.0001645581,-7.833932e-05,5,1
-0.0001459206,-5.013995e-05,5,1
-0.0001109144,-3.117831e-05,5,1
-5.305713e-05,-1.659243e-05,5,1
2.716521e-05,-2.006553e-06,5,1
0.0001154908,1.419998e-05,5,1
0.0001893926,2.748934e-05,5,1
0.0002315296,2.81376e-05,5,1
0.0002558394,9.500085e-06,5,1
0.0002974902,-2.226472e-05,5,1
0.0003767402,-5.500191e-05,5,1
0.0004765725,-7.509801e-05,5,1
0.0005511225,-7.574627e-05,5,1
0.0005608465,-6.229485e-05,5,1
0.000505258,-4.868137e-05,5,1
0.0004243874,-4.43056e-05,5,1
0.0003660439,-4.965376e-05,5,1
0.0003569682,-6.472583e-05,5,1
0.0003918123,-8.433573e-05,5,1
0.0004572867,-9.940781e-05,5,1
0.0005444778,-0.0001052422,5,1
0.0006386379,-0.0001037836,5,1
0.0007190223,-9.973194e-05,5,1
0.0007642386,-9.568031e-05,5,1
0.0007587284,-9.19528e-05,5,1
0.0006973055,-8.725291e-05,5,1
0.0005940699,-7.833932e-05,5,1
0.000477869,-6.472583e-05,5,1
0.0003845193,-4.38194e-05,5,1
0.0003346032,-1.853722e-05,5,1
0.0003164518,5.286387e-06,5,1
0.0002955454,2.603075e-05,5,1
0.0002448189,4.385793e-05,5,1
0.0001660552,6.362991e-05,5,1
8.032264e-05,8.178122e-05,5,1
6.744974e-06,9.26396e-05,5,1
-5.176061e-05,9.798775e-05,5,1
-0.000104756,0.0001022015,5,1
-0.0001590478,0.0001064152,5,1
-0.000201509,0.0001052807,5,1
-0.0002003745,0.0001012291,5,1
-0.000134576,9.831188e-05,5,1
-1.805102e-05,0.0001012291,5,1
0.0001051186,0.0001096565,5,1
0.0001955511,0.0001214872,5,1
0.0002378501,0.0001351007,5,1
0.0002431983,0.0001493625,5,1
0.0002261814,0.000162976,5,1
0.000190365,0.0001728619,5,1
0.0001289422,0.000180479,5,1
4.256141e-05,0.0001825859,5,1
-5.305713e-05,0.0001782101,5,1
-0.0001339277,0.0001697827,5,1
-0.0001906506,0.0001626518,5,1
-0.0002345703,0.0001615174,5,1
-0.0002843243,0.0001688103,5,1
-0.0003473677,0.0001782101,5,1
-0.0004083043,0.0001840444,5,1
-0.0004322899,0.0001858272,5,1
-0.0003909633,0.0001835583,5,1
-0.0002844864,0.0001812893,5,1
-0.0001399241,0.0001845306,5,1
3.503668e-06,0.0001961994,5,1
0.000121001,0.0002132162,5,1
0.0002107852,0.0002295848,5,1
0.0002864697,0.0002336365,5,1
0.0003629646,0.0002208333,5,1
0.0004425387,0.0001932822,5,1
0.0005081752,0.0001543865,5,1
0.0005415607,0.0001138702,5,1
0.0005352402,7.870197e-05,5,1
0.0004911583,5.293359e-05,5,1
0.0004128807,3.640293e-05,5,1
0.0003111037,2.586868e-05,5,1
0.0002065715,1.808955e-05,5,1
0.0001127357,9.66215e-06,5,1
2.424803e-05,-1.844488e-06,5,1
-6.748094e-05,-1.610624e-05,5,1
-0.0001528894,-3.571614e-05,5,1
-0.0002013469,-6.39155e-05,5,1
-0.0001940539,-9.778715e-05,5,1
-0.0001536997,-0.0001298761,5,1
-0.0001365208,-0.0001528894,5,1
-0.0001929195,-0.0001682856,5,1
-0.0003259751,-0.0001818991,5,1
-0.0004967919,-0.0001912988,5,1
-0.0006538332,-0.0001890299,5,1
-0.000755286,-0.000176875,5,1
-0.0007779752,-0.0001627754,5,1
-0.0007269246,-0.0001582375,5,1
-0.000628551,-0.0001689338,5,1
-0.0005219121,-0.0001888679,5,1
-0.0004470379,-0.0002092881,5,1
-0.0004230522,-0.0002243602,5,1
-0.0004506033,-0.0002303566,5,1
-0.0005164018,-0.0002241981,5,1
-0.0005975965,-0.0002104225,5,1
-0.0006697156,-0.0002018331,5,1
-0.0007191455,-0.0002045882,5,1
-0.0007533412,-0.0002097743,5,1
-0.0007747339,-0.0002024813,5,1
-0.0007721409,-0.0001802784,5,1
-0.0007301659,-0.0001491618,5,1
-0.0006389232,-0.0001186936,5,1
-0.0004828543,-9.940781e-05,5,1
-0.0002433218,-9.260107e-05,5,1
9.393612e-05,-0.0001016767,5,1
0.0005062304,-0.0001266348,5,1
0.0009143112,-0.0001609926,5,1
0.001205867,-0.0001929195,5,1
0.001291276,-0.0002094502,5,1
0.001145741,-0.0002011848,5,1
0.0008301992,-0.0001707166,5,1
0.0004585832,-0.0001310105,5,1
0.0001423936,-9.778715e-05,5,1
-5.581224e-05,-7.801519e-05,5,1
-0.0001332795,-7.104638e-05,5,1
-0.0001191798,-6.731888e-05,5,1
-5.046408e-05,-5.64605e-05,5,1
3.640293e-05,-3.247483e-05,5,1
0.0001090082,8.041497e-06,5,1
0.0001558451,6.346784e-05,5,1
0.0001757791,0.000130887,5,1
0.0001697827,0.0002091646,5,1
0.0001334801,0.0002940868,5,1
6.525056e-05,0.0003749574,5,1
-3.101625e-05,0.0004363802,5,1
-0.0001306864,0.0004650658,5,1
-0.000201671,0.0004593935,5,1
-0.0002203085,0.0004242253,5,1
-0.0001771992,0.0003715541,5,1
-7.380149e-05,0.0003059176,5,1
7.546067e-05,0.0002344468,5,1
0.0002315296,0.000168162,5,1
0.0003414099,0.0001167873,5,1
0.0003640991,8.761557e-05,5,1
0.0002918179,8.323981e-05,5,1
0.0001592484,9.571884e-05,5,1
1.1769e-05,0.000113546,5,1
-0.000122097,0.000128456,5,1
-0.0002371633,0.0001396385,5,1
-0.0003369955,0.0001483901,5,1
-0.0004113835,0.0001513072,5,1
-0.0004342347,0.0001479039,5,1
-0.0003843186,0.0001401247,5,1
-0.0002750866,0.0001321835,5,1
-0.0001421931,0.0001292664,5,1
-2.404744e-05,0.0001375317,5,1
5.163707e-05,0.0001564933,5,1
7.319176e-05,0.0001790204,5,1
4.985435e-05,0.0001949028,5,1
7.717366e-06,0.0001947408,5,1
-2.372331e-05,0.0001735102,5,1
-2.809907e-05,0.0001338042,5,1
-8.002969e-06,8.631905e-05,5,1
1.889987e-05,4.158902e-05,5,1
3.040651e-05,8.851824e-06,5,1
9.500085e-06,-9.623623e-06,5,1
-4.673658e-05,-1.67545e-05,5,1
-0.0001253383,-1.772689e-05,5,1
-0.0002044261,-2.42095e-05,5,1
-0.0002652006,-3.944364e-05,5,1
-0.0003005308,-6.0188e-05,5,1
-0.0003097686,-8.303922e-05,5,1
-0.0002864312,-0.0001045939,5,1
-0.0002194982,-0.0001243659,5,1
-0.0001071869,-0.0001428413,5,1
3.575467e-05,-0.0001605064,5,1
0.0001773998,-0.0001771992,5,1
0.0002843629,-0.0001948643,5,1
0.0003354135,-0.0002146363,5,1
0.0003282826,-0.0002379736,5,1
0.000274639,-0.0002614731,5,1
0.0001908512,-0.0002789762,5,1
9.442231e-05,-0.0002836761,5,1
8.041497e-06,-0.0002747625,5,1
-5.338126e-05,-0.0002541802,5,1
-8.498399e-05,-0.0002306807,5,1
-8.984595e-05,-0.0002131776,5,1
-7.153257e-05,-0.0002079916,5,1
-3.879538e-05,-0.0002207947,5,1
-1.221667e-05,-0.0002470493,5,1
-3.036798e-05,-0.0002765452,5,1
-0.0001323071,-0.0003011791,5,1
-0.0003136581,-0.0003168994,5,1
-0.0005201293,-0.0003154408,5,1
-0.0006797637,-0.0002930758,5,1
-0.0007395657,-0.0002519113,5,1
-0.0006742534,-0.0002013469,5,1
-0.0004925782,-0.0001517549,5,1
-0.0002293842,-0.0001115627,5,1
6.995045e-05,-8.174268e-05,5,1
0.0003584268,-5.629844e-05,5,1
0.0005958526,-3.539201e-05,5,1
0.0007598628,-2.339918e-05,5,1
0.0008470541,-2.145439e-05,5,1
0.0008729845,-2.356124e-05,5,1
0.000864557,-2.177852e-05,5,1
0.0008511057,-9.299493e-06,5,1
0.0008517539,1.808955e-05,5,1
0.0008765499,5.666109e-05,5,1
0.0009280868,9.393612e-05,5,1
0.0009961543,0.0001232699,5,1
0.001062439,0.000140773,5,1
0.001111059,0.0001498487,5,1
0.001130831,0.0001553589,5,1
0.001111707,0.000158114,5,1
0.001051094,0.0001633001,5,1
0.0009564483,0.0001707551,5,1
0.0008391128,0.000178048,5,1
0.0007159431,0.0001861513,5,1
0.0005961767,0.0002018716,5,1
0.0004767345,0.000230071,5,1
0.0003509718,0.0002679943,5,1
0.0002154851,0.0003055935,5,1
7.367795e-05,0.0003310377,5,1
-7.088431e-05,0.0003388169,5,1
-0.0002081536,0.0003305515,5,1
-0.0003262992,0.0003111037,5,1
-0.0004191627,0.0002879283,5,1
-0.0004826922,0.0002686426,5,1
-0.0005128364,0.0002595669,5,1
-0.0005091089,0.0002592428,5,1
-0.0004789647,0.0002668598,5,1
-0.0004407173,0.0002765838,5,1
-0.0004224039,0.0002809595,5,1
-0.000444931,0.0002692908,5,1
-0.0005092709,0.0002397949,5,1
-0.0005992171,0.0001911753,5,1
-0.0006872186,0.0001312112,5,1
-0.0007481552,6.978839e-05,5,1
-0.0007624169,1.501031e-05,5,1
-0.000727897,-2.42095e-05,5,1
-0.000650916,-4.446767e-05,5,1
-0.0005411978,-4.511593e-05,5,1
-0.0004128421,-3.344723e-05,5,1
-0.0002814071,-2.356124e-05,5,1
-0.0001540238,-2.809907e-05,5,1
-4.203669e-05,-5.062615e-05,5,1
3.98063e-05,-8.336335e-05,5,1
8.372601e-05,-0.000117235,5,1
9.669123e-05,-0.0001436516,5,1
8.307774e-05,-0.0001571031,5,1
3.705119e-05,-0.0001554824,5,1
-4.219875e-05,-0.0001452723,5,1
-0.0001366828,-0.0001336036,5,1
-0.0002245222,-0.0001277692,5,1
-0.0002888622,-0.0001313347,5,1
-0.0003313232,-0.0001441378,5,1
-0.0003673017,-0.000159534,5,1
-0.0004065215,-0.0001720131,5,1
-0.0004410415,-0.0001762268,5,1
-0.0004531963,-0.0001723372,5,1
-0.0004322899,-0.0001682856,5,1
-0.0003779981,-0.0001721751,5,1
-0.0003057169,-0.0001804405,5,1
-0.0002334358,-0.000186761,5,1
-0.0001746061,-0.0001831956,5,1
-0.0001368449,-0.0001715269,5,1
-0.0001277692,-0.0001571031,5,1
-0.0001528894,-0.0001433275,5,1
-0.0002086398,-0.0001292278,5,1
-0.0002870794,-0.0001125351,5,1
-0.000370543,-9.746302e-05,5,1
-0.0004382863,-8.579432e-05,5,1
-0.0004778303,-7.574627e-05,5,1
-0.0004901472,-6.521203e-05,5,1
-0.0004809095,-5.062615e-05,5,1
-0.0004454172,-3.247483e-05,5,1
-0.0003741085,-1.318906e-05,5,1
-0.000263742,3.503668e-06,5,1
-0.0001269589,1.517237e-05,5,1
1.679302e-05,1.97102e-05,5,1
0.0001603829,2.035846e-05,5,1
0.0003065659,2.262738e-05,5,1
0.000443187,3.299956e-05,5,1
0.000549826,5.1475e-05,5,1
0.0006154625,7.708133e-05,5,1
0.0006462549,0.0001030118,5,1
0.0006622995,0.000120839,5,1
0.0006916333,0.0001273216,5,1
0.0007418735,0.0001257009,5,1
0.0008055653,0.0001229458,5,1
0.0008627744,0.0001190562,5,1
0.000894053,0.0001141943,5,1
0.0008802774,0.0001130598,5,1
0.0008068618,0.0001195424,5,1
0.0006699165,0.0001344524,5,1
0.0004866205,0.0001616794,5,1
0.0002914938,0.0001999268,5,1
0.0001245665,0.0002430362,5,1
2.068259e-05,0.0002777182,5,1
1.209313e-05,0.0002923041,5,1
0.0001242423,0.0002804733,5,1
0.0003462718,0.0002470879,5,1
0.0006159487,0.0002008992,5,1
0.0008400852,0.0001550348,5,1
0.000928573,0.0001166253,5,1
0.000837168,9.004655e-05,5,1
0.0005848321,7.497447e-05,5,1
0.0002346088,6.703327e-05,5,1
-0.0001295519,6.330578e-05,5,1
-0.0004319658,6.557468e-05,5,1
-0.0006214201,7.384002e-05,5,1
-0.0006817085,8.518459e-05,5,1
-0.0006282268,9.004655e-05,5,1
-0.0004877163,8.372601e-05,5,1
-0.0002893484,6.735741e-05,5,1
-7.55842e-05,4.483033e-05,5,1
0.0001002567,1.825161e-05,5,1
0.0002023578,-1.124428e-05,5,1
0.0002312055,-4.009191e-05,5,1
0.0002111094,-6.618442e-05,5,1
0.0001628139,-8.352541e-05,5,1
9.669123e-05,-9.211487e-05,5,1
1.1769e-05,-9.551824e-05,5,1
-9.065628e-05,-9.762509e-05,5,1
-0.0001982676,-9.908367e-05,5,1
-0.0002840002,-9.908367e-05,5,1
-0.0003237062,-9.486997e-05,5,1
-0.0003167374,-8.109443e-05,5,1
-0.0002916173,-5.808115e-05,5,1
-0.0002849726,-2.809907e-05,5,1
-0.0003250027,3.503668e-06,5,1
-0.0004136524,3.121684e-05,5,1
-0.0005214258,4.709924e-05,5,1
-0.0006082929,4.320967e-05,5,1
-0.0006478368,1.776542e-05,5,1
-0.0006360059,-2.437157e-05,5,1
-0.0005940311,-7.299116e-05,5,1
-0.0005570802,-0.0001180453,5,1
-0.0005510838,-0.0001506204,5,1
-0.0005702075,-0.0001635857,5,1
-0.0005818762,-0.0001538618,5,1
-0.0005572423,-0.0001276072,5,1
-0.0004953333,-0.0001010285,5,1
-0.0004086284,-8.433573e-05,5,1
-0.0003027998,-8.303922e-05,5,1
-0.0001724993,-9.66527e-05,5,1
-3.328516e-05,-0.0001203142,5,1
8.405014e-05,-0.0001428413,5,1
0.0001500107,-0.0001585616,5,1
0.000143204,-0.0001695821,5,1
6.136099e-05,-0.0001791439,5,1
-7.039812e-05,-0.0001880575,5,1
-0.0002079916,-0.0001888679,5,1
-0.0003094444,-0.0001686097,5,1
-0.0003486642,-0.0001237176,5,1
-0.0003240303,-6.569822e-05,5,1
-0.0002494803,-9.299493e-06,5,1
-0.0001498101,3.024445e-05,5,1
-5.192267e-05,5.050261e-05,5,1
2.651694e-05,5.374392e-05,5,1
6.849186e-05,4.645098e-05,5,1
5.957827e-05,3.688912e-05,5,1
4.47606e-06,3.13789e-05,5,1
-7.153257e-05,3.299956e-05,5,1
-0.0001383035,3.964424e-05,5,1
-0.0001737958,4.920609e-05,5,1
-0.0001708786,6.119892e-05,5,1
-0.0001298761,7.497447e-05,5,1
-5.483985e-05,8.826383e-05,5,1
5.066468e-05,9.944634e-05,5,1
0.0001725378,0.0001069013,5,1
0.0002759355,0.0001125736,5,1
0.0003328204,0.000118408,5,1
0.0003522683,0.0001252147,5,1
0.0003741471,0.0001354248,5,1
0.0004235771,0.0001464453,5,1
0.0004846757,0.0001519555,5,1
0.0005298919,0.0001509831,5,1
0.0005522569,0.0001461212,5,1
0.0005674912,0.0001443384,5,1
0.0005937457,0.0001496866,5,1
0.0006341,0.0001633001,5,1
0.0006702406,0.0001788584,5,1
0.0006733199,0.0001910133,5,1
0.0006248623,0.0001960373,5,1
0.0005271368,0.0001955511,5,1
0.0004020224,0.0001921477,5,1
0.0002814457,0.0001880961,5,1
0.0001947408,0.0001842065,5,1
0.0001534141,0.0001773998,5,1
0.0001467694,0.0001633001,5,1
0.0001514693,0.0001376938,5,1
0.0001417454,0.0001041462,5,1
9.977047e-05,7.254349e-05,5,1
1.841368e-05,4.758544e-05,5,1
-9.211487e-05,2.81376e-05,5,1
-0.0002034537,3.827799e-06,5,1
-0.0002869174,-2.858527e-05,5,1
-0.0003319715,-6.407757e-05,5,1
-0.0003507711,-9.713889e-05,5,1
-0.0003715154,-0.0001227452,5,1
-0.0004204592,-0.0001413827,5,1
-0.0005024642,-0.0001566169,5,1
-0.0005966241,-0.0001700683,5,1
-0.0006726327,-0.0001823853,5,1
-0.00071558,-0.0001956746,5,1
-0.0007311383,-0.0002068571,5,1
-0.0007311383,-0.0002135018,5,1
-0.0007238454,-0.0002117191,5,1
-0.0007100698,-0.0002037779,5,1
-0.0006852738,-0.0001930815,5,1
-0.0006457299,-0.0001823853,5,1
-0.0005904656,-0.0001736337,5,1
-0.0005227224,-0.0001632615,5,1
-0.0004484965,-0.0001522411,5,1
-0.0003716775,-0.0001438137,5,1
-0.0002899966,-0.000144462,5,1
-0.0002037779,-0.0001577513,5,1
-0.0001169109,-0.0001780095,5,1
-3.944364e-05,-0.0001955125,5,1
2.068259e-05,-0.0002003745,5,1
6.379197e-05,-0.0001930815,5,1
9.361199e-05,-0.0001823853,5,1
0.0001226217,-0.0001762268,5,1
0.0001673517,-0.0001754164,5,1
0.0002464396,-0.0001775233,5,1
0.0003675024,-0.000179306,5,1
0.0005227611,-0.000176713,5,1
0.000688554,-0.0001653684,5,1
0.0008464058,-0.0001438137,5,1
0.0009925888,-0.000117235,5,1
0.001136341,-9.033215e-05,5,1
0.001278959,-6.521203e-05,5,1
0.001406342,-4.317115e-05,5,1
0.001487213,-2.356124e-05,5,1
0.001494668,-3.14101e-06,5,1
0.001419956,2.311357e-05,5,1
0.001279121,5.228533e-05,5,1
0.001105224,7.967438e-05,5,1
0.0009355418,0.0001007429,5,1
0.0007909794,0.000113384,5,1
0.0006715371,0.0001231079,5,1
0.0005632775,0.0001318594,5,1
0.0004574487,0.0001370455,5,1
0.0003632887,0.0001386662,5,1
0.0003010556,0.0001394765,5,1
0.0002842008,0.0001459591,5,1
0.0003075383,0.0001621656,5,1
0.0003532407,0.0001902029,5,1
0.0003957018,0.0002234263,5,1
0.0004041292,0.0002483844,5,1
0.0003553475,0.0002590807,5,1
0.0002487085,0.0002577842,5,1
0.0001072255,0.0002462775,5,1
-3.474375e-05,0.0002302331,5,1
-0.0001481895,0.0002174299,5,1
-0.0002185258,0.0002172679,5,1
-0.0002263049,0.0002305572,5,1
-0.0001618029,0.0002514636,5,1
-4.884343e-05,0.0002691288,5,1
5.714729e-05,0.0002751252,5,1
0.0001002567,0.0002652392,5,1
5.406805e-05,0.0002357433,5,1
-7.412562e-05,0.0001950649,5,1
-0.0002564491,0.0001534141,5,1
-0.0004510895,0.0001203528,5,1
-0.0006209339,9.928428e-05,5,1
-0.0007411864,8.664318e-05,5,1
-0.000809902,7.772959e-05,5,1
-0.0008342119,6.606088e-05,5,1
-0.0008183295,4.888196e-05,5,1
-0.0007672789,2.311357e-05,5,1
-0.0006864083,-1.092015e-05,5,1
-0.0005745832,-4.754691e-05,5,1
-0.0004441207,-7.444975e-05,5,1
-0.0003361852,-8.239095e-05,5,1
-0.0002995585,-6.942573e-05,5,1
-0.0003475298,-4.171256e-05,5,1
-0.0004509274,-7.030578e-06,5,1
-0.0005559457,2.505836e-05,5,1
-0.0006201236,4.677511e-05,5,1
-0.0006257959,4.985435e-05,5,1
-0.0005771763,2.959619e-05,5,1
-0.0004914437,-1.108221e-05,5,1
-0.0004003631,-6.148453e-05,5,1
-0.0003369955,-0.000102325,5,1
-0.0003222476,-0.000122259,5,1
-0.0003614674,-0.0001251762,5,1
-0.0004416897,-0.0001256624,5,1
-0.0005350393,-0.0001361966,5,1
-0.000616234,-0.0001592099,5,1
-0.0006750637,-0.0001861127,5,1
-0.0007094215,-0.0002062088,5,1
-0.0007121767,-0.0002105846,5,1
-0.0006664743,-0.0001971332,5,1
-0.0005559457,-0.0001707166,5,1
-0.0003933943,-0.0001389517,5,1
-0.0002311669,-0.0001062146,5,1
-0.0001248521,-7.509801e-05,5,1
-9.568031e-05,-4.80331e-05,5,1
-0.0001243659,-2.583016e-05,5,1
-0.0001708786,-9.623623e-06,5,1
-0.0002053985,-2.978945e-06,5,1
-0.0002088019,-6.220252e-06,5,1
-0.0001812508,-1.724069e-05,5,1
-0.0001374932,-3.198864e-05,5,1
-9.486997e-05,-4.754691e-05,5,1
-6.342931e-05,-6.294311e-05,5,1
-3.474375e-05,-7.65566e-05,5,1
5.448452e-06,-8.935975e-05,5,1
5.779555e-05,-0.0001032974,5,1
0.000110953,-0.0001182074,5,1
0.0001602208,-0.0001326312,5,1
0.0002023578,-0.0001404103,5,1
0.0002363916,-0.0001386276,5,1
0.0002566497,-0.0001316588,5,1
0.0002543808,-0.0001191798,5,1
0.0002195368,-0.0001002181,5,1
0.0001564933,-7.882551e-05,5,1
8.583286e-05,-6.035007e-05,5,1
3.121684e-05,-4.722278e-05,5,1
6.096713e-06,-3.701266e-05,5,1
1.792748e-05,-2.955766e-05,5,1
6.427817e-05,-1.740276e-05,5,1
0.0001261871,7.717366e-06,5,1
0.0001748067,5.439218e-05,5,1
0.0001958752,0.0001239182,5,1
0.0001963614,0.000210137,5,1
0.0001955511,0.0002992729,5,1
0.0002135403,0.000368799,5,1
0.000259729,0.0004013741,5,1
0.000339303,0.0003934329,5,1
0.0004464283,0.0003535648,5,1
0.0005614947,0.0002997591,5,1
0.0006629477,0.000252436,5,1
0.0007276118,0.0002224539,5,1
0.000735553,0.0002112714,5,1
0.0006780197,0.0002119197,5,1
0.0005605224,0.0002098128,5,1
0.0003948915,0.0001942546,5,1
0.0001976579,0.0001675138,5,1
-5.479652e-07,0.0001414213,5,1
-0.0001642339,0.0001244044,5,1
-0.0002715212,0.0001145184,5,1
-0.0003062031,0.0001044704,5,1
-0.0002673075,9.328786e-05,5,1
-0.0001788198,8.486046e-05,5,1
-8.595638e-05,7.999851e-05,5,1
-1.25408e-05,7.67572e-05,5,1
4.515445e-05,7.027458e-05,5,1
9.231547e-05,6.087479e-05,5,1
0.0001130598,4.807163e-05,5,1
8.858796e-05,3.154097e-05,5,1
2.084466e-05,9.986281e-06,5,1
-6.342931e-05,-1.432352e-05,5,1
-0.0001318209,-3.604027e-05,5,1
-0.0001624512,-4.673658e-05,5,1
-0.0001515928,-4.592625e-05,5,1
-0.0001138316,-3.296103e-05,5,1
-8.02841e-05,-1.318906e-05,5,1
-8.530812e-05,4.151929e-06,5,1
-0.0001396,1.419998e-05,5,1
-0.0002217671,1.193106e-05,5,1
-0.000290969,1.002961e-07,5,1
-0.000310903,-1.562004e-05,5,1
-0.0002645523,-3.101625e-05,5,1
-0.0001549962,-4.300908e-05,5,1
-3.789272e-06,-5.095028e-05,5,1
0.000155683,-5.953974e-05,5,1
0.0002910076,-7.509801e-05,5,1
0.0003759298,-9.551824e-05,5,1
0.0004028327,-0.0001162626,5,1
0.0003864641,-0.0001323071,5,1
0.0003666921,-0.0001415448,5,1
0.0003927847,-0.0001421931,5,1
0.0004880791,-0.0001340898,5,1
0.0006308587,-0.0001238797,5,1
0.0007778521,-0.0001167488,5,1
0.0008997253,-0.000112373,5,1
0.0009862683,-0.0001109144,5,1
0.001039264,-0.000114804,5,1
0.001068435,-0.0001248521,5,1
0.001079618,-0.0001405724,5,1
0.001071029,-0.0001666649,5,1
0.00103035,-0.000204102,5,1
0.0009465622,-0.0002481838,5,1
0.0008141547,-0.0002794623,5,1
0.0006358828,-0.0002849726,5,1
0.0004248736,-0.0002629317,5,1
0.0002041406,-0.0002258187,5,1
-5.085794e-06,-0.0001909747,5,1
-0.0001835197,-0.0001686097,5,1
-0.0003191683,-0.0001592099,5,1
-0.0004044147,-0.0001567789,5,1
-0.0004462276,-0.0001527273,5,1
-0.0004603272,-0.0001378173,5,1
-0.0004687546,-0.0001044318,5,1
-0.00048723,-5.22468e-05,5,1
-0.0005175362,6.096713e-06,5,1
-0.0005557837,5.163707e-05,5,1
-0.0005909518,7.513654e-05,5,1
-0.0006123445,7.918817e-05,5,1
-0.0006128307,7.076078e-05,5,1
-0.0005899795,6.03886e-05,5,1
-0.0005421702,5.439218e-05,5,1
-0.0004732924,5.779555e-05,5,1
-0.0003987424,7.448828e-05,5,1
-0.0003407231,0.0001023635,5,1
-0.0003196545,0.0001354248,5,1
-0.0003410472,0.0001633001,5,1
-0.0004034423,0.000180479,5,1
-0.0004988988,0.0001835583,5,1
-0.000618665,0.0001739964,5,1
-0.0007535033,0.0001628139,5,1
-0.0008943381,0.0001613553,5,1
-0.001022856,0.0001764274,5,1
-0.001111992,0.0002044647,5,1
-0.001137598,0.000234933,5,1
-0.001080389,0.0002571359,5,1
-0.0009303166,0.000267346,5,1
-0.0006979149,0.0002631324,5,1
-0.0004230522,0.0002480603,5,1
-0.0001652063,0.0002281262,5,1
1.987227e-05,0.0002114335,5,1
0.0001096565,0.0002007372,5,1
0.0001211631,0.0001932822,5,1
9.814982e-05,0.000185341,5,1
7.805372e-05,0.0001739964,5,1
7.351589e-05,0.0001566554,5,1
7.935024e-05,0.0001391524,5,1
9.474644e-05,0.0001253768,5,1
0.0001269974,0.0001103047,5,1
0.0001968476,8.907416e-05,5,1
0.0003230965,5.860588e-05,5,1
0.0004945617,2.116879e-05,5,1
0.0006622995,-1.092015e-05,5,1
0.0007668316,-2.728874e-05,5,1
0.0007827141,-2.534396e-05,5,1
0.0007190223,-1.416145e-05,5,1
0.0006206486,-5.409925e-06,5,1
0.0005355643,-1.075808e-05,5,1
0.0004906721,-3.036798e-05,5,1
0.0004905101,-5.69467e-05,5,1
0.0005177371,-8.498399e-05,5,1
0.0005391297,-0.0001084835,5,1
0.0005166026,-0.0001245279,5,1
0.0004274666,-0.0001339277,5,1
0.0002809595,-0.0001400862,5,1
0.00010366,-0.000149486,5,1
-8.514606e-05,-0.0001626133,5,1
-0.0002724935,-0.0001765509,5,1
-0.0004493068,-0.0001856265,5,1
-0.0006076446,-0.0001893541,5,1
-0.0007418346,-0.0001872472,5,1
-0.0008374532,-0.0001807646,5,1
-0.0008752144,-0.0001689338,5,1
-0.0008400462,-0.0001501342,5,1
-0.0007293556,-0.0001240417,5,1
-0.0005708557,-9.551824e-05,5,1
-0.0004032803,-7.23429e-05,5,1
-0.000261149,-5.59743e-05,5,1
-0.0001601823,-4.560212e-05,5,1
-9.29252e-05,-4.155049e-05,5,1
-4.47918e-05,-4.625038e-05,5,1
-9.461558e-06,-5.872941e-05,5,1
5.448452e-06,-7.088431e-05,5,1
-1.124428e-05,-7.55842e-05,5,1
-6.586029e-05,-7.023606e-05,5,1
-0.0001460826,-6.035007e-05,5,1
-0.000224036,-5.532604e-05,5,1
-0.0002647144,-5.921561e-05,5,1
-0.0002306807,-7.380149e-05,5,1
-0.0001020008,-9.730096e-05,5,1
9.361199e-05,-0.0001269589,5,1
0.000279663,-0.000161965,5,1
0.0003850055,-0.0001935677,5,1
0.0003871123,-0.0002104225,5,1
0.0003146691,-0.0002029675,5,1
0.0002211574,-0.0001736337,5,1
0.0001602208,-0.0001392759,5,1
0.0001694586,-0.0001188556,5,1
0.0002542187,-0.0001266348,5,1
0.0003910019,-0.0001634236,5,1
0.000537347,-0.0002144742,5,1
0.0006639201,-0.0002554767,5,1
0.0007705591,-0.0002690902,5,1
0.0008605054,-0.0002470493,5,1
0.0009233868,-0.0001924333,5,1
0.0009420244,-0.0001131834,5,1
0.000896484,-1.740276e-05,5,1
0.0007747728,8.291568e-05,5,1
0.0005932595,0.0001731861,5,1
0.0003939191,0.0002370398,5,1
0.0002195368,0.0002696149,5,1
9.490851e-05,0.000279663,5,1
2.214118e-05,0.0002833905,5,1
-1.318906e-05,0.0002958695,5,1
-2.7937e-05,0.0003234207,5,1
-3.296103e-05,0.0003652335,5,1
-2.923353e-05,0.000410936,5,1
-1.659243e-05,0.0004511282,5,1
-2.330684e-06,0.0004783552,5,1
-7.100305e-07,0.0004872688,5,1
-1.707863e-05,0.0004721967,5,1
-4.592625e-05,0.0004307079,5,1
-8.060823e-05,0.0003730126,5,1
-0.0001131834,0.0003151553,5,1
-0.000142031,0.0002754493,5,1
-0.0001650443,0.0002631324,5,1
-0.0001781716,0.0002759355,5,1
-0.0001818991,0.0002991108,5,1
-0.000189192,0.0003102934,5,1
-0.000216581,0.0002934386,5,1
-0.0002681178,0.0002483844,5,1
-0.0003298647,0.0001889064,5,1
-0.0003776739,0.0001294284,5,1
-0.0003846427,7.983644e-05,5,1
-0.0003337542,4.304761e-05,5,1
-0.0002211189,2.035846e-05,5,1
-5.127441e-05,1.257933e-05,5,1
0.0001490383,1.679302e-05,5,1
0.0003237448,2.635488e-05,5,1
0.0004096394,3.040651e-05,5,1
0.0003697714,1.938607e-05,5,1
0.0002167816,-8.489166e-06,5,1
6.90704e-06,-4.608832e-05,5,1
-0.0001937298,-8.628052e-05,5,1
-0.0003433161,-0.0001280934,5,1
-0.0004365036,-0.0001660166,5,1
-0.0004901472,-0.0001943781,5,1
-0.0005211017,-0.000211557,5,1
-0.0005389289,-0.0002169052,5,1
-0.000549139,-0.0002094502,5,1
-0.000559187,-0.0001880575,5,1
-0.0005796073,-0.0001574272,5,1
-0.0006141272,-0.0001253383,5,1
-0.0006501057,-9.324933e-05,5,1
-0.0006710121,-6.132246e-05,5,1
-0.0006637191,-3.571614e-05,5,1
-0.0006228787,-2.923353e-05,5,1
-0.0005436288,-4.787104e-05,5,1
-0.0004279142,-8.384954e-05,5,1
-0.0002888622,-0.0001230693,5,1
-0.0001467309,-0.0001567789,5,1
-1.967167e-05,-0.0001781716,5,1
8.323981e-05,-0.0001856265,5,1
0.0001540623,-0.0001757406,5,1
0.0001850168,-0.0001517549,5,1
0.0001793446,-0.0001201522,5,1
0.0001657311,-9.308726e-05,5,1
0.0001942546,-7.785312e-05,5,1
0.0003098072,-7.218083e-05,5,1
0.0005206542,-6.926366e-05,5,1
0.0007857933,-6.634648e-05,5,1
0.001030674,-6.586029e-05,5,1
0.001189337,-6.650855e-05,5,1
0.001224991,-6.699475e-05,5,1
0.001142175,-6.829127e-05,5,1
0.0009780029,-7.282909e-05,5,1
0.0007833623,-8.125649e-05,5,1
0.0005956905,-9.486997e-05,5,1
0.0004337872,-0.0001146419,5,1
0.0003091589,-0.0001363587,5,1
0.0002292607,-0.0001514308,5,1
0.0001971717,-0.000152079,5,1
0.0002046267,-0.0001352242,5,1
0.0002333123,-0.0001044318,5,1
0.0002616738,-7.104638e-05,5,1
0.0002679943,-3.830919e-05,5,1
0.0002352571,-1.335113e-05,5,1
0.0001684862,-3.858999e-07,5,1
9.150514e-05,5.610517e-06,5,1
4.223728e-05,2.262738e-05,5,1
5.358185e-05,6.136099e-05,5,1
0.0001299146,0.0001158149,5,1
0.0002406053,0.0001699448,5,1
0.0003394651,0.0002060853,5,1
0.0003882468,0.0002188885,5,1
0.0003715541,0.0002137024,5,1
0.0002968419,0.0001955511,5,1
0.0001893926,0.0001717275,5,1
8.210535e-05,0.0001537382,5,1
-1.196227e-06,0.0001504969,5,1
-5.370539e-05,0.0001597346,5,1
-7.882551e-05,0.0001722137,5,1
-8.676672e-05,0.0001786963,5,1
-8.579432e-05,0.0001743205,5,1
-8.158062e-05,0.000160545,5,1
-8.271508e-05,0.0001436902,5,1
-9.762509e-05,0.0001286181,5,1
-0.0001332795,0.0001177597,5,1
-0.0001912988,0.0001094944,5,1
-0.0002639041,9.669123e-05,5,1
-0.0003327818,7.805372e-05,5,1
-0.0003836704,5.828175e-05,5,1
-0.0004104111,4.320967e-05,5,1
-0.0004146248,3.202716e-05,5,1
-0.000412518,1.744129e-05,5,1
-0.0004240246,-4.923729e-06,5,1
-0.0004656754,-3.571614e-05,5,1
-0.0005308256,-6.829127e-05,5,1
-0.0005971103,-9.551824e-05,5,1
-0.0006382749,-0.0001133454,5,1
-0.0006374646,-0.000119666,5,1
-0.0005925725,-0.0001170729,5,1
-0.0005167259,-0.0001075111,5,1
-0.0004387725,-9.519411e-05,5,1
-0.0003817256,-8.255302e-05,5,1
-0.0003536883,-7.315322e-05,5,1
-0.0003473677,-6.861539e-05,5,1
-0.0003557951,-7.072225e-05,5,1
-0.0003650328,-8.093236e-05,5,1
-0.000360495,-0.0001020008,5,1
-0.0003358611,-0.0001365208,5,1
-0.0002872415,-0.0001770371,5,1
-0.0002191741,-0.0002113949,5,1
-0.0001489998,-0.0002305186,5,1
-9.778715e-05,-0.0002357047,5,1
-7.688073e-05,-0.0002327876,5,1
-9.324933e-05,-0.0002298704,5,1
-0.0001535376,-0.0002331117,5,1
-0.000261311,-0.0002431597,5,1
-0.0004042526,-0.0002530457,5,1
-0.0005582146,-0.0002523975,5,1
-0.0007006701,-0.0002316531,5,1
-0.0008126572,-0.0001909747,5,1
-0.0008825073,-0.0001340898,5,1
-0.0009110308,-7.007399e-05,5,1
-0.0008990379,-7.516774e-06,5,1
-0.0008484736,4.661304e-05,5,1
-0.0007617687,9.280167e-05,5,1
-0.000650916,0.0001367214,5,1
-0.0005452494,0.0001819376,5,1
-0.0004716718,0.000222616,5,1
-0.0004293727,0.0002409294,5,1
-0.0003974459,0.0002218057,5,1
-0.0003514194,0.0001671896,5,1
-0.0002749245,9.604298e-05,5,1
-0.0001627754,2.635488e-05,5,1
-1.318906e-05,-2.42095e-05,5,1
0.0001668655,-4.608832e-05,5,1
0.0003542131,-4.317115e-05,5,1
0.0005130371,-2.809907e-05,5,1
0.0006115729,-1.448558e-05,5,1
0.0006397723,-7.354709e-06,5,1
0.000609304,-2.168618e-06,5,1
0.0005512846,4.638125e-06,5,1
0.0004911583,1.452411e-05,5,1
0.0004436732,2.635488e-05,5,1
0.0004251977,3.915804e-05,5,1
0.0004717105,5.585077e-05,5,1
0.0006407447,8.323981e-05,5,1
0.0009635791,0.0001257009,5,1
0.001402939,0.0001848548,5,1
0.001851051,0.000254867,5,1
0.002184258,0.0003219621,5,1
0.002326066,0.0003642611,5,1
0.002279229,0.0003705817,5,1
0.002110356,0.000346596,5,1
0.001902263,0.0003073762,5,1
0.001695792,0.0002730183,5,1
0.001492237,0.0002521119,5,1
0.001272152,0.0002438466,5,1
0.001021274,0.0002427121,5,1
0.0007366874,0.0002380122,5,1
0.0004281149,0.0002253711,5,1
0.000113384,0.0002038164,5,1
-0.000176713,0.0001798307,5,1
-0.0004108973,0.0001574657,5,1
-0.0005656697,0.0001372076,5,1
-0.000628551,0.0001226217,5,1
-0.0005966241,0.0001174356,5,1
-0.0004927403,0.0001190562,5,1
-0.0003626019,0.0001222976,5,1
-0.0002553146,0.0001211631,5,1
-0.0002010227,0.0001148425,5,1
-0.0002120432,9.977047e-05,5,1
-0.0002822175,7.497447e-05,5,1
-0.0003893426,4.142696e-05,5,1
-0.0004974402,3.503668e-06,5,1
-0.0005749074,-3.26369e-05,5,1
-0.0006131548,-6.359137e-05,5,1
-0.0006170443,-8.741498e-05,5,1
-0.000581552,-0.0001045939,5,1
-0.0005055434,-0.0001167488,5,1
-0.0004060354,-0.0001238797,5,1
-0.0003118754,-0.0001233935,5,1
-0.0002421874,-0.0001161005,5,1
-0.0001961608,-0.0001076731,5,1
-0.0001624512,-0.0001003802,5,1
-0.0001289037,-9.405965e-05,5,1
-9.130454e-05,-8.352541e-05,5,1
-6.310517e-05,-6.731888e-05,5,1
-8.498399e-05,-4.754691e-05,5,1
-0.0002057227,-3.328516e-05,5,1
-0.0004360174,-3.409549e-05,5,1
-0.0007408622,-5.354332e-05,5,1
-0.0010436,-8.887356e-05,5,1
-0.001264819,-0.0001284175,5,1
-0.001349904,-0.0001603444,5,1
-0.001294153,-0.0001799543,5,1
-0.00114246,-0.0001914609,5,1
-0.0009577056,-0.000208964,5,1
-0.0007815406,-0.0002441321,5,1
-0.0006139652,-0.0002927517,5,1
-0.0004410415,-0.0003371576,5,1
-0.0002656868,-0.0003613053,5,1
-0.0001055663,-0.0003564434,5,1
1.144487e-05,-0.0003251648,5,1
7.481241e-05,-0.000281083,5,1
0.0001009049,-0.0002400805,5,1
0.0001276457,-0.0002136638,5,1
0.0001968476,-0.0001963229,5,1
0.0003282826,-0.0001705545,5,1
0.0004968306,-0.0001280934,5,1
0.0006475514,-7.33153e-05,5,1
0.0007410632,-1.886135e-05,5,1
0.0007909794,2.246531e-05,5,1
0.0008507816,4.515445e-05,5,1
0.0009726548,5.098881e-05,5,1
0.001172806,4.661304e-05,5,1
0.00142498,3.656499e-05,5,1
0.001672616,2.667901e-05,5,1
0.00186515,2.068259e-05,5,1
0.001980379,2.327564e-05,5,1
0.002003392,3.591673e-05,5,1
0.001913932,5.56887e-05,5,1
0.001695468,7.853991e-05,5,1
0.001351078,0.0001026876,5,1
0.0009143112,0.0001227837,5,1
0.0004470765,0.0001398006,5,1
2.311357e-05,0.0001553589,5,1
-0.0002924276,0.0001723757,5,1
-0.0004804233,0.0001887444,5,1
-0.0005627525,0.0002005751,5,1
-0.000576366,0.0002060853,5,1
-0.0005593491,0.0002043026,5,1
-0.0005410357,0.0001991165,5,1
-0.0005436288,0.0001961994,5,1
-0.0005762039,0.0001950649,5,1
-0.0006407059,0.0001908512,5,1
-0.0007361624,0.0001743205,5,1
-0.0008507425,0.0001492004,5,1
-0.0009560849,0.0001242423,5,1
-0.001026259,0.0001112771,5,1
-0.001048624,0.0001163011,5,1
-0.001032904,0.0001286181,5,1
-0.0009931979,0.0001331559,5,1
-0.0009382577,0.0001218114,5,1
-0.0008729455,9.863601e-05,5,1
-0.0008116848,7.140904e-05,5,1
-0.0007718167,4.645098e-05,5,1
-0.0007632272,2.797553e-05,5,1
-0.000787375,1.614476e-05,5,1
-0.0008358325,7.069105e-06,5,1
-0.0008951484,-2.168618e-06,5,1
-0.0009499265,-1.156841e-05,5,1
-0.0009872015,-2.258885e-05,5,1
-0.001002922,-3.328516e-05,5,1
-0.001009404,-3.830919e-05,5,1
-0.001024476,-3.522994e-05,5,1
-0.001054945,-2.7937e-05,5,1
-0.001079417,-2.42095e-05,5,1
-0.00104911,-2.858527e-05,5,1
-0.0009123273,-3.733679e-05,5,1
-0.0006554538,-4.462973e-05,5,1
-0.0003015032,-4.80331e-05,5,1
0.0001039842,-5.338126e-05,5,1
0.0004859722,-6.521203e-05,5,1
0.000750625,-8.514606e-05,5,1
0.00082712,-0.0001130213,5,1
0.0007199947,-0.0001434896,5,1
0.0005089855,-0.0001686097,5,1
0.0002978143,-0.000179306,5,1
0.0001540623,-0.0001703924,5,1
8.907416e-05,-0.0001478653,5,1
8.016057e-05,-0.000119828,5,1
9.280167e-05,-9.211487e-05,5,1
0.0001052807,-6.586029e-05,5,1
0.0001182459,-3.68506e-05,5,1
0.0001398006,1.072688e-06,5,1
0.0001688103,4.515445e-05,5,1
0.0001914995,8.161915e-05,5,1
0.0002065715,9.523264e-05,5,1
0.0002282883,7.643307e-05,5,1
0.0002701012,2.570662e-05,5,1
0.0003329825,-4.171256e-05,5,1
0.0004127187,-0.0001054042,5,1
0.0005065545,-0.0001496481,5,1
0.000604442,-0.0001681235,5,1
0.0006815852,-0.0001626133,5,1
0.0007139983,-0.0001394379,5,1
0.000693578,-0.0001114006,5,1
0.0006360448,-8.692878e-05,5,1
0.000564736,-6.780507e-05,5,1
0.0004999099,-4.932962e-05,5,1
0.0004535592,-2.7937e-05,5,1
0.0004286011,-2.492749e-06,5,1
0.000426008,2.505836e-05,5,1
0.0004465904,4.936815e-05,5,1
0.0004884033,6.541262e-05,5,1
0.0005428572,7.546067e-05,5,1
0.0006002283,8.210535e-05,5,1
0.0006460929,9.020862e-05,5,1
0.0006725095,0.0001013911,5,1
0.0006776956,0.0001137081,5,1
0.0006640821,0.0001231079,5,1
0.0006319932,0.0001320215,5,1
0.0005879114,0.0001401247,5,1
0.0005451261,0.0001477418,5,1
0.000517575,0.0001543865,5,1
0.0004965065,0.000158114,5,1
0.0004537212,0.0001571416,5,1
0.0003681507,0.0001513072,5,1
0.0002441707,0.0001412592,5,1
0.0001078737,0.0001315353,5,1
-1.270286e-05,0.0001273216,5,1
-9.973194e-05,0.0001305629,5,1
-0.0001535376,0.0001394765,5,1
-0.0001840059,0.0001524417,5,1
-0.0002026434,0.0001626518,5,1
-0.0002188499,0.000160707,5,1
-0.0002379736,0.0001445005,5,1
-0.0002634179,0.0001214872,5,1
-0.0002945344,0.0001009049,5,1
-0.0003274337,8.696731e-05,5,1
-0.0003577399,7.805372e-05,5,1
-0.0003810773,6.41161e-05,5,1
-0.0003911253,3.996837e-05,5,1
-0.0003906392,1.22552e-05,5,1
-0.0003955011,-1.25408e-05,5,1
-0.000427428,-2.826114e-05,5,1
-0.0004854474,-3.604027e-05,5,1
-0.0005371462,-3.992984e-05,5,1
-0.0005460597,-4.009191e-05,5,1
-0.0004972781,-2.955766e-05,5,1
-0.0003997148,-1.844488e-06,5,1
-0.0002890242,4.288554e-05,5,1
-0.0002068571,9.555677e-05,5,1
-0.0001734716,0.000138342,5,1
-0.0001812508,0.0001566554,5,1
-0.0002102605,0.000145797,5,1
-0.000246401,0.0001166253,5,1
-0.0002865932,8.583286e-05,5,1
-0.0003326198,6.849186e-05,5,1
-0.0003739464,6.930219e-05,5,1
-0.0004039285,7.967438e-05,5,1
-0.0004253211,8.340187e-05,5,1
-0.0004431483,7.189524e-05,5,1
-0.0004603272,4.547859e-05,5,1
-0.0004763717,1.274139e-05,5,1
-0.0004877163,-1.772689e-05,5,1
-0.0004838267,-4.365734e-05,5,1
-0.0004582204,-6.602235e-05,5,1
-0.0004096008,-8.838737e-05,5,1
-0.0003316474,-0.0001130213,5,1
-0.0002083157,-0.0001361966,5,1
-3.749886e-05,-0.0001509446,5,1
0.0001509831,-0.0001517549,5,1
0.0003179104,-0.0001374932,5,1
0.0004349216,-0.0001149661,5,1
0.0004992616,-9.130454e-05,5,1
0.0005224369,-7.623246e-05,5,1
0.0005332953,-7.590833e-05,5,1
0.0005585775,-8.887356e-05,5,1
0.0006041179,-0.0001112386,5,1
0.0006587339,-0.0001381414,5,1
0.0007075156,-0.0001624512,5,1
0.000737984,-0.0001791439,5,1
0.0007327979,-0.0001911368,5,1
0.0006841783,-0.0002008607,5,1
0.0006023352,-0.0002104225,5,1
0.0005047718,-0.0002159328,5,1
0.0004068843,-0.00021415,5,1
0.0003085106,-0.0002078295,5,1
0.0002057612,-0.0001998883,5,1
0.0001137081,-0.0001890299,5,1
6.589881e-05,-0.000176875,5,1
7.805372e-05,-0.000166989,5,1
0.0001347766,-0.0001588858,5,1
0.0001963614,-0.0001509446,5,1
0.0002323399,-0.0001413827,5,1
0.0002278021,-0.0001295519,5,1
0.0001848548,-0.0001162626,5,1
0.0001112771,-9.989401e-05,5,1
2.489629e-05,-8.174268e-05,5,1
-4.576419e-05,-6.051213e-05,5,1
-7.947377e-05,-3.425755e-05,5,1
-7.056019e-05,-3.951337e-06,5,1
-3.393342e-05,3.170304e-05,5,1
8.041497e-06,6.622294e-05,5,1
3.397195e-05,9.182927e-05,5,1
3.413401e-05,0.0001020394,5,1
6.420843e-06,9.523264e-05,5,1
-3.247483e-05,7.610894e-05,5,1
-5.22468e-05,5.779555e-05,5,1
-2.712668e-05,4.936815e-05,5,1
5.082674e-05,5.536457e-05,5,1
0.0001647587,7.432621e-05,5,1
0.0002858215,9.231547e-05,5,1
0.0003969983,9.912221e-05,5,1
0.0005005581,9.31258e-05,5,1
0.0005990939,8.307774e-05,5,1
0.0006895264,8.113296e-05,5,1
0.0007587284,0.0001022015,5,1
0.0007906552,0.0001558451,5,1
0.0007716935,0.0002342847,5,1
0.0007015193,0.0003138588,5,1
0.0005854804,0.0003683128,5,1
0.0004316803,0.0003850055,5,1
0.000242388,0.0003649094,5,1
3.267542e-05,0.0003164518,5,1
-0.0001754164,0.0002516257,5,1
-0.0003645466,0.0001859892,5,1
-0.0005209396,0.000130725,5,1
-0.0006330888,9.344993e-05,5,1
-0.0006938633,7.124698e-05,5,1
-0.000705532,5.61749e-05,5,1
-0.0006817085,4.483033e-05,5,1
-0.0006437852,3.802358e-05,5,1
-0.0006126686,3.397195e-05,5,1
-0.0005992171,2.829966e-05,5,1
-0.0006058619,1.9224e-05,5,1
-0.0006238511,7.069105e-06,5,1
-0.0006437852,-3.465141e-06,5,1
-0.0006528608,-6.058186e-06,5,1
-0.0006449196,3.665733e-06,5,1
-0.0006291993,2.473423e-05,5,1
-0.0006197995,4.839576e-05,5,1
-0.0006209339,5.730935e-05,5,1
-0.0006220684,4.126489e-05,5,1
-0.0006034309,4.244267e-07,5,1
-0.0005549733,-5.127441e-05,5,1
-0.0004838267,-9.66527e-05,5,1
-0.000407656,-0.000127283,5,1
-0.000343154,-0.0001467309,5,1
-0.0003079858,-0.0001642339,5,1
-0.0003136581,-0.0001865989,5,1
-0.0003627639,-0.0002123673,5,1
-0.0004352071,-0.0002321393,5,1
-0.0004929024,-0.0002378116,5,1
-0.0004984126,-0.0002232257,5,1
-0.0004378002,-0.0001890299,5,1
-0.0003269475,-0.0001452723,5,1
-0.0002021572,-0.0001037836,5,1
-9.892161e-05,-7.752899e-05,5,1
-3.360929e-05,-7.072225e-05,5,1
-2.81688e-06,-7.65566e-05,5,1
1.047248e-05,-8.790117e-05,5,1
2.457216e-05,-0.0001011905,5,1
4.239934e-05,-0.0001149661,5,1
5.228533e-05,-0.0001276072,5,1
4.094075e-05,-0.0001316588,5,1
1.720949e-06,-0.0001211246,5,1
-6.083626e-05,-9.422172e-05,5,1
-0.000137169,-5.953974e-05,5,1
-0.0002104225,-2.534396e-05,5,1
-0.0002676316,-2.238346e-07,5,1
-0.0002943724,1.1769e-05,5,1
-0.0002901587,7.555301e-06,5,1
-0.0002721694,-1.043395e-05,5,1
-0.0002682799,-3.604027e-05,5,1
-0.0002864312,-6.229485e-05,5,1
-0.0002982619,-8.368748e-05,5,1
-0.0002708729,-9.66527e-05,5,1
-0.0002042641,-0.0001008664,5,1
-0.0001208004,-9.956988e-05,5,1
-3.004385e-05,-9.535618e-05,5,1
7.6271e-05,-8.547019e-05,5,1
0.0002044647,-6.991193e-05,5,1
0.0003488649,-5.386745e-05,5,1
0.0004966686,-4.689865e-05,5,1
0.0006318311,-5.257093e-05,5,1
0.0007545147,-6.326724e-05,5,1
0.0008731466,-5.953974e-05,5,1
0.0009914545,-2.518189e-05,5,1
0.001081725,4.077869e-05,5,1
0.0010955,0.0001315353,5,1
0.001005392,0.0002287745,5,1
0.0008342508,0.0003117519,5,1
0.0006436619,0.0003660439,5,1
0.0005029891,0.0003952156,5,1
0.0004686312,0.0004162841,5,1
0.0005674912,0.000435894,5,1
0.0007778521,0.0004509661,5,1
0.001020302,0.0004496696,5,1
0.001195009,0.0004240633,5,1
0.00123196,0.0003777126,5,1
0.0011143,0.000324231,5,1
0.0008596951,0.0002764217,5,1
0.0005138475,0.0002386605,5,1
0.000145797,0.000210137,5,1
-0.0001716889,0.0001843686,5,1
-0.00039777,0.0001577899,5,1
-0.0005296912,0.000133318,5,1
-0.0005894933,0.0001132219,5,1
-0.0006009999,9.377406e-05,5,1
-0.0005844692,7.124698e-05,5,1
-0.000559187,4.677511e-05,5,1
-0.000539253,2.149292e-05,5,1
-0.000526774,-5.89612e-06,5,1
-0.0005167259,-3.847125e-05,5,1
-0.0004901472,-7.55842e-05,5,1
-0.0004266177,-0.0001110765,5,1
-0.00032322,-0.0001383035,5,1
-0.0002055606,-0.000151917,5,1
-0.000104918,-0.0001549962,5,1
-4.252288e-05,-0.0001517549,5,1
-2.291298e-05,-0.0001454344,5,1
-2.177852e-05,-0.0001392759,5,1
-7.516774e-06,-0.0001396,5,1
3.056858e-05,-0.0001486757,5,1
8.972242e-05,-0.0001590478,5,1
0.0001645966,-0.0001553203,5,1
0.000242388,-0.0001240417,5,1
0.0003159656,-7.039812e-05,5,1
0.0003969983,-1.497178e-05,5,1
0.0005072028,1.825161e-05,5,1
0.0006522514,1.97102e-05,5,1
0.0008109135,-2.81688e-06,5,1
0.0009412141,-3.26369e-05,5,1
0.0009989094,-5.078821e-05,5,1
0.0009548276,-4.916756e-05,5,1
0.0008066997,-3.766092e-05,5,1
0.0005867769,-3.360929e-05,5,1
0.0003474063,-4.268495e-05,5,1
0.0001368834,-5.678463e-05,5,1
-2.307504e-05,-6.569822e-05,5,1
-0.0001478653,-6.553616e-05,5,1
-0.0002506147,-5.986387e-05,5,1
-0.0003089583,-5.840528e-05,5,1
-0.0002809209,-6.699475e-05,5,1
-0.0001561307,-8.190475e-05,5,1
2.197911e-05,-9.600444e-05,5,1
0.0001782101,-0.0001021629,5,1
0.0002530843,-9.713889e-05,5,1
0.0002328261,-8.141856e-05,5,1
0.0001398006,-5.629844e-05,5,1
1.014835e-05,-2.388537e-05,5,1
-0.000122259,7.879432e-06,5,1
-0.0002348944,3.13789e-05,5,1
-0.0003222476,4.402e-05,5,1
-0.0003831841,4.709924e-05,5,1
-0.0004155972,4.904402e-05,5,1
-0.0004162455,5.585077e-05,5,1
-0.0003971218,6.995045e-05,5,1
-0.0003762153,8.956036e-05,5,1
-0.0003752429,0.0001080358,5,1
-0.0004057112,0.0001201907,5,1
-0.0004603272,0.0001229458,5,1
-0.00052175,0.0001211631,5,1
-0.0005771763,0.0001205148,5,1
-0.0006183409,0.0001253768,5,1
-0.0006428128,0.0001388282,5,1
-0.0006526987,0.0001558451,5,1
-0.0006494574,0.0001686482,5,1
-0.0006439472,0.000170431,5,1
-0.0006518884,0.000163138,5,1
-0.0006878669,0.0001493625,5,1
-0.0007586894,0.0001329939,5,1
-0.0008525252,0.000118408,5,1
-0.0009434438,0.0001107909,5,1
-0.001004056,0.000108522,5,1
-0.001013132,0.0001046324,5,1
-0.0009559229,9.328786e-05,5,1
-0.0008314567,7.270556e-05,5,1
-0.0006671225,5.098881e-05,5,1
-0.0005008436,3.429608e-05,5,1
-0.0003596847,2.522042e-05,5,1
-0.0002501286,2.149292e-05,5,1
-0.0001724993,1.906194e-05,5,1
-0.0001302002,1.436204e-05,5,1
-0.0001232314,3.503668e-06,5,1
-0.000142031,-1.20546e-05,5,1
-0.0001608306,-3.004385e-05,5,1
-0.000144624,-4.770897e-05,5,1
-7.266703e-05,-6.164659e-05,5,1
4.953022e-05,-6.667062e-05,5,1
0.0001900409,-6.083626e-05,5,1
0.0003091589,-4.819517e-05,5,1
0.000373823,-3.830919e-05,5,1
0.0003718782,-3.944364e-05,5,1
0.000324393,-5.22468e-05,5,1
0.0002707494,-7.477388e-05,5,1
0.0002525981,-0.0001024871,5,1
0.0002916559,-0.0001274451,5,1
0.0003710679,-0.0001451102,5,1
0.0004576108,-0.0001543479,5,1
0.0005162785,-0.0001553203,5,1
0.0005230852,-0.0001498101,5,1
0.0004658761,-0.0001363587,5,1
0.0003551855,-0.0001152902,5,1
0.0002153231,-9.422172e-05,5,1
8.291568e-05,-7.866345e-05,5,1
-1.886135e-05,-7.104638e-05,5,1
-8.07703e-05,-7.169464e-05,5,1
-9.762509e-05,-7.444975e-05,5,1
-6.877746e-05,-7.444975e-05,5,1
2.369211e-06,-7.007399e-05,5,1
0.0001022015,-6.569822e-05,5,1
0.0001994406,-6.504996e-05,5,1
0.0002490327,-7.444975e-05,5,1
0.0002231022,-9.081835e-05,5,1
0.0001294284,-0.0001094559,5,1
-2.492749e-06,-0.000127283,5,1
-0.000134576,-0.000144462,5,1
-0.0002253326,-0.0001624512,5,1
-0.0002408908,-0.0001796301,5,1
-0.000174444,-0.0001955125,5,1
-5.565017e-05,-0.0002049123,5,1
6.281957e-05,-0.0001998883,5,1
0.0001346145,-0.000176713,5,1
0.0001402868,-0.0001436516,5,1
8.826383e-05,-0.0001120489,5,1
1.403791e-05,-8.854943e-05,5,1
-3.134038e-05,-7.428769e-05,5,1
-8.651231e-06,-6.39155e-05,5,1
8.372601e-05,-4.80331e-05,5,1
0.0002104611,-2.323711e-05,5,1
0.0003266619,9.500085e-06,5,1
0.000411098,4.677511e-05,5,1
0.000463121,8.210535e-05,5,1
0.0004919686,0.0001091703,5,1
0.0005041235,0.0001231079,5,1
0.0005059062,0.0001286181,5,1
0.0004950479,0.0001313732,5,1
0.0004704139,0.000138342,5,1
0.0004318424,0.0001521176,5,1
0.0003769022,0.0001707551,5,1
0.0003127243,0.000190365,5,1
0.0002551911,0.0002099749,5,1
0.0002289366,0.0002281262,5,1
0.0002404432,0.0002388225,5,1
0.0002731804,0.0002376881,5,1
0.0003065659,0.0002232643,5,1
0.0003459477,0.000195389,5,1
0.0004323286,0.0001600588,5,1
0.0005948802,0.0001291043,5,1
0.0007934103,0.0001099806,5,1
0.0009298695,0.0001044704,5,1
0.0009319764,0.0001081979,5,1
0.0008109135,0.0001107909,5,1
0.0006499824,0.0001049566,5,1
0.0005392918,9.231547e-05,5,1
0.0005227611,8.04847e-05,5,1
0.0005882355,7.708133e-05,5,1
0.0006851507,7.756752e-05,5,1
0.0007566215,7.254349e-05,5,1
0.0007597008,6.298164e-05,5,1
0.0006725095,5.747142e-05,5,1
0.0004969927,5.730935e-05,5,1
0.0002581083,5.844381e-05,5,1
-5.085794e-06,5.893001e-05,5,1
-0.0002519113,5.811968e-05,5,1
-0.0004502792,5.439218e-05,5,1
-0.0005843072,4.385793e-05,5,1
-0.0006590193,2.457216e-05,5,1
-0.0006953219,6.744974e-06,5,1
-0.0007168766,3.989864e-06,5,1
-0.0007283832,2.052053e-05,5,1
-0.000722873,4.418206e-05,5,1
-0.0006787913,6.103686e-05,5,1
-0.0005732867,6.46023e-05,5,1
-0.0004115456,5.1475e-05,5,1
-0.0002345703,2.554455e-05,5,1
-0.0001054042,-8.651231e-06,5,1
-7.65566e-05,-4.932962e-05,5,1
-0.0001571031,-9.713889e-05,5,1
-0.0003102548,-0.0001481895,5,1
-0.0004700511,-0.0001955125,5,1
-0.0005693972,-0.0002318152,5,1
-0.0005745832,-0.000253856,5,1
-0.0005000332,-0.0002598524,5,1
-0.0003911253,-0.0002483458,5,1
-0.0002946965,-0.0002204706,5,1
-0.0002295462,-0.00018433,5,1
-0.0001820611,-0.0001499722,5,1
-0.0001282554,-0.0001233935,5,1
-5.176061e-05,-0.0001050801,5,1
4.628891e-05,-9.211487e-05,5,1
0.0001526038,-8.628052e-05,5,1
0.0002386605,-9.000802e-05,5,1
0.0002830664,-0.0001045939,5,1
0.000277232,-0.0001267968,5,1
0.0002231022,-0.0001457585,5,1
0.0001329939,-0.000151917,5,1
3.251336e-05,-0.0001430034,5,1
-5.808115e-05,-0.0001230693,5,1
-0.0001404103,-9.730096e-05,5,1
-0.000224036,-6.861539e-05,5,1
-0.0003131719,-4.090223e-05,5,1
-0.0003966356,-1.67545e-05,5,1
-0.0004525481,5.286387e-06,5,1
-0.0004609755,2.473423e-05,5,1
-0.0004193247,4.320967e-05,5,1
-0.0003489884,6.298164e-05,5,1
-0.0002877277,8.080883e-05,5,1
-0.0002634179,9.150514e-05,5,1
-0.0002805968,9.101894e-05,5,1
-0.0003178718,7.935024e-05,5,1
-0.0003423437,6.298164e-05,5,1
-0.0003261372,4.839576e-05,5,1
-0.0002658489,3.996837e-05,5,1
-0.0001794681,3.98063e-05,5,1
-9.017008e-05,5.390598e-05,5,1
-9.137427e-06,8.210535e-05,5,1
7.157111e-05,0.0001218114,5,1
0.0001649207,0.0001696206,5,1
0.000272208,0.0002196988,5,1
0.000378847,0.0002611876,5,1
0.0004571246,0.0002842008,5,1
0.0004856481,0.0002874421,5,1
0.0004647417,0.0002723701,5,1
0.0004128807,0.0002462775,5,1
0.0003433547,0.0002180782,5,1
0.0002543808,0.0001949028,5,1
0.0001409351,0.0001790204,5,1
1.938607e-05,0.0001649207,5,1
-8.303922e-05,0.0001500107,5,1
-0.0001616409,0.0001334801,5,1
-0.0002327876,0.0001211631,5,1
-0.0003220855,0.0001143563,5,1
-0.0004400691,0.0001094944,5,1
-0.0005702075,0.0001005808,5,1
-0.0006877048,8.891209e-05,5,1
-0.0007828371,8.032264e-05,5,1
-0.0008628974,7.772959e-05,5,1
-0.0009280476,8.097089e-05,5,1
-0.0009591642,8.615699e-05,5,1
-0.0009272373,9.150514e-05,5,1
-0.0008158985,9.960841e-05,5,1
-0.0006288751,0.000108522,5,1
-0.0003801049,0.0001086841,5,1
-9.373552e-05,8.907416e-05,5,1
0.0001840444,4.888196e-05,5,1
0.0003966742,-4.113403e-06,5,1
0.0005114165,-5.775702e-05,5,1
0.0005350781,-0.0001026491,5,1
0.0005084993,-0.0001381414,5,1
0.0004775448,-0.0001665028,5,1
0.0004781931,-0.0001872472,5,1
0.0005292437,-0.0002005366,5,1
0.0006185417,-0.0002063709,5,1
0.0007146465,-0.000206533,5,1
0.0007942207,-0.0002037779,5,1
0.0008528884,-0.0001987538,5,1
0.0008882187,-0.0001874093,5,1
0.0008869221,-0.0001549962,5,1
0.000837168,-8.611845e-05,5,1
0.0007425218,1.614476e-05,5,1
0.0006305345,0.0001261871,5,1
0.0005245438,0.0002096508,5,1
0.0004213082,0.0002365536,5,1
0.0003104554,0.0001983062,5,1
0.0002025199,0.0001124116,5,1
0.0001279698,4.962256e-06,5,1
0.0001081979,-9.778715e-05,5,1
0.0001192183,-0.0001780095,5,1
0.0001143563,-0.0002225774,5,1
5.844381e-05,-0.000226467,5,1
-6.083626e-05,-0.0001921092,5,1
-0.0002220912,-0.000137169,5,1
-0.0003838324,-8.611845e-05,5,1
-0.0005091089,-5.808115e-05,5,1
-0.0005800935,-5.64605e-05,5,1
-0.0005959758,-7.266703e-05,5,1
-0.0005692351,-9.260107e-05,5,1
-0.0005191569,-0.000102325,5,1
-0.0004619479,-9.697683e-05,5,1
-0.0004089525,-8.125649e-05,5,1
-0.00036795,-6.634648e-05,5,1
-0.0003468815,-6.116039e-05,5,1
-0.0003481781,-6.423963e-05,5,1
-0.000370381,-7.023606e-05,5,1
-0.0003980942,-7.380149e-05,5,1
-0.0004152731,-6.829127e-05,5,1
-0.0004159214,-5.240886e-05,5,1
-0.0003982562,-3.004385e-05,5,1
-0.0003674638,-5.734056e-06,5,1
-0.0003348887,1.760335e-05,5,1
-0.0003089583,4.239934e-05,5,1
-0.0002914552,6.816773e-05,5,1
-0.0002737901,9.328786e-05,5,1
-0.0002447804,0.000115977,5,1
-0.0001950263,0.0001338042,5,1
-0.0001135075,0.0001428799,5,1
5.934648e-06,0.0001409351,5,1
0.0001445005,0.0001286181,5,1
0.0002551911,0.0001128978,5,1
0.0002937627,0.0001015532,5,1
0.0002547049,9.782569e-05,5,1
0.0001688103,9.652917e-05,5,1
8.064677e-05,8.729144e-05,5,1
2.667901e-05,6.881599e-05,5,1
2.910999e-05,4.564065e-05,5,1
9.150514e-05,2.424803e-05,5,1
0.0002094887,1.306552e-05,5,1
0.0003726885,1.841368e-05,5,1
0.0005550121,4.272347e-05,5,1
0.0007235601,7.870197e-05,5,1
0.0008509436,0.0001158149,5,1
0.0009214421,0.0001451488,5,1
0.0009321384,0.0001647587,5,1
0.0008851394,0.000173024,5,1
0.0007872519,0.0001662173,5,1
0.0006537099,0.000148228,5,1
0.0005088235,0.0001265113,5,1
0.0003694472,0.0001075496,5,1
0.0002359054,9.442231e-05,5,1
0.0001030118,9.085688e-05,5,1
-2.145439e-05,9.928428e-05,5,1
-0.0001274451,0.0001153287,5,1
-0.0002131776,0.0001279698,5,1
-0.0002877277,0.0001274836,5,1
-0.0003715154,0.0001099806,5,1
-0.0004752372,7.724339e-05,5,1
-0.0005844692,3.397195e-05,5,1
-0.0006653398,-1.432352e-05,5,1
-0.0006799257,-5.905355e-05,5,1
-0.0006018102,-8.352541e-05,5,1
-0.0004366657,-7.914964e-05,5,1
-0.0002297083,-5.386745e-05,5,1
-3.701266e-05,-2.907146e-05,5,1
0.0001039842,-2.664048e-05,5,1
0.0001864754,-5.953974e-05,5,1
0.0002196988,-0.0001237176,5,1
0.0002130541,-0.0002013469,5,1
0.0001736723,-0.0002671454,5,1
0.0001172735,-0.0003037722,5,1
6.330578e-05,-0.0003091203,5,1
3.316162e-05,-0.0002942103,5,1
4.515445e-05,-0.0002705488,5,1
0.0001116012,-0.0002520733,5,1
0.0002265056,-0.0002442942,5,1
0.0003605336,-0.0002428356,5,1
0.0004762483,-0.0002394322,5,1
0.0005452881,-0.0002251705,5,1
0.0005636016,-0.0001974573,5,1
0.0005441537,-0.0001598582,5,1
0.0004986133,-0.0001169109,5,1
0.0004250357,-7.104638e-05,5,1
0.0003171001,-2.712668e-05,5,1
0.0001701068,8.365628e-06,5,1
-1.772689e-05,3.105477e-05,5,1
-0.000241377,4.483033e-05,5,1
-0.0004860956,5.455425e-05,5,1
-0.0007223868,6.670914e-05,5,1
-0.0009060067,7.918817e-05,5,1
-0.0009889842,8.356394e-05,5,1
-0.0009419852,7.643307e-05,5,1
-0.0007710064,6.719535e-05,5,1
-0.0005222362,6.638502e-05,5,1
-0.0002690902,7.659513e-05,5,1
-8.44978e-05,8.972242e-05,5,1
-6.706447e-06,9.182927e-05,5,1
-2.599222e-05,7.756752e-05,5,1
-9.778715e-05,4.72613e-05,5,1
-0.000164396,9.986281e-06,5,1
-0.0001848162,-2.453363e-05,5,1
-0.0001451102,-4.657452e-05,5,1
-6.326724e-05,-5.354332e-05,5,1
3.170304e-05,-4.997789e-05,5,1
0.0001137081,-4.317115e-05,5,1
0.0001582761,-3.830919e-05,5,1
0.000158114,-3.830919e-05,5,1
0.0001321835,-4.203669e-05,5,1
0.0001078737,-4.819517e-05,5,1
0.0001046324,-5.435365e-05,5,1
0.0001260251,-5.791909e-05,5,1
0.0001641104,-5.354332e-05,5,1
0.0002041406,-3.863332e-05,5,1
0.0002342847,-1.480971e-05,5,1
0.0002504913,1.387585e-05,5,1
0.0002540567,4.693717e-05,5,1
0.0002519498,8.502253e-05,5,1
0.0002464396,0.000128456,5,1
0.0002339606,0.0001717275,5,1
0.0002094887,0.0002073819,5,1
0.0001725378,0.0002334744,5,1
0.0001232699,0.0002513016,5,1
5.050261e-05,0.0002642668,5,1
-5.062615e-05,0.0002713977,5,1
-0.0001682856,0.0002666978,5,1
-0.000278652,0.0002438466,5,1
-0.0003588744,0.0001999268,5,1
-0.0003964735,0.000138342,5,1
-0.0003801049,7.157111e-05,5,1
-0.0003225718,1.355172e-05,5,1
-0.000258718,-2.761287e-05,5,1
-0.0002243602,-4.949169e-05,5,1
-0.0002347323,-5.64605e-05,5,1
-0.0002780038,-5.354332e-05,5,1
-0.0003288923,-4.219875e-05,5,1
-0.0003622777,-1.967167e-05,5,1
-0.000362926,1.355172e-05,5,1
-0.0003279199,5.260946e-05,5,1
-0.0002681178,8.923623e-05,5,1
-0.0001971332,0.0001141943,5,1
-0.0001120489,0.0001268354,5,1
4.47606e-06,0.000128294,5,1
0.0001561692,0.0001257009,5,1
0.0003182346,0.0001255389,5,1
0.0004587452,0.0001289422,5,1
0.0005511225,0.0001305629,5,1
0.0005749461,0.0001227837,5,1
0.0005229231,0.0001049566,5,1
0.0004068843,7.935024e-05,5,1
0.0002654013,4.693717e-05,5,1
0.000138342,7.717366e-06,5,1
5.19612e-05,-3.474375e-05,5,1
6.90704e-06,-7.23429e-05,5,1
-1.124428e-05,-9.843541e-05,5,1
-2.258885e-05,-0.0001141558,5,1
-4.754691e-05,-0.0001235555,5,1
-0.0001044318,-0.0001353863,5,1
-0.0001922712,-0.0001553203,5,1
-0.0002899966,-0.0001776853,5,1
-0.0003682741,-0.0001900023,5,1
-0.0004104111,-0.0001810887,5,1
-0.0004128421,-0.0001439758,5,1
-0.0003745947,-9.065628e-05,5,1
-0.000303286,-4.43056e-05,5,1
-0.0002201465,-2.307504e-05,5,1
-0.0001502963,-3.101625e-05,5,1
-0.0001088076,-5.970181e-05,5,1
-9.308726e-05,-9.535618e-05,5,1
-8.336335e-05,-0.0001263107,5,1
-5.840528e-05,-0.0001455964,5,1
-9.137427e-06,-0.000149486,5,1
6.735741e-05,-0.0001361966,5,1
0.0001793446,-0.0001114006,5,1
0.0003320101,-8.40116e-05,5,1
0.0005308643,-6.229485e-05,5,1
0.0007673178,-4.884343e-05,5,1
0.001021761,-4.300908e-05,5,1
0.001241359,-3.571614e-05,5,1
0.001368419,-2.129233e-05,5,1
0.00138106,3.665733e-06,5,1
0.001311048,3.510641e-05,5,1
0.001214619,6.281957e-05,5,1
0.001128238,7.789165e-05,5,1
0.001043639,7.789165e-05,5,1
0.000926142,7.027458e-05,5,1
0.0007525698,6.638502e-05,5,1
0.0005329712,7.772959e-05,5,1
0.000321638,9.912221e-05,5,1
0.0001739964,0.0001185701,5,1
9.798775e-05,0.0001218114,5,1
5.439218e-05,0.000105929,5,1
-8.813297e-06,7.870197e-05,5,1
-0.0001238797,5.390598e-05,5,1
-0.000285945,4.126489e-05,5,1
-0.00046211,4.110282e-05,5,1
-0.0006142893,5.082674e-05,5,1
-0.0007126629,6.751948e-05,5,1
-0.0007408622,8.826383e-05,5,1
-0.0007068285,0.0001078737,5,1
-0.0006397335,0.0001239182,5,1
-0.0005679386,0.0001339663,5,1
-0.0005035987,0.0001391524,5,1
-0.0004476861,0.0001375317,5,1
-0.0003835083,0.0001304008,5,1
-0.0002893484,0.0001216493,5,1
-0.0001468929,0.0001148425,5,1
3.543054e-05,0.0001078737,5,1
0.0002232643,9.912221e-05,5,1
0.0003717161,9.118101e-05,5,1
0.0004488593,8.080883e-05,5,1
0.0004511282,6.573675e-05,5,1
0.0004029947,4.742337e-05,5,1
0.0003276344,3.202716e-05,5,1
0.0002310434,2.246531e-05,5,1
0.0001090082,1.679302e-05,5,1
-3.879538e-05,1.047248e-05,5,1
-0.0002088019,4.244267e-07,5,1
-0.0003919357,-1.25408e-05,5,1
-0.0005663179,-2.777494e-05,5,1
-0.0007048837,-4.300908e-05,5,1
-0.000789806,-5.532604e-05,5,1
-0.00082465,-6.278104e-05,5,1
-0.0008214086,-6.164659e-05,5,1
-0.0007839716,-4.884343e-05,5,1
-0.0007256281,-3.069211e-05,5,1
-0.0006750637,-1.367526e-05,5,1
-0.0006614503,-3.14101e-06,5,1
-0.0006915944,2.04508e-06,5,1
-0.0007439415,6.420843e-06,5,1
-0.000782351,1.209313e-05,5,1
-0.0007812165,1.419998e-05,5,1
-0.0007372968,5.448452e-06,5,1
-0.0006624226,-1.756482e-05,5,1
-0.000571342,-5.013995e-05,5,1
-0.0004833405,-8.757704e-05,5,1
-0.0004191627,-0.0001253383,5,1
-0.0003873979,-0.0001585616,5,1
-0.000380267,-0.000184168,5,1
-0.0003776739,-0.0002002124,5,1
-0.0003632501,-0.0002049123,5,1
-0.0003305129,-0.0002006986,5,1
-0.0002817312,-0.0001911368,5,1
-0.0002186879,-0.0001794681,5,1
-0.0001502963,-0.000171851,5,1
-8.82253e-05,-0.0001708786,5,1
-3.555408e-05,-0.0001780095,5,1
1.160693e-05,-0.0001854645,5,1
5.341979e-05,-0.0001862748,5,1
7.546067e-05,-0.0001775233,5,1
5.633696e-05,-0.0001571031,5,1
-9.461558e-06,-0.0001261486,5,1
-9.973194e-05,-8.676672e-05,5,1
-0.0001778474,-4.300908e-05,5,1
-0.0002250084,-3.858999e-07,5,1
-0.0002415391,3.364782e-05,5,1
-0.0002332737,5.293359e-05,5,1
-0.0001998883,5.52025e-05,5,1
-0.0001358725,4.855783e-05,5,1
-4.349527e-05,4.288554e-05,5,1
5.552663e-05,4.466826e-05,5,1
0.0001274836,5.585077e-05,5,1
0.0001451488,6.962632e-05,5,1
0.0001052807,7.52986e-05,5,1
2.81376e-05,6.703327e-05,5,1
-5.257093e-05,5.131294e-05,5,1
-0.0001031353,3.98063e-05,5,1
-0.0001039456,4.02925e-05,5,1
-4.997789e-05,5.649903e-05,5,1
4.953022e-05,8.696731e-05,5,1
0.0001791825,0.0001237561,5,1
0.0003222862,0.0001561692,5,1
0.0004678209,0.0001788584,5,1
0.0006144901,0.0001906891,5,1
0.0007663454,0.0001906891,5,1
0.0009332729,0.0001819376,5,1
0.001110572,0.0001691344,5,1
0.00127199,0.0001553589,5,1
0.00137636,0.0001396385,5,1
0.001387543,0.0001268354,5,1
0.001290141,0.0001214872,5,1
0.00110328,0.0001232699,5,1
0.0008757396,0.0001281319,5,1
0.0006697544,0.0001352628,5,1
0.0005272989,0.0001446626,5,1
0.0004569625,0.0001524417,5,1
0.0004376768,0.0001548727,5,1
0.0004354078,0.0001504969,5,1
0.0004192013,0.0001445005,5,1
0.0003726885,0.0001394765,5,1
0.0002952213,0.0001352628,5,1
0.0002013854,0.000130887,5,1
0.0001093323,0.0001252147,5,1
3.040651e-05,0.000118408,5,1
-3.587821e-05,0.0001130598,5,1
-9.568031e-05,0.0001116012,5,1
-0.00015451,0.0001161391,5,1
-0.0002088019,0.0001235941,5,1
-0.0002449425,0.0001265113,5,1
-0.0002535319,0.0001174356,5,1
-0.0002321393,9.879808e-05,5,1
-0.00018433,7.52986e-05,5,1
-0.0001238797,5.341979e-05,5,1
-7.995997e-05,3.55926e-05,5,1
-7.65566e-05,1.792748e-05,5,1
-0.0001159385,-3.627206e-06,5,1
-0.0001757406,-3.21507e-05,5,1
-0.0002212809,-6.602235e-05,5,1
-0.0002229016,-9.859748e-05,5,1
-0.0001755785,-0.0001164247,5,1
-0.0001052422,-0.0001143178,5,1
-4.527799e-05,-9.811128e-05,5,1
-1.659243e-05,-7.995997e-05,5,1
-2.064406e-05,-6.926366e-05,5,1
-4.689865e-05,-7.039812e-05,5,1
-7.688073e-05,-8.222889e-05,5,1
-9.341139e-05,-0.0001042698,5,1
-9.19528e-05,-0.0001352242,5,1
-7.995997e-05,-0.0001682856,5,1
-7.104638e-05,-0.0001974573,5,1
-6.667062e-05,-0.000216581,5,1
-5.986387e-05,-0.0002254946,5,1
-3.474375e-05,-0.0002258187,5,1
1.565857e-05,-0.0002219292,5,1
9.507057e-05,-0.000216581,5,1
0.000200413,-0.0002143121,5,1
0.0003080245,-0.0002146363,5,1
0.0003783608,-0.0002157707,5,1
0.000378685,-0.0002191741,5,1
0.0002942489,-0.0002287359,5,1
0.000135911,-0.0002442942,5,1
-5.678463e-05,-0.0002596904,5,1
-0.0002379736,-0.0002673075,5,1
-0.0003762153,-0.0002621213,5,1
-0.0004617858,-0.0002423494,5,1
-0.0005029504,-0.0002126914,5,1
-0.0005092709,-0.0001838438,5,1
-0.0004893369,-0.0001622891,5,1
-0.0004588687,-0.0001462447,5,1
-0.0004413656,-0.0001305243,5,1
-0.0004378002,-0.0001120489,5,1
-0.0004224039,-8.628052e-05,5,1
-0.0003734602,-4.770897e-05,5,1
-0.0003042584,8.041497e-06,5,1
-0.0002546664,7.254349e-05,5,1
-0.0002592042,0.0001304008,5,1
-0.0003190063,0.0001668655,5,1
-0.0003929081,0.0001786963,5,1
-0.0004194868,0.0001767515,5,1
-0.0003585502,0.0001739964,5,1
-0.0002126914,0.0001775618,5,1
-1.983374e-05,0.0001884202,5,1
0.0001725378,0.0001996027,5,1
0.000316776,0.0002054371,5,1
0.0003741471,0.000210299,5,1
0.0003399513,0.000227478,5,1
0.0002534084,0.0002670219,5,1
0.0001743205,0.0003269861,5,1
0.0001441764,0.0003895433,5,1
0.0001722137,0.0004362182,5,1
0.0002480603,0.0004566384,5,1
0.0003574544,0.000455666,5,1
0.0004793275,0.0004365423,5,1
0.0005851563,0.0003984569,5,1
0.0006572754,0.0003435168,5,1
0.0006966573,0.0002759355,5,1
0.0007186982,0.0002034923,5,1
0.0007308531,0.0001346145,5,1
0.000740415,7.870197e-05,5,1
0.0007517595,4.466826e-05,5,1
0.0007639144,3.429608e-05,5,1
0.0007695867,3.867184e-05,5,1
0.0007533802,4.466826e-05,5,1
0.0006955228,4.369587e-05,5,1
0.0005788357,3.283749e-05,5,1
0.0003916502,1.54965e-05,5,1
0.0001380179,-3.627206e-06,5,1
-0.0001556445,-1.853722e-05,5,1
-0.0004410415,-2.809907e-05,5,1
-0.0006593434,-3.312309e-05,5,1
-0.0007512344,-3.539201e-05,5,1
-0.0006917564,-3.798505e-05,5,1
-0.000516888,-4.544006e-05,5,1
-0.0003060411,-5.727083e-05,5,1
-0.0001389517,-6.44017e-05,5,1
-5.69467e-05,-5.727083e-05,5,1
-5.921561e-05,-3.360929e-05,5,1
-0.0001109144,-8.720959e-07,5,1
-0.0001676373,2.619281e-05,5,1
-0.0001958367,3.429608e-05,5,1
-0.0001781716,2.084466e-05,5,1
-0.000107349,-6.706447e-06,5,1
7.23117e-06,-3.944364e-05,5,1
0.0001511452,-7.250496e-05,5,1
0.0003049452,-0.0001036215,5,1
0.0004509661,-0.0001306864,5,1
0.0005661946,-0.0001511067,5,1
0.0006206486,-0.0001671511,5,1
0.0005883976,-0.0001781716,5,1
0.0004647417,-0.0001872472,5,1
0.0002731804,-0.0001982676,5,1
5.585077e-05,-0.0002112329,5,1
-0.0001507825,-0.0002206326,5,1
-0.0003177098,-0.0002232257,5,1
-0.0004363416,-0.0002194982,5,1
-0.0005206155,-0.0002156086,5,1
-0.0005906277,-0.0002133397,5,1
-0.0006463782,-0.0002120432,5,1
-0.0006716604,-0.0002081536,5,1
-0.0006492953,-0.0001959987,5,1
-0.000586414,-0.0001736337,5,1
-0.0005133225,-0.0001425172,5,1
-0.0004569239,-0.0001086455,5,1
-0.0004227281,-8.109443e-05,5,1
-0.0003935563,-6.586029e-05,5,1
-0.000353202,-6.245691e-05,5,1
-0.0003018274,-6.294311e-05,5,1
-0.0002517492,-5.953974e-05,5,1
-0.0002219292,-4.770897e-05,5,1
-0.0002245222,-2.42095e-05,5,1
-0.0002582318,8.851824e-06,5,1
-0.000305879,4.466826e-05,5,1
-0.0003470436,7.772959e-05,5,1
-0.0003713534,0.0001069013,5,1
-0.0003804291,0.0001326697,5,1
-0.0003815635,0.0001529279,5,1
-0.0003796187,0.0001563313,5,1
-0.0003747568,0.00013818,5,1
-0.0003570916,0.0001073875,5,1
-0.0003193304,8.032264e-05,5,1
-0.000266011,6.703327e-05,5,1
-0.0002128535,7.108491e-05,5,1
-0.0001770371,8.437427e-05,5,1
-0.0001588858,0.0001009049,5,1
-0.0001472171,0.0001188942,5,1
-0.0001289037,0.0001378558,5,1
-9.616651e-05,0.0001529279,5,1
-5.921561e-05,0.0001595726,5,1
-3.587821e-05,0.000155521,5,1
-3.652646e-05,0.0001388282,5,1
-6.06742e-05,0.0001124116,5,1
-0.000102325,8.291568e-05,5,1
-0.0001525652,5.455425e-05,5,1
-0.0002049123,2.667901e-05,5,1
-0.0002559629,5.86492e-07,5,1
-0.0003039342,-1.853722e-05,5,1
-0.0003449367,-2.761287e-05,5,1
-0.000370381,-2.599222e-05,5,1
-0.0003685983,-1.383732e-05,5,1
-0.0003300267,8.041497e-06,5,1
-0.0002468872,3.040651e-05,5,1
-0.0001276072,4.402e-05,5,1
-2.81688e-06,5.017848e-05,5,1
9.571884e-05,6.03886e-05,5,1
0.0001574657,8.777764e-05,5,1
0.0001937684,0.000138342,5,1
0.0002132162,0.0002051129,5,1
0.0002086784,0.0002644289,5,1
0.0001726999,0.0002897111,5,1
0.0001094944,0.0002726942,5,1
4.77475e-05,0.0002182402,5,1
1.193106e-05,0.0001410971,5,1
9.66215e-06,5.974033e-05,5,1
3.202716e-05,-9.461558e-06,5,1
6.849186e-05,-5.289507e-05,5,1
0.0001190562,-6.958779e-05,5,1
0.0001892305,-7.023606e-05,5,1
0.0002791768,-6.521203e-05,5,1
0.0003749574,-6.099833e-05,5,1
0.0004469145,-5.986387e-05,5,1
0.0004700898,-6.164659e-05,5,1
0.000433301,-6.634648e-05,5,1
0.0003404375,-7.720486e-05,5,1
0.0002132162,-9.065628e-05,5,1
7.448828e-05,-0.0001028112,5,1
-5.111234e-05,-0.0001125351,5,1
-0.0001387897,-0.0001203142,5,1
-0.0001660166,-0.0001279313,5,1
-0.00012469,-0.0001384655,5,1
-3.166451e-05,-0.0001540238,5,1
7.286763e-05,-0.0001697442,5,1
0.0001464453,-0.0001799543,5,1
0.0001652449,-0.0001831956,5,1
0.0001376938,-0.0001802784,5,1
8.761557e-05,-0.000174282,5,1
4.645098e-05,-0.0001658546,5,1
3.445814e-05,-0.0001549962,5,1
5.406805e-05,-0.0001434896,5,1
9.928428e-05,-0.0001361966,5,1
0.0001561692,-0.0001376552,5,1
0.0002031682,-0.0001415448,5,1
0.0002096508,-0.0001400862,5,1
0.0001597346,-0.0001253383,5,1
7.983644e-05,-9.29252e-05,5,1
2.035846e-05,-4.932962e-05,5,1
1.403791e-05,-8.813297e-06,5,1
7.432621e-05,1.727922e-05,5,1
0.0001976579,2.262738e-05,5,1
0.0003704196,9.824215e-06,5,1
0.0005786736,-1.464765e-05,5,1
0.0008139926,-4.511593e-05,5,1
0.001065194,-7.218083e-05,5,1
0.001306834,-8.757704e-05,5,1
0.001494344,-8.871149e-05,5,1
0.00157408,-8.271508e-05,5,1
0.001508444,-7.477388e-05,5,1
0.001287386,-6.197072e-05,5,1
0.0009405658,-3.895745e-05,5,1
0.000537509,-8.327101e-06,5,1
0.0001688103,2.34377e-05,5,1
-0.0001002181,5.050261e-05,5,1
-0.0002528836,7.092284e-05,5,1
-0.0003138202,8.875003e-05,5,1
-0.0003285682,0.0001070634,5,1
-0.0003366714,0.0001292664,5,1
-0.0003426678,0.0001566554,5,1
-0.0003215994,0.0001858272,5,1
-0.0002433218,0.0002094887,5,1
-9.827335e-05,0.0002245608,5,1
8.226741e-05,0.0002316917,5,1
0.0002461155,0.000227478,5,1
0.0003508097,0.0002162954,5,1
0.0003859779,0.0002055991,5,1
0.0003717161,0.0001947408,5,1
0.0003394651,0.0001843686,5,1
0.0003112658,0.0001748067,5,1
0.0002955454,0.0001720516,5,1
0.0002850112,0.0001765894,5,1
0.0002662116,0.0001858272,5,1
0.0002386605,0.0001934442,5,1
0.00019782,0.0001968476,5,1
0.0001331559,0.0001965235,5,1
3.089271e-05,0.0001910133,5,1
-0.0001037836,0.0001795066,5,1
-0.0002455907,0.0001611932,5,1
-0.0003749188,0.0001370455,5,1
-0.0004869059,0.0001093323,5,1
-0.0005958138,8.615699e-05,5,1
-0.0007066664,7.465034e-05,5,1
-0.0007927231,7.043665e-05,5,1
-0.0007954782,6.233338e-05,5,1
-0.0006640433,4.337174e-05,5,1
-0.0004055492,1.452411e-05,5,1
-9.875954e-05,-1.62683e-05,5,1
0.0001684862,-4.414354e-05,5,1
0.000346596,-6.294311e-05,5,1
0.0004342734,-7.526008e-05,5,1
0.0004521006,-8.465986e-05,5,1
0.0004256839,-9.470791e-05,5,1
0.0003726885,-0.000107349,5,1
0.0002926282,-0.0001225832,5,1
0.0001809652,-0.0001404103,5,1
4.596478e-05,-0.0001580754,5,1
-8.838737e-05,-0.0001673132,5,1
-0.0001849783,-0.0001653684,5,1
-0.0002220912,-0.0001525652,5,1
-0.000201509,-0.000127283,5,1
-0.0001605064,-9.486997e-05,5,1
-0.0001517549,-6.764301e-05,5,1
-0.0002010227,-5.824322e-05,5,1
-0.0002924276,-6.569822e-05,5,1
-0.0003888564,-8.174268e-05,5,1
-0.000469727,-0.0001016767,5,1
-0.0005363359,-0.0001253383,5,1
-0.0006050515,-0.0001541859,5,1
-0.0006867325,-0.0001883817,5,1
-0.0007784614,-0.0002230636,5,1
-0.0008504183,-0.0002491561,5,1
-0.0008740799,-0.0002558008,5,1
-0.0008403703,-0.0002431597,5,1
-0.0007611204,-0.0002185258,5,1
-0.0006638812,-0.0001932436,5,1
-0.0005781487,-0.0001741199,5,1
-0.0005283947,-0.0001658546,5,1
-0.0005228845,-0.0001661787,5,1
-0.0005510838,-0.0001645581,5,1
-0.0005875485,-0.0001467309,5,1
-0.0006058619,-0.0001055663,5,1
-0.0005946793,-4.106429e-05,5,1
-0.000554001,4.077869e-05,5,1
-0.0004901472,0.0001250527,5,1
-0.0004141386,0.0001931201,5,1
-0.0003412093,0.0002341226,5,1
-0.0002796244,0.0002503292,5,1
-0.0002310048,0.0002530843,5,1
-0.0001953505,0.0002527602,5,1
-0.0001757406,0.0002576221,5,1
-0.0001752544,0.0002681563,5,1
-0.0001788198,0.0002819319,5,1
-0.0001564548,0.0002913317,5,1
-8.174268e-05,0.0002892249,5,1
5.585077e-05,0.0002710735,5,1
0.0002584324,0.0002378501,5,1
0.000512713,0.0001971717,5,1
0.0007741245,0.0001633001,5,1
0.0009741134,0.000145635,5,1
0.001056605,0.0001430419,5,1
0.00100912,0.0001462832,5,1
0.0008559676,0.0001469315,5,1
0.000646417,0.0001461212,5,1
0.0004196875,0.0001477418,5,1
0.0002012234,0.0001516314,5,1
1.241726e-05,0.0001558451,5,1
-0.0001324691,0.0001574657,5,1
-0.0002292221,0.0001563313,5,1
-0.0002828657,0.0001495245,5,1
-0.0003073376,0.0001344524,5,1
-0.0003217614,0.0001106288,5,1
-0.00033813,8.372601e-05,5,1
-0.0003549848,6.055066e-05,5,1
-0.0003647087,4.564065e-05,5,1
-0.0003501228,3.98063e-05,5,1
-0.0002929138,4.094075e-05,5,1
-0.0001844921,4.628891e-05,5,1
-3.652646e-05,5.260946e-05,5,1
0.0001125736,5.682316e-05,5,1
0.0002232643,5.455425e-05,5,1
0.0002759355,4.758544e-05,5,1
0.0002793389,3.60788e-05,5,1
0.0002503292,2.246531e-05,5,1
0.0001979821,9.338019e-06,5,1
0.0001224596,1.002961e-07,5,1
2.651694e-05,-3.789272e-06,5,1
-7.542214e-05,-3.14101e-06,5,1
-0.000166989,-2.492749e-06,5,1
-0.0002337599,-9.461558e-06,5,1
-0.0002507768,-2.680255e-05,5,1
-0.0001927574,-5.32192e-05,5,1
-6.521203e-05,-8.611845e-05,5,1
8.518459e-05,-0.0001191798,5,1
0.0001889064,-0.0001442999,5,1
0.0002023578,-0.0001616409,5,1
0.000130887,-0.0001726613,5,1
2.522042e-05,-0.0001830335,5,1
-5.030202e-05,-0.0001969711,5,1
-5.613637e-05,-0.0002156086,5,1
1.063454e-05,-0.0002415391,5,1
0.0001304008,-0.0002718453,5,1
0.0002793389,-0.0002948586,5,1
0.0004386491,-0.0002982619,5,1
0.0005817529,-0.0002801106,5,1
0.0006802886,-0.0002481838,5,1
0.0007125397,-0.0002156086,5,1
0.0006903367,-0.0001938919,5,1
0.0006520892,-0.0001846542,5,1
0.0006363689,-0.0001818991,5,1
0.0006610029,-0.000176713,5,1
0.0007246946,-0.0001630995,5,1
0.0008138306,-0.0001418689,5,1
0.0009086389,-0.0001212866,5,1
0.0009919406,-0.000107349,5,1
0.001053201,-0.0001054042,5,1
0.00108529,-0.0001165867,5,1
0.001072811,-0.0001316588,5,1
0.0009985853,-0.0001376552,5,1
0.0008577504,-0.0001263107,5,1
0.0006592202,-9.681477e-05,5,1
0.0004192013,-5.402952e-05,5,1
0.0001595726,-7.354709e-06,5,1
-8.984595e-05,2.959619e-05,5,1
-0.0003002067,4.661304e-05,5,1
-0.0004441207,4.709924e-05,5,1
-0.0005052193,4.061663e-05,5,1
-0.0004954954,3.462021e-05,5,1
-0.0004468758,3.202716e-05,5,1
-0.0003971218,3.364782e-05,5,1
-0.0003757291,3.964424e-05,5,1
-0.0003993907,4.709924e-05,5,1
-0.0004739407,5.633696e-05,5,1
-0.0005836589,6.816773e-05,5,1
-0.0006928909,7.967438e-05,5,1
-0.0007643617,8.972242e-05,5,1
-0.0007820268,9.766362e-05,5,1
-0.0007530171,0.0001004187,5,1
-0.0007034251,9.490851e-05,5,1
-0.0006565883,8.323981e-05,5,1
-0.0006209339,6.557468e-05,5,1
-0.0005883588,4.256141e-05,5,1
-0.0005483287,2.246531e-05,5,1
-0.00048723,1.841368e-05,5,1
-0.0003898288,3.672706e-05,5,1
-0.0002549905,6.865393e-05,5,1
-9.875954e-05,9.571884e-05,5,1
6.006447e-05,0.0001067393,5,1
0.0002085163,0.0001041462,5,1
0.0003451374,9.977047e-05,5,1
0.0004615004,0.0001072255,5,1
0.0005446399,0.0001339663,5,1
0.0005806184,0.0001812893,5,1
0.0005626292,0.0002389846,5,1
0.0005029891,0.0002867939,5,1
0.0004192013,0.0003078624,5,1
0.0003187208,0.0003013798,5,1
0.0001976579,0.0002741528,5,1
6.087479e-05,0.0002427121,5,1
-7.526008e-05,0.0002208333,5,1
-0.0001822232,0.0002148369,5,1
-0.000238784,0.0002242366,5,1
-0.0002499665,0.0002472499,5,1
-0.0002467252,0.0002780424,5,1
-0.0002579077,0.0003088348,5,1
-0.0002985861,0.0003227724,5,1
-0.0003734602,0.0003083486,5,1
-0.0004792889,0.000259891,5,1
-0.0006055377,0.0001897167,5,1
-0.0007416725,0.0001188942,5,1
-0.0008697041,6.427817e-05,5,1
-0.000978612,2.862379e-05,5,1
-0.001066289,6.258778e-06,5,1
-0.001124795,-1.124428e-05,5,1
-0.001139705,-3.053005e-05,5,1
-0.001090113,-5.500191e-05,5,1
-0.0009461989,-8.222889e-05,5,1
-0.0006966184,-0.0001128592,5,1
-0.0003763774,-0.0001511067,5,1
-4.770897e-05,-0.0001982676,5,1
0.0002271538,-0.0002515871,5,1
0.0004073705,-0.0003006929,5,1
0.0004809482,-0.000335537,5,1
0.0004660382,-0.0003457471,5,1
0.000406074,-0.0003209511,5,1
0.0003409237,-0.0002632558,5,1
0.0002914938,-0.0001857886,5,1
0.0002626462,-0.0001138316,5,1
0.0002487085,-6.893953e-05,5,1
0.0002410915,-5.840528e-05,5,1
0.0002334744,-7.60704e-05,5,1
0.0002289366,-0.0001076731,5,1
0.0002412535,-0.0001394379,5,1
0.000282256,-0.0001645581,5,1
0.0003452995,-0.0001859507,5,1
0.000413529,-0.0002096122,5,1
0.0004791655,-0.0002345703,5,1
0.000547233,-0.0002543422,5,1
0.0006405826,-0.0002616352,5,1
0.0007738004,-0.0002566112,5,1
0.0009258178,-0.0002418632,5,1
0.001054822,-0.0002241981,5,1
0.001128724,-0.0002070192,5,1
0.001139096,-0.0001901644,5,1
0.001100849,-0.0001715269,5,1
0.001035536,-0.0001486757,5,1
0.0009595275,-0.0001188556,5,1
0.0008814119,-8.368748e-05,5,1
0.0008013516,-4.414354e-05,5,1
0.0007096225,-3.14101e-06,5,1
0.0006099523,3.996837e-05,5,1
0.0005031512,8.388807e-05,5,1
0.000391164,0.0001232699,5,1
0.0002749631,0.0001526038,5,1
0.0001493625,0.0001670276,5,1
6.582909e-06,0.0001652449,5,1
-0.0001527273,0.0001529279,5,1
-0.0003092824,0.0001406109,5,1
-0.0004293727,0.0001313732,5,1
-0.0004839888,0.0001261871,5,1
-0.0004638926,0.0001286181,5,1
-0.0003961493,0.0001423936,5,1
-0.000333268,0.0001662173,5,1
-0.000318196,0.0001916615,5,1
-0.0003588744,0.0002133783,5,1
-0.0004296969,0.0002243987,5,1
-0.0004954954,0.0002237505,5,1
-0.0005230465,0.0002117576,5,1
-0.000489661,0.0001923098,5,1
-0.0003891806,0.0001726999,5,1
-0.0002520733,0.0001616794,5,1
-0.0001326312,0.0001637863,5,1
-6.861539e-05,0.0001816135,5,1
-6.504996e-05,0.0002141886,5,1
-9.632857e-05,0.000249843,5,1
-0.0001332795,0.0002778803,5,1
-0.0001562927,0.0002926282,5,1
-0.0001606685,0.0002906835,5,1
-0.0001512687,0.0002694529,5,1
-0.0001378173,0.0002299089,5,1
-0.0001417068,0.0001785342,5,1
-0.0001853024,0.0001274836,5,1
-0.0002718453,8.664318e-05,5,1
-0.000385291,6.217132e-05,5,1
-0.0004935506,5.179914e-05,5,1
-0.000561456,4.855783e-05,5,1
-0.0005729626,4.693717e-05,5,1
-0.0005330946,4.369587e-05,5,1
-0.0004486585,3.883391e-05,5,1
-0.0003271096,3.267542e-05,5,1
-0.000189192,1.987227e-05,5,1
-7.137051e-05,-3.465141e-06,5,1
-3.627206e-06,-4.122636e-05,5,1
1.063454e-05,-9.19528e-05,5,1
-1.520357e-06,-0.0001447861,5,1
5.86492e-07,-0.0001883817,5,1
4.110282e-05,-0.0002172293,5,1
0.00010366,-0.0002300324,5,1
0.0001428799,-0.0002331117,5,1
0.0001182459,-0.0002334358,5,1
1.22552e-05,-0.0002352185,5,1
-0.0001588858,-0.0002373254,5,1
-0.000355633,-0.0002316531,5,1
-0.0005343911,-0.0002206326,5,1
-0.000660802,-0.0002122053,5,1
-0.0007231971,-0.0002088019,5,1
-0.0007248178,-0.0002099363,5,1
-0.000678143,-0.0002144742,5,1
-0.0006053757,-0.0002182017,5,1
-0.0005353634,-0.0002123673,5,1
-0.0004935506,-0.0001895161,5,1
-0.0004997091,-0.0001524032,5,1
-0.0005525423,-0.0001135075,5,1
-0.0006217443,-8.417367e-05,5,1
-0.000668257,-6.81292e-05,5,1
-0.0006692294,-6.035007e-05,5,1
-0.0006206098,-5.69467e-05,5,1
-0.0005261258,-5.548811e-05,5,1
-0.0003929081,-5.095028e-05,5,1
-0.0002323013,-3.604027e-05,5,1
-5.970181e-05,-7.678839e-06,5,1
0.00010366,3.316162e-05,5,1
0.0002406053,7.740546e-05,5,1
0.0003469201,0.0001164632,5,1
0.0004401077,0.0001423936,5,1
0.0005482053,0.0001524417,5,1
0.0006875816,0.000150659,5,1
0.0008525642,0.0001425557,5,1
0.001022895,0.0001344524,5,1
0.001174751,0.0001242423,5,1
0.001294031,0.000111115,5,1
0.001377495,9.766362e-05,5,1
0.001424818,8.502253e-05,5,1
0.00142498,7.740546e-05,5,1
0.001360802,7.886404e-05,5,1
0.001213808,9.134307e-05,5,1
0.0009940475,0.0001086841,5,1
0.0007462493,0.0001193804,5,1
0.0005193577,0.0001175977,5,1
0.0003467581,0.0001017153,5,1
0.0002401191,7.497447e-05,5,1
0.0002043026,4.580272e-05,5,1
0.0002368777,2.473423e-05,5,1
0.0003263378,1.873781e-05,5,1
0.0004415663,2.586868e-05,5,1
0.0005405883,3.494434e-05,5,1
0.0005896941,3.737532e-05,5,1
0.0005864528,3.510641e-05,5,1
0.0005485295,3.235129e-05,5,1
0.0004943996,3.316162e-05,5,1
0.0004263322,3.624086e-05,5,1
0.0003378445,4.256141e-05,5,1
0.0002219677,5.212327e-05,5,1
8.988449e-05,6.687121e-05,5,1
-4.462973e-05,8.615699e-05,5,1
-0.0001831956,0.0001044704,5,1
-0.000333268,0.0001143563,5,1
-0.0004930644,0.0001088461,5,1
-0.0006428128,9.150514e-05,5,1
-0.0007458862,7.513654e-05,5,1
-0.0007761925,6.735741e-05,5,1
-0.0007351899,6.930219e-05,5,1
-0.0006577228,7.52986e-05,5,1
-0.0006001896,8.242948e-05,5,1
-0.0006134789,9.199134e-05,5,1
-0.0007231971,0.0001041462,5,1
-0.0009233478,0.0001185701,5,1
-0.001170173,0.0001342904,5,1
-0.001395444,0.0001495245,5,1
-0.001534658,0.0001618415,5,1
-0.001558158,0.000168,5,1
-0.001472425,0.0001641104,5,1
-0.001311008,0.0001477418,5,1
-0.001108102,0.0001150046,5,1
-0.0008949863,6.346784e-05,5,1
-0.0007094215,-2.006553e-06,5,1
-0.0005836589,-7.007399e-05,5,1
-0.0005152673,-0.0001306864,5,1
-0.0004630823,-0.0001760647,5,1
-0.000370381,-0.0002063709,5,1
-0.0002112329,-0.0002280877,5,1
-2.330684e-06,-0.000251101,5,1
0.0002167816,-0.0002812451,5,1
0.0004117463,-0.0003185201,5,1
0.0005661946,-0.0003585502,5,1
0.000681261,-0.0003945287,5,1
0.0007679661,-0.0004198109,5,1
0.0008355473,-0.0004290486,5,1
0.0008930806,-0.0004235384,5,1
0.0009538552,-0.0004083043,5,1
0.001023705,-0.0003849669,5,1
0.001101335,-0.0003517435,5,1
0.001177506,-0.0003100927,5,1
0.001234229,-0.0002624455,5,1
0.001248166,-0.0002130156,5,1
0.001204895,-0.0001723372,5,1
0.001111869,-0.0001477033,5,1
0.0009937233,-0.0001349001,5,1
0.0008723363,-0.0001173971,5,1
0.0007587284,-7.947377e-05,5,1
0.0006520892,-1.691656e-05,5,1
0.0005426951,5.974033e-05,5,1
0.0004287631,0.0001279698,5,1
0.0003086727,0.0001697827,5,1
0.0001827479,0.00018291,5,1
5.795762e-05,0.000175455,5,1
-5.030202e-05,0.0001582761,5,1
-0.0001276072,0.0001394765,5,1
-0.0001686097,0.0001218114,5,1
-0.0001765509,0.0001043083,5,1
-0.0001524032,8.761557e-05,5,1
-0.0001003802,7.546067e-05,5,1
-3.555408e-05,7.011252e-05,5,1
2.197911e-05,6.978839e-05,5,1
5.601284e-05,6.849186e-05,5,1
6.41161e-05,6.200925e-05,5,1
4.985435e-05,5.341979e-05,5,1
1.857574e-05,4.839576e-05,5,1
-1.335113e-05,5.309566e-05,5,1
-3.101625e-05,6.751948e-05,5,1
-4.997789e-05,9.231547e-05,5,1
-0.00010978,0.0001224596,5,1
-0.0002340841,0.0001519555,5,1
-0.000400201,0.0001769136,5,1
-0.0005564319,0.0001983062,5,1
-0.0006609641,0.0002198609,5,1
-0.0007018045,0.000247412,5,1
-0.0006966184,0.0002833905,5,1
-0.0006771705,0.0003237448,5,1
-0.0006538332,0.000356644,5,1
-0.0005959758,0.0003754436,5,1
-0.0004663236,0.0003803056,5,1
-0.0002689281,0.0003696093,5,1
-6.326724e-05,0.0003412479,5,1
7.821578e-05,0.000294573,5,1
0.0001158149,0.0002326641,5,1
6.78436e-05,0.0001608691,5,1
-2.064406e-05,8.648112e-05,5,1
-0.0001062146,2.327564e-05,5,1
-0.0001647201,-1.659243e-05,5,1
-0.0001979435,-2.7937e-05,5,1
-0.0002248464,-1.578211e-05,5,1
-0.0002548284,7.069105e-06,5,1
-0.0002838381,2.408596e-05,5,1
-0.0002979378,2.34377e-05,5,1
-0.0002776796,4.151929e-06,5,1
-0.0002075054,-2.728874e-05,5,1
-8.579432e-05,-6.359137e-05,5,1
6.881599e-05,-9.162867e-05,5,1
0.0002290986,-0.000104918,5,1
0.0003681507,-0.0001034594,5,1
0.0004644175,-9.130454e-05,5,1
0.0004955341,-8.02841e-05,5,1
0.0004587452,-7.947377e-05,5,1
0.0003731747,-9.000802e-05,5,1
0.00027707,-0.0001084835,5,1
0.0002021958,-0.0001282554,5,1
0.0001715654,-0.0001421931,5,1
0.0001900409,-0.0001454344,5,1
0.0002359054,-0.0001387897,5,1
0.0002710735,-0.0001308485,5,1
0.0002577842,-0.0001266348,5,1
0.000173024,-0.0001212866,5,1
1.54965e-05,-0.0001096179,5,1
-0.0001929195,-9.130454e-05,5,1
-0.0004198109,-7.23429e-05,5,1
-0.0006338991,-5.743289e-05,5,1
-0.0008019609,-4.673658e-05,5,1
-0.0008946622,-3.68506e-05,5,1
-0.000901631,-2.89094e-05,5,1
-0.0008410186,-2.761287e-05,5,1
-0.000742969,-3.198864e-05,5,1
-0.0006301716,-3.198864e-05,5,1
-0.000516888,-2.015787e-05,5,1
-0.0004170558,1.883015e-06,5,1
-0.0003361852,2.522042e-05,5,1
-0.0002737901,3.656499e-05,5,1
-0.0002251705,2.878586e-05,5,1
-0.0001778474,3.989864e-06,5,1
-0.0001261486,-2.291298e-05,5,1
-7.039812e-05,-3.587821e-05,5,1
-1.578211e-05,-3.279896e-05,5,1
3.235129e-05,-2.226472e-05,5,1
8.275361e-05,-1.140634e-05,5,1
0.0001509831,-2.81688e-06,5,1
0.0002410915,9.66215e-06,5,1
0.0003344411,3.13789e-05,5,1
0.000391164,6.298164e-05,5,1
0.0003798194,9.701536e-05,5,1
0.0002973281,0.0001213252,5,1
0.000170593,0.0001242423,5,1
3.299956e-05,0.000105929,5,1
-8.984595e-05,8.259155e-05,5,1
-0.0001844921,7.30297e-05,5,1
-0.0002494803,8.583286e-05,5,1
-0.0003011791,0.0001114392,5,1
-0.0003608192,0.0001248906,5,1
-0.0004384484,0.0001094944,5,1
-0.0005133225,6.735741e-05,5,1
-0.0005475183,1.079661e-05,5,1
-0.0005136467,-4.462973e-05,5,1
-0.0004083043,-8.40116e-05,5,1
-0.0002556388,-9.827335e-05,5,1
-8.368748e-05,-9.098041e-05,5,1
9.523264e-05,-7.33153e-05,5,1
0.0002803113,-5.743289e-05,5,1
0.0004668485,-4.932962e-05,5,1
0.0006426895,-4.85193e-05,5,1
0.0007901691,-4.884343e-05,5,1
0.000898915,-4.608832e-05,5,1
0.000973303,-3.604027e-05,5,1
0.00101933,-1.270286e-05,5,1
0.001048177,2.959619e-05,5,1
0.001061143,9.199134e-05,5,1
0.00104056,0.0001620036,5,1
0.0009664963,0.0002195368,5,1
0.0008217718,0.000252274,5,1
0.000609466,0.0002592428,5,1
0.0003670162,0.000252436,5,1
0.0001492004,0.0002433604,5,1
-4.599598e-06,0.0002407673,5,1
-8.838737e-05,0.000247412,5,1
-0.0001243659,0.0002631324,5,1
-0.0001441378,0.0002809595,5,1
-0.0001731475,0.0002848491,5,1
-0.0002186879,0.000259891,5,1
-0.0002747625,0.0002007372,5,1
-0.0003352128,0.0001167873,5,1
-0.0004042526,2.505836e-05,5,1
-0.0004937127,-5.22468e-05,5,1
-0.0006016482,-0.000102325,5,1
-0.0006993735,-0.0001255003,5,1
-0.0007360002,-0.000134738,5,1
-0.0006710121,-0.000144624,5,1
-0.0005068399,-0.0001634236,5,1
-0.0002932379,-0.0001895161,5,1
-0.0001008664,-0.0002183637,5,1
3.818565e-05,-0.0002465631,5,1
0.000165569,-0.0002647144,5,1
0.0003563199,-0.0002605007,5,1
0.0006387999,-0.0002263049,5,1
0.0009720065,-0.0001690959,5,1
0.001286576,-0.0001076731,5,1
0.001527405,-6.553616e-05,5,1
0.001664027,-5.775702e-05,5,1
0.00167764,-8.07703e-05,5,1
0.001555767,-0.000117235,5,1
0.001305537,-0.0001475412,5,1
0.000970548,-0.000161965,5,1
0.0006212969,-0.0001611547,5,1
0.000319207,-0.0001533756,5,1
9.896015e-05,-0.0001481895,5,1
-3.749886e-05,-0.0001548341,5,1
-0.0001102662,-0.0001759026,5,1
-0.0001481895,-0.0002049123,5,1
-0.0001775233,-0.0002277635,5,1
-0.0002037779,-0.0002282497,5,1
-0.0002276015,-0.0002005366,5,1
-0.0002582318,-0.0001538618,5,1
-0.0003120375,-0.000104918,5,1
-0.0003995528,-6.683268e-05,5,1
-0.0005131605,-4.187462e-05,5,1
-0.0006280648,-2.647842e-05,5,1
-0.0007126629,-1.62683e-05,5,1
-0.0007536653,-9.299493e-06,5,1
-0.0007513965,-8.327101e-06,5,1
-0.0007082871,-1.821308e-05,5,1
-0.0006222305,-3.652646e-05,5,1
-0.0005050572,-5.419158e-05,5,1
-0.0004010113,-6.0188e-05,5,1
-0.0003515814,-4.641245e-05,5,1
-0.0003621157,-1.545797e-05,5,1
-0.0004113835,2.214118e-05,5,1
-0.0004685925,5.61749e-05,5,1
-0.0005016539,7.821578e-05,5,1
-0.0004878783,8.648112e-05,5,1
-0.0004235384,8.275361e-05,5,1
-0.0003245165,7.6271e-05,5,1
-0.0002212809,7.708133e-05,5,1
-0.0001344139,8.79397e-05,5,1
-6.245691e-05,0.0001047945,5,1
8.689758e-06,0.0001240803,5,1
7.416415e-05,0.0001438522,5,1
0.0001039842,0.0001637863,5,1
7.448828e-05,0.0001822617,5,1
-6.706447e-06,0.0002046267,5,1
-0.0001083214,0.0002323399,5,1
-0.0002081536,0.0002600531,5,1
-0.0003013411,0.0002757735,5,1
-0.0003838324,0.0002730183,5,1
-0.000444931,0.0002542187,5,1
-0.0004724821,0.0002263435,5,1
-0.0004588687,0.00019782,5,1
-0.0004029561,0.000178048,5,1
-0.0003062031,0.0001665414,5,1
-0.0001802784,0.0001577899,5,1
-4.38194e-05,0.0001501728,5,1
8.242948e-05,0.0001396385,5,1
0.0001838824,0.0001192183,5,1
0.0002475741,8.372601e-05,5,1
0.0002691288,3.818565e-05,5,1
0.0002511395,-8.165035e-06,5,1
0.000185503,-4.657452e-05,5,1
5.811968e-05,-7.461182e-05,5,1
-0.0001290658,-9.357346e-05,5,1
-0.0003395886,-0.0001029732,5,1
-0.0005115399,-0.0001032974,5,1
-0.0005872243,-9.519411e-05,5,1
-0.0005497872,-8.060823e-05,5,1
-0.0004335865,-6.342931e-05,5,1
-0.0003018274,-4.625038e-05,5,1
-0.0002100984,-3.328516e-05,5,1
-0.0001810887,-3.020592e-05,5,1
-0.0002045882,-4.495386e-05,5,1
-0.0002444563,-7.60704e-05,5,1
-0.0002601766,-0.0001110765,5,1
-0.0002301945,-0.0001394379,5,1
-0.0001410586,-0.0001567789,5,1
2.505836e-05,-0.0001622891,5,1
0.0002728562,-0.0001549962,5,1
0.0005726772,-0.0001368449,5,1
0.0008673123,-0.0001125351,5,1
0.001104414,-8.628052e-05,5,1
0.001250759,-6.180866e-05,5,1
0.001290465,-4.090223e-05,5,1
0.00122256,-2.129233e-05,5,1
0.001070218,1.002961e-07,5,1
0.0008699053,2.408596e-05,5,1
0.0006579236,4.515445e-05,5,1
0.0004678209,5.552663e-05,5,1
0.0003264999,5.115087e-05,5,1
0.0002488706,3.543054e-05,5,1
0.0002337985,1.160693e-05,5,1
0.0002555152,-1.772689e-05,5,1
0.0002720459,-4.997789e-05,5,1
0.0002543808,-8.384954e-05,5,1
0.0002104611,-0.0001157764,5,1
0.0001728619,-0.0001387897,5,1
0.0001731861,-0.0001462447,5,1
0.0002086784,-0.0001387897,5,1
0.0002525981,-0.0001230693,5,1
0.0002696149,-0.0001054042,5,1
0.0002321778,-8.919769e-05,5,1
0.0001338042,-7.347736e-05,5,1
-3.14101e-06,-5.516398e-05,5,1
-0.0001374932,-3.377136e-05,5,1
-0.0002348944,-1.075808e-05,5,1
-0.0002968033,1.419998e-05,5,1
-0.0003481781,3.93201e-05,5,1
-0.0004039285,6.83298e-05,5,1
-0.0004588687,0.000111115,5,1
-0.0005006815,0.0001639484,5,1
-0.0005259637,0.0002187264,5,1
-0.0005497872,0.0002632944,5,1
-0.0005906277,0.0002869559,5,1
-0.0006523746,0.0002892249,5,1
-0.0007181731,0.0002739907,5,1
-0.0007687375,0.0002457913,5,1
-0.0008034194,0.0002107852,5,1
-0.000827243,0.0001790204,5,1
-0.0008262706,0.0001563313,5,1
-0.0007706822,0.000138342,5,1
-0.0006525366,0.0001188942,5,1
-0.0004974402,9.814982e-05,5,1
-0.0003449367,8.437427e-05,5,1
-0.0002250084,8.016057e-05,5,1
-0.0001504584,8.453633e-05,5,1
-0.0001212866,8.923623e-05,5,1
-0.0001261486,8.583286e-05,5,1
-0.0001558065,7.270556e-05,5,1
-0.0002036158,5.406805e-05,5,1
-0.0002561249,4.191315e-05,5,1
-0.0002823795,4.402e-05,5,1
-0.0002658489,5.552663e-05,5,1
-0.0002028055,6.800567e-05,5,1
-9.908367e-05,7.027458e-05,5,1
2.651694e-05,5.811968e-05,5,1
0.0001438522,3.769945e-05,5,1
0.000217754,2.359977e-05,5,1
0.0002167816,2.81376e-05,5,1
0.000128294,4.920609e-05,5,1
-3.069211e-05,7.546067e-05,5,1
-0.0002169052,9.328786e-05,5,1
-0.0003830221,9.458438e-05,5,1
-0.0005029504,7.983644e-05,5,1
-0.0005705316,5.406805e-05,5,1
-0.0005867381,2.586868e-05,5,1
-0.0005415219,5.86492e-07,5,1
-0.0004130042,-2.09682e-05,5,1
-0.0001830335,-3.928157e-05,5,1
0.0001360731,-5.710876e-05,5,1
0.0004973168,-7.33153e-05,5,1
0.000844461,-8.676672e-05,5,1
0.001135044,-9.875954e-05,5,1
0.00135675,-0.000104918,5,1
0.001519788,-0.0001005423,5,1
0.001632586,-8.498399e-05,5,1
0.001690443,-6.650855e-05,5,1
0.001690768,-5.386745e-05,5,1
0.001627238,-5.69467e-05,5,1
0.001496451,-7.785312e-05,5,1
0.001307482,-0.0001125351,5,1
0.001096311,-0.0001467309,5,1
0.0009220903,-0.0001700683,5,1
0.0008287407,-0.0001771992,5,1
0.0008045929,-0.0001689338,5,1
0.0007890346,-0.0001579134,5,1
0.0007269635,-0.0001575893,5,1
0.000602011,-0.000174444,5,1
0.0004295735,-0.0002044261,5,1
0.0002415777,-0.0002345703,5,1
7.837785e-05,-0.0002530457,5,1
-2.534396e-05,-0.0002588801,5,1
-6.359137e-05,-0.0002553146,5,1
-6.278104e-05,-0.0002444563,5,1
-6.456377e-05,-0.0002227395,5,1
-0.0001000561,-0.0001895161,5,1
-0.0001823853,-0.0001488377,5,1
-0.0003053928,-0.0001045939,5,1
-0.0004433104,-5.856735e-05,5,1
-0.0005734488,-1.497178e-05,5,1
-0.0006878669,2.359977e-05,5,1
-0.0007834854,6.055066e-05,5,1
-0.0008551183,0.0001064152,5,1
-0.0008990379,0.0001636242,5,1
-0.0009111929,0.000220023,5,1
-0.0008894761,0.0002532463,5,1
-0.0008406945,0.0002501671,5,1
-0.0007812165,0.0002153231,5,1
-0.0007275729,0.0001598967,5,1
-0.0006791154,0.0001067393,5,1
-0.0006227166,7.319176e-05,5,1
-0.0005480045,6.444023e-05,5,1
-0.000459679,7.092284e-05,5,1
-0.0003707051,7.724339e-05,5,1
-0.0002867553,7.286763e-05,5,1
-0.0002013469,5.94162e-05,5,1
-0.0001086455,4.628891e-05,5,1
-1.270286e-05,3.93201e-05,5,1
6.654708e-05,4.013043e-05,5,1
0.0001090082,4.677511e-05,5,1
0.0001031738,6.071273e-05,5,1
5.244739e-05,8.453633e-05,5,1
-2.7937e-05,0.0001171115,5,1
-0.0001135075,0.0001516314,5,1
-0.0001724993,0.00018291,5,1
-0.0001804405,0.0002033302,5,1
-0.0001238797,0.0002038164,5,1
-6.058186e-06,0.0001858272,5,1
0.0001459591,0.0001592484,5,1
0.0002869559,0.0001393144,5,1
0.0003754436,0.0001336421,5,1
0.0003846814,0.0001446626,5,1
0.0003158036,0.0001641104,5,1
0.0001971717,0.0001808031,5,1
6.492643e-05,0.0001824238,5,1
-5.208474e-05,0.0001589243,5,1
-0.0001465688,0.0001077117,5,1
-0.0002303566,3.899597e-05,5,1
-0.0003170615,-3.117831e-05,5,1
-0.000410087,-8.595638e-05,5,1
-0.0004974402,-0.000114804,5,1
-0.0005642111,-0.0001195039,5,1
-0.000606186,-0.0001081593,5,1
-0.0006266062,-9.324933e-05,5,1
-0.0006304958,-7.979791e-05,5,1
-0.0006270924,-6.942573e-05,5,1
-0.0006189891,-5.775702e-05,5,1
-0.000598893,-4.398147e-05,5,1
-0.0005569181,-3.506788e-05,5,1
-0.000482206,-3.522994e-05,5,1
-0.0003742705,-4.641245e-05,5,1
-0.0002407288,-6.375344e-05,5,1
-9.179074e-05,-7.671866e-05,5,1
6.022653e-05,-7.509801e-05,5,1
0.0002017096,-5.856735e-05,5,1
0.0003205035,-3.360929e-05,5,1
0.000418553,-8.165035e-06,5,1
0.0005008822,8.851824e-06,5,1
0.00056976,8.365628e-06,5,1
0.0006243761,-1.156841e-05,5,1
0.0006556547,-4.414354e-05,5,1
0.0006520892,-7.931171e-05,5,1
0.0006050903,-0.0001096179,5,1
0.0005065545,-0.0001327933,5,1
0.0003561579,-0.0001488377,5,1
0.0001616794,-0.0001592099,5,1
-4.689865e-05,-0.0001639098,5,1
-0.0002245222,-0.0001645581,5,1
-0.0003222476,-0.0001592099,5,1
-0.0003063652,-0.0001483515,5,1
-0.0001780095,-0.0001374932,5,1
2.181705e-05,-0.0001316588,5,1
0.000232502,-0.0001376552,5,1
0.0003947294,-0.0001587237,5,1
0.0004686312,-0.0001964849,5,1
0.0004427008,-0.0002394322,5,1
0.0003461098,-0.0002684419,5,1
0.0002355812,-0.0002723315,5,1
0.0001671896,-0.0002489941,5,1
0.000170593,-0.0002060468,5,1
0.000239957,-0.0001575893,5,1
0.0003263378,-0.0001167488,5,1
0.0003569682,-9.470791e-05,5,1
0.00029198,-8.984595e-05,5,1
0.0001521176,-9.017008e-05,5,1
-3.303076e-06,-8.239095e-05,5,1
-0.0001149661,-5.710876e-05,5,1
-0.0001528894,-1.010982e-05,5,1
-0.0001318209,5.649903e-05,5,1
-0.0001092938,0.0001347766,5,1
-0.0001556445,0.0002149989,5,1
-0.0003121996,0.0002989488,5,1
-0.0005596732,0.0003893813,5,1
-0.0008238396,0.0004700898,5,1
-0.001011835,0.000512713,5,1
-0.001059969,0.0004935893,5,1
-0.0009596504,0.0004148255,5,1
-0.0007473448,0.0003018659,5,1
-0.0004909576,0.0001880961,5,1
-0.0002559629,9.782569e-05,5,1
-8.093236e-05,4.628891e-05,5,1
4.758544e-05,3.883391e-05,5,1
0.0001743205,7.027458e-05,5,1
0.0003331446,0.0001261871,5,1
0.0005227611,0.000185503,5,1
0.0007242084,0.0002287745,5,1
0.0009276005,0.0002397949,5,1
0.001139582,0.0002146748,5,1
0.001351888,0.0001618415,5,1
0.001538102,0.0001023635,5,1
0.001665809,5.974033e-05,5,1
0.001725612,4.612685e-05,5,1
0.001725288,6.362991e-05,5,1
0.001677154,0.0001057669,5,1
0.001597418,0.0001573037,5,1
0.001502285,0.000195389,5,1
0.001402291,0.0001945787,5,1
0.001298245,0.000145797,5,1
0.001179775,6.362991e-05,5,1
0.001033916,-2.356124e-05,5,1
0.0008472161,-9.276313e-05,5,1
0.0006211348,-0.0001274451,5,1
0.0003777126,-0.0001173971,5,1
0.0001516314,-5.937768e-05,5,1
-4.171256e-05,4.126489e-05,5,1
-0.0002157707,0.0001652449,5,1
-0.000395339,0.0002830664,5,1
-0.0005958138,0.0003741471,5,1
-0.000814764,0.0004305459,5,1
-0.001032094,0.000448211,5,1
-0.001222682,0.0004232529,5,1
-0.001362059,0.0003535648,5,1
-0.001415378,0.0002508154,5,1
-0.001363355,0.0001352628,5,1
-0.001216524,1.889987e-05,5,1
-0.001025773,-8.660465e-05,5,1
-0.0008677593,-0.0001734716,5,1
-0.0008077952,-0.0002368392,5,1
-0.0008697041,-0.0002742763,5,1
-0.001016373,-0.0002903207,5,1
-0.001168877,-0.0002912931,5,1
-0.001257851,-0.0002828657,5,1
-0.001258985,-0.0002695764,5,1
-0.001191404,-0.0002543422,5,1
-0.001084441,-0.0002395943,5,1
-0.0009484679,-0.0002311669,5,1
-0.0007758683,-0.0002254946,5,1
-0.0005556216,-0.0002203085,5,1
-0.0002992343,-0.0002152845,5,1
-4.85193e-05,-0.0002104225,5,1
0.0001566554,-0.0002075054,5,1
0.0002983005,-0.0002057227,5,1
0.0003858158,-0.0002000504,5,1
0.0004349216,-0.0001882196,5,1
0.0004564763,-0.0001695821,5,1
0.0004615004,-0.0001447861,5,1
0.0004521006,-0.0001135075,5,1
0.0004227667,-8.190475e-05,5,1
0.0003734989,-6.06742e-05,5,1
0.000311914,-5.856735e-05,5,1
0.0002488706,-7.201877e-05,5,1
0.0001882582,-9.438378e-05,5,1
0.0001302388,-0.0001208004,5,1
7.20573e-05,-0.0001447861,5,1
1.257933e-05,-0.0001530514,5,1
-4.414354e-05,-0.000137007,5,1
-8.952183e-05,-9.875954e-05,5,1
-0.0001128592,-5.192267e-05,5,1
-0.0001164247,-1.010982e-05,5,1
-0.0001050801,1.679302e-05,5,1
-8.093236e-05,2.862379e-05,5,1
-4.333321e-05,2.846173e-05,5,1
3.179537e-06,2.716521e-05,5,1
5.504044e-05,3.510641e-05,5,1
0.0001158149,5.601284e-05,5,1
0.0001932822,8.777764e-05,5,1
0.0002903593,0.0001244044,5,1
0.0003992672,0.0001539003,5,1
0.0005031512,0.0001665414,5,1
0.0005754323,0.0001602208,5,1
0.0005921251,0.0001401247,5,1
0.0005475571,0.0001175977,5,1
0.0004475628,0.0001028497,5,1
0.0003120761,0.0001013911,5,1
0.0001782101,0.0001161391,5,1
8.583286e-05,0.0001477418,5,1
5.471631e-05,0.0001923098,5,1
7.076078e-05,0.0002378501,5,1
9.928428e-05,0.0002683184,5,1
0.0001083599,0.000274639,5,1
8.194328e-05,0.0002613496,5,1
1.12828e-05,0.0002389846,5,1
-0.0001079973,0.0002167816,5,1
-0.0002718453,0.000195227,5,1
-0.0004606514,0.0001676758,5,1
-0.0006403818,0.0001240803,5,1
-0.0007813785,6.233338e-05,5,1
-0.0008727834,-1.092015e-05,5,1
-0.0009317751,-8.514606e-05,5,1
-0.0009897945,-0.0001512687,5,1
-0.001073906,-0.0002013469,5,1
-0.00119189,-0.000233922,5,1
-0.001331914,-0.0002493182,5,1
-0.001455408,-0.0002468872,5,1
-0.001499976,-0.0002303566,5,1
-0.001403709,-0.0002094502,5,1
-0.001140515,-0.0001934057,5,1
-0.0007557723,-0.0001857886,5,1
-0.0003493125,-0.0001840059,5,1
-2.080613e-05,-0.0001848162,5,1
0.0001793446,-0.0001799543,5,1
0.0002509774,-0.0001650443,5,1
0.000220023,-0.0001430034,5,1
0.0001300767,-0.0001258245,5,1
3.575467e-05,-0.0001269589,5,1
-8.165035e-06,-0.0001436516,5,1
3.672706e-05,-0.0001642339,5,1
0.0001735102,-0.0001812508,5,1
0.0003694472,-0.000191785,5,1
0.0005764047,-0.0001959987,5,1
0.0007577559,-0.0001953505,5,1
0.000893891,-0.000191785,5,1
0.0009635791,-0.0001865989,5,1
0.0009407279,-0.0001797922,5,1
0.0008157754,-0.0001749302,5,1
0.000609304,-0.0001724993,5,1
0.0003671783,-0.0001707166,5,1
0.0001454729,-0.0001639098,5,1
-1.432352e-05,-0.0001438137,5,1
-9.697683e-05,-0.0001112386,5,1
-0.0001144799,-7.65566e-05,5,1
-9.000802e-05,-4.203669e-05,5,1
-3.863332e-05,-4.761664e-06,5,1
3.494434e-05,3.721326e-05,5,1
0.0001300767,7.90261e-05,5,1
0.0002535705,0.0001107909,5,1
0.0004114222,0.0001219734,5,1
0.000601849,0.0001140322,5,1
0.0008058894,9.458438e-05,5,1
0.0009893475,7.67572e-05,5,1
0.001124672,6.946425e-05,5,1
0.001198412,7.238143e-05,5,1
0.001215105,7.935024e-05,5,1
0.001197926,8.599492e-05,5,1
0.001178316,9.361199e-05,5,1
0.001167458,0.0001007429,5,1
0.00116292,0.0001069013,5,1
0.001150765,0.0001101427,5,1
0.001100524,0.0001120874,5,1
0.0009814063,0.0001187321,5,1
0.0007819037,0.0001312112,5,1
0.0005166026,0.0001514693,5,1
0.0002185644,0.0001775618,5,1
-6.699475e-05,0.0002043026,5,1
-0.0002945344,0.0002263435,5,1
-0.0004340726,0.0002407673,5,1
-0.0004666478,0.0002457913,5,1
-0.0003964735,0.0002435224,5,1
-0.0002690902,0.0002368777,5,1
-0.0001459206,0.0002273159,5,1
-6.229485e-05,0.0002143507,5,1
-3.303076e-06,0.0002007372,5,1
5.811968e-05,0.0001940925,5,1
0.000133318,0.0001986303,5,1
0.0002043026,0.0002138645,5,1
0.0002378501,0.0002365536,5,1
0.0002141886,0.0002607014,5,1
0.000128456,0.0002785285,5,1
-8.975362e-06,0.0002840388,5,1
-0.0001770371,0.000277232,5,1
-0.0003590364,0.0002629703,5,1
-0.0005413599,0.0002472499,5,1
-0.0007086112,0.0002303951,5,1
-0.0008392359,0.0002096508,5,1
-0.000891745,0.0001880961,5,1
-0.0008227052,0.0001761032,5,1
-0.0006407059,0.0001801549,5,1
-0.0004155972,0.0001955511,5,1
-0.0002360289,0.0002086784,5,1
-0.0001541859,0.0002017096,5,1
-0.0001579134,0.0001602208,5,1
-0.0001976194,7.999851e-05,5,1
-0.0002301945,-2.712668e-05,5,1
-0.000243808,-0.0001392759,5,1
-0.0002454286,-0.0002370013,5,1
-0.000243808,-0.0003071755,5,1
-0.000243808,-0.0003485022,5,1
-0.0002522354,-0.0003656811,5,1
-0.0002744383,-0.0003671397,5,1
-0.0003113892,-0.0003561192,5,1
-0.0003567675,-0.0003295405,5,1
-0.000402632,-0.0002898345,5,1
-0.0004402311,-0.0002442942,5,1
-0.0004656754,-0.0002003745,5,1
-0.0004762096,-0.0001606685,5,1
-0.0004668098,-0.0001178833,5,1
-0.0004298589,-6.683268e-05,5,1
-0.0003619536,-1.108221e-05,5,1
-0.000271197,4.612685e-05,5,1
-0.0001760647,0.0001064152,5,1
-0.0001000561,0.0001712413,5,1
-5.483985e-05,0.0002299089,5,1
-5.095028e-05,0.0002660495,5,1
-0.000112211,0.0002636185,5,1
-0.0002519113,0.0002172679,5,1
-0.0004416897,0.0001380179,5,1
-0.0006238511,4.466826e-05,5,1
-0.0007471828,-4.05781e-05,5,1
-0.0007932093,-9.924574e-05,5,1
-0.000767603,-0.0001269589,5,1
-0.0006825188,-0.0001310105,5,1
-0.0005397392,-0.0001208004,5,1
-0.0003344025,-0.0001068628,5,1
-5.905355e-05,-9.859748e-05,5,1
0.000274801,-9.989401e-05,5,1
0.0006175694,-0.000107349,5,1
0.0009097734,-0.0001169109,5,1
0.001112355,-0.0001203142,5,1
0.00121235,-0.0001128592,5,1
0.001218346,-9.422172e-05,5,1
0.001151413,-6.780507e-05,5,1
0.001042829,-3.830919e-05,5,1
0.0009288971,-1.156841e-05,5,1
0.0008363577,6.096713e-06,5,1
0.0007749349,9.824215e-06,5,1
0.000738146,5.86492e-07,5,1
0.0007118915,-1.367526e-05,5,1
0.0006746164,-2.7937e-05,5,1
0.0006036317,-3.360929e-05,5,1
0.0004864584,-2.84232e-05,5,1
0.0003232586,-1.464765e-05,5,1
0.0001273216,5.934648e-06,5,1
-8.320128e-05,2.651694e-05,5,1
-0.0002937241,3.867184e-05,5,1
-0.0004875542,3.526847e-05,5,1
-0.0006462161,1.338965e-05,5,1
-0.0007444277,-2.534396e-05,5,1
-0.0007609584,-6.958779e-05,5,1
-0.0007034251,-0.0001032974,5,1
-0.0006209339,-0.0001138316,5,1
-0.0005674524,-9.373552e-05,5,1
-0.0005702075,-5.013995e-05,5,1
-0.0006121824,1.112074e-05,5,1
-0.000650754,8.016057e-05,5,1
-0.000646054,0.0001483901,5,1
-0.0005826865,0.0002090025,5,1
-0.0004826922,0.0002574601,5,1
-0.0003820497,0.0002889007,5,1
-0.0003097686,0.0003012177,5,1
-0.0002614731,0.0003041349,5,1
-0.0002013469,0.0003096451,5,1
-9.227693e-05,0.0003234207,5,1
8.437427e-05,0.0003430306,5,1
0.0003132105,0.0003537269,5,1
0.0005402642,0.0003370341,5,1
0.0007016813,0.0002851732,5,1
0.0007595387,0.0002039785,5,1
0.000720805,0.0001114392,5,1
0.0006127074,2.700314e-05,5,1
0.0004540453,-4.544006e-05,5,1
0.0002545429,-0.0001110765,5,1
3.688912e-05,-0.0001781716,5,1
-0.0001686097,-0.0002467252,5,1
-0.000345585,-0.0003055549,5,1
-0.0004917679,-0.000342992,5,1
-0.0006024585,-0.000353202,5,1
-0.0006603158,-0.0003391024,5,1
-0.0006368163,-0.0003092824,5,1
-0.0005115399,-0.0002697385,5,1
-0.0002980999,-0.0002259808,5,1
-3.377136e-05,-0.0001820611,5,1
0.0002271538,-0.0001426792,5,1
0.0004294114,-0.0001135075,5,1
0.0005319988,-9.130454e-05,5,1
0.0005180612,-7.363943e-05,5,1
0.0004039671,-5.953974e-05,5,1
0.0002451431,-4.722278e-05,5,1
0.0001083599,-3.928157e-05,5,1
3.462021e-05,-3.847125e-05,5,1
2.084466e-05,-4.641245e-05,5,1
4.126489e-05,-6.116039e-05,5,1
7.594687e-05,-7.931171e-05,5,1
0.0001179218,-0.0001024871,5,1
0.0001584381,-0.0001329553,5,1
0.0001858272,-0.0001677994,5,1
0.0001898788,-0.00019924,5,1
0.0001736723,-0.0002227395,5,1
0.000162976,-0.000238784,5,1
0.0002012234,-0.0002475355,5,1
0.0003166139,-0.000246239,5,1
0.0004848378,-0.000233922,5,1
0.0006383138,-0.0002094502,5,1
0.000701033,-0.0001796301,5,1
0.0006279415,-0.0001509446,5,1
0.0004287631,-0.0001245279,5,1
0.0001654069,-9.892161e-05,5,1
-7.752899e-05,-7.218083e-05,5,1
-0.0002269532,-4.560212e-05,5,1
-0.0002483458,-2.242678e-05,5,1
-0.0001632615,-5.085794e-06,5,1
-3.506788e-05,5.124321e-06,5,1
7.189524e-05,1.047248e-05,5,1
0.0001329939,1.792748e-05,5,1
0.0001759412,3.235129e-05,5,1
0.0002431983,5.682316e-05,5,1
0.0003394651,8.583286e-05,5,1
0.0004224426,0.0001124116,5,1
0.000443187,0.0001279698,5,1
0.0003874365,0.0001320215,5,1
0.0002867939,0.0001263492,5,1
0.0001931201,0.0001188942,5,1
0.0001352628,0.0001166253,5,1
0.0001073875,0.0001250527,5,1
8.145709e-05,0.0001401247,5,1
3.899597e-05,0.0001563313,5,1
-1.67545e-05,0.0001678379,5,1
-7.218083e-05,0.0001744826,5,1
-0.0001339277,0.0001811273,5,1
-0.0002182017,0.000187772,5,1
-0.0003314853,0.0001923098,5,1
-0.0004606514,0.0001910133,5,1
-0.0005760419,0.0001840444,5,1
-0.0006546435,0.0001751309,5,1
-0.0006852738,0.0001710792,5,1
-0.0006868945,0.0001785342,5,1
-0.0006857601,0.0002015475,5,1
-0.000695646,0.0002352571,5,1
-0.000710556,0.0002666978,5,1
-0.000708125,0.0002830664,5,1
-0.0006650157,0.0002825802,5,1
-0.0005791211,0.0002681563,5,1
-0.000474589,0.0002491947,5,1
-0.0003880461,0.0002316917,5,1
-0.0003379679,0.0002154851,5,1
-0.0003227338,0.0001973338,5,1
-0.0003253268,0.0001694586,5,1
-0.0003222476,0.0001316974,5,1
-0.0002867553,8.939829e-05,5,1
-0.0002008607,5.439218e-05,5,1
-6.618442e-05,3.18651e-05,5,1
9.377406e-05,2.246531e-05,5,1
0.0002561635,2.084466e-05,5,1
0.0004172565,1.744129e-05,5,1
0.0005862907,1.558884e-06,5,1
0.0007566215,-2.988179e-05,5,1
0.0008846532,-6.586029e-05,5,1
0.0009003736,-9.600444e-05,5,1
0.0007558112,-0.0001133454,5,1
0.0004725208,-0.000119666,5,1
0.0001372076,-0.0001229073,5,1
-0.0001428413,-0.000129714,5,1
-0.0002943724,-0.0001350622,5,1
-0.0002980999,-0.0001298761,5,1
-0.0001887058,-0.0001102662,5,1
-2.988179e-05,-8.222889e-05,5,1
0.0001172735,-6.002594e-05,5,1
0.0002143507,-5.69467e-05,5,1
0.0002529222,-8.012204e-05,5,1
0.0002560015,-0.0001212866,5,1
0.0002577842,-0.0001652063,5,1
0.0002890628,-0.0001984297,5,1
0.0003665301,-0.0002131776,5,1
0.0004791655,-0.0002076674,5,1
0.0005924492,-0.000191623,5,1
0.0006673234,-0.0001746061,5,1
0.0006823955,-0.0001622891,5,1
0.0006441481,-0.0001536997,5,1
0.0005728393,-0.0001431655,5,1
0.0004838654,-0.0001308485,5,1
0.0003722023,-0.0001206384,5,1
0.0002261814,-0.0001112386,5,1
5.050261e-05,-0.0001015147,5,1
-0.0001342519,-9.276313e-05,5,1
-0.0003076617,-8.255302e-05,5,1
-0.0004574101,-6.942573e-05,5,1
-0.0005799314,-5.548811e-05,5,1
-0.0006828429,-4.219875e-05,5,1
-0.0007695478,-2.501983e-05,5,1
-0.0008358325,3.017472e-06,5,1
-0.0008789418,4.385793e-05,5,1
-0.0009026034,8.923623e-05,5,1
-0.0009233478,0.0001281319,5,1
-0.0009593263,0.000150659,5,1
-0.001011835,0.0001537382,5,1
-0.001066127,0.0001389903,5,1
-0.001112316,0.0001190562,5,1
-0.001158667,0.000105929,5,1
-0.001199993,0.0001056048,5,1
-0.001200155,0.0001158149,5,1
-0.001124471,0.0001274836,5,1
-0.0009590021,0.0001291043,5,1
-0.0007068285,0.0001190562,5,1
-0.0003896668,0.0001026876,5,1
-4.722278e-05,8.956036e-05,5,1
0.000272208,8.42122e-05,5,1
0.0005287575,8.323981e-05,5,1
0.0007011951,8.307774e-05,5,1
0.0007885484,8.113296e-05,5,1
0.0008083204,7.837785e-05,5,1
0.0007968137,8.210535e-05,5,1
0.0008037825,9.669123e-05,5,1
0.0008724983,0.0001213252,5,1
0.00101625,0.0001488763,5,1
0.001208784,0.0001707551,5,1
0.001398563,0.0001796687,5,1
0.001535671,0.0001723757,5,1
0.00160309,0.0001542244,5,1
0.001606169,0.0001312112,5,1
0.001548798,0.0001083599,5,1
0.001430166,9.16672e-05,5,1
0.001266318,8.307774e-05,5,1
0.001090476,7.951231e-05,5,1
0.0009394314,7.335383e-05,5,1
0.0008316578,5.974033e-05,5,1
0.0007564594,3.964424e-05,5,1
0.0006877437,1.533444e-05,5,1
0.0005973112,-9.137427e-06,5,1
0.0004686312,-2.907146e-05,5,1
0.0002960316,-4.155049e-05,5,1
8.145709e-05,-4.641245e-05,5,1
-0.000152079,-4.722278e-05,5,1
-0.000367788,-5.483985e-05,5,1
-0.0005285567,-7.639453e-05,5,1
-0.0006125065,-0.0001110765,5,1
-0.0006251476,-0.0001468929,5,1
-0.0005935449,-0.0001721751,5,1
-0.000551732,-0.0001791439,5,1
-0.0005220741,-0.0001699062,5,1
-0.0005099192,-0.0001506204,5,1
-0.0005066779,-0.0001256624,5,1
-0.0004909576,-0.0001015147,5,1
-0.000444931,-8.417367e-05,5,1
-0.0003724878,-7.914964e-05,5,1
-0.0003079858,-8.644259e-05,5,1
-0.0002898345,-0.0001063766,5,1
-0.0003292164,-0.0001396,5,1
-0.0004141386,-0.0001776853,5,1
-0.0005258016,-0.0002062088,5,1
-0.0006514022,-0.0002081536,5,1
-0.000782351,-0.0001770371,5,1
-0.0008948243,-0.0001214487,5,1
-0.0009688881,-6.148453e-05,5,1
-0.001008108,-1.383732e-05,5,1
-0.001029014,1.371378e-05,5,1
-0.001041493,2.311357e-05,5,1
-0.001039224,2.035846e-05,5,1
-0.001005191,6.258778e-06,5,1
-0.0009249684,-2.09682e-05,5,1
-0.0007936955,-5.743289e-05,5,1
-0.0006199615,-9.405965e-05,5,1
-0.0004280762,-0.0001209625,5,1
-0.0002595283,-0.000129714,5,1
-0.0001488377,-0.0001125351,5,1
-0.0001099421,-6.569822e-05,5,1
-0.00012469,5.286387e-06,5,1
-0.0001514308,8.356394e-05,5,1
-0.0001493239,0.000148228,5,1
-9.892161e-05,0.0001808031,5,1
-5.085794e-06,0.0001694586,5,1
0.0001054428,0.0001140322,5,1
0.0001973338,3.13789e-05,5,1
0.0002388225,-5.548811e-05,5,1
0.0002245608,-0.0001245279,5,1
0.0001741585,-0.0001653684,5,1
0.0001232699,-0.000179306,5,1
0.0001124116,-0.0001802784,5,1
0.0001566554,-0.0001844921,5,1
0.0002318537,-0.00019924,5,1
0.0002944109,-0.000221605,5,1
0.0003222862,-0.0002421874,5,1
0.0003297412,-0.0002480217,5,1
0.0003370341,-0.0002329496,5,1
0.00035162,-0.0001971332,5,1
0.0003736609,-0.0001467309,5,1
0.0004151496,-8.384954e-05,5,1
0.0004918066,2.623614e-07,5,1
0.0005973112,0.0001148425,5,1
0.0006976296,0.0002574601,5,1
0.0007525698,0.0004067223,5,1
0.0007444666,0.0005392918,5,1
0.0006835299,0.0006352345,5,1
0.0005909906,0.0006893643,5,1
0.0004827309,0.0007096225,5,1
0.0003658818,0.0007024916,5,1
0.0002462775,0.0006658648,5,1
0.0001273216,0.0005984457,5,1
1.9224e-05,0.0005083373,5,1
-6.002594e-05,0.0004078567,5,1
-9.146661e-05,0.0003077003,5,1
-7.720486e-05,0.000220023,5,1
-4.576419e-05,0.0001504969,5,1
-2.550602e-05,0.000101067,5,1
-1.351319e-05,6.897806e-05,5,1
3.089271e-05,4.661304e-05,5,1
0.000145797,2.732727e-05,5,1
0.0003263378,1.047248e-05,5,1
0.0005153061,-2.81688e-06,5,1
0.0006449584,-1.221667e-05,5,1
0.0006778577,-1.448558e-05,5,1
0.0006224313,-9.299493e-06,5,1
0.0005193577,4.151929e-06,5,1
0.0004149876,1.614476e-05,5,1
0.0003435168,1.371378e-05,5,1
0.0003227724,-5.247859e-06,5,1
0.0003498373,-2.907146e-05,5,1
0.0003926226,-4.770897e-05,5,1
0.0004044533,-5.824322e-05,5,1
0.0003608578,-6.261898e-05,5,1
0.0002696149,-6.051213e-05,5,1
0.0001496866,-4.770897e-05,5,1
1.808955e-05,-2.550602e-05,5,1
-0.0001135075,-7.516774e-06,5,1
-0.0002297083,-7.354709e-06,5,1
-0.0003172236,-3.182657e-05,5,1
-0.000370381,-7.509801e-05,5,1
-0.0004011734,-0.0001289037,5,1
-0.0004371519,-0.000179306,5,1
-0.0005000332,-0.0002143121,5,1
-0.0005919242,-0.0002297083,5,1
-0.0006844635,-0.0002327876,5,1
-0.0007291936,-0.0002303566,5,1
-0.0006706879,-0.0002277635,5,1
-0.0004943609,-0.0002280877,5,1
-0.0002502906,-0.0002303566,5,1
-2.777494e-05,-0.0002272773,5,1
0.0001026876,-0.0002133397,5,1
0.0001323456,-0.0001906506,5,1
8.84259e-05,-0.000166989,5,1
9.986281e-06,-0.0001481895,5,1
-6.083626e-05,-0.000137007,5,1
-8.741498e-05,-0.0001344139,5,1
-6.083626e-05,-0.0001472171,5,1
3.827799e-06,-0.0001690959,5,1
7.432621e-05,-0.0001827094,5,1
0.0001172735,-0.0001804405,5,1
0.0001167873,-0.0001705545,5,1
7.286763e-05,-0.0001605064,5,1
-2.168618e-06,-0.0001535376,5,1
-9.081835e-05,-0.0001465688,5,1
-0.0001710407,-0.0001316588,5,1
-0.0002154466,-0.0001037836,5,1
-0.0002081536,-6.731888e-05,5,1
-0.0001634236,-2.89094e-05,5,1
-0.0001157764,9.106227e-07,5,1
-0.000102325,1.630683e-05,5,1
-0.0001397621,1.484824e-05,5,1
-0.0002162569,1.883015e-06,5,1
-0.0003013411,-1.25408e-05,5,1
-0.0003624398,-2.161646e-05,5,1
-0.0003763774,-2.226472e-05,5,1
-0.0003425058,-1.092015e-05,5,1
-0.0002833519,1.436204e-05,5,1
-0.000233922,5.066468e-05,5,1
-0.0002203085,9.247754e-05,5,1
-0.0002459149,0.0001326697,5,1
-0.0002982619,0.000162976,5,1
-0.0003619536,0.0001756171,5,1
-0.0004193247,0.0001699448,5,1
-0.0004460655,0.0001496866,5,1
-0.0004061974,0.0001253768,5,1
-0.0002676316,0.0001086841,5,1
-3.279896e-05,0.0001070634,5,1
0.0002383363,0.0001138702,5,1
0.0004733311,0.0001247285,5,1
0.0006104385,0.000138342,5,1
0.0006211348,0.0001579519,5,1
0.0005203301,0.0001889064,5,1
0.0003671783,0.0002320158,5,1
0.0002265056,0.0002723701,5,1
0.0001423936,0.0002939248,5,1
0.0001248906,0.0002923041,5,1
0.0001663793,0.0002720459,5,1
0.0002582704,0.0002415777,5,1
0.000383871,0.000205275,5,1
0.0005083373,0.0001634622,5,1
0.0005726772,0.0001163011,5,1
0.0005130371,6.136099e-05,5,1
0.0002966799,-1.844488e-06,5,1
-4.884343e-05,-6.991193e-05,5,1
-0.0004334244,-0.0001332795,5,1
-0.0007470207,-0.0001815749,5,1
-0.0009006586,-0.0002032917,5,1
-0.0008614388,-0.0001890299,5,1
-0.0006727948,-0.0001454344,5,1
-0.0004224039,-9.098041e-05,5,1
-0.0001963229,-4.446767e-05,5,1
-4.041603e-05,-1.659243e-05,5,1
4.628891e-05,-3.303076e-06,5,1
9.004655e-05,2.693341e-06,5,1
0.0001150046,7.069105e-06,5,1
0.0001349386,9.338019e-06,5,1
0.0001493625,1.079661e-05,5,1
0.0001474177,1.22552e-05,5,1
0.0001154908,1.468618e-05,5,1
4.888196e-05,1.257933e-05,5,1
-3.101625e-05,4.962256e-06,5,1
-8.109443e-05,-5.57199e-06,5,1
-6.553616e-05,-1.140634e-05,5,1
1.938607e-05,-8.327101e-06,5,1
0.000148228,1.234753e-06,5,1
0.0002916559,8.203562e-06,5,1
0.0004264942,1.720949e-06,5,1
0.0005355643,-1.886135e-05,5,1
0.0006127074,-4.495386e-05,5,1
0.0006580857,-6.699475e-05,5,1
0.0006778577,-7.428769e-05,5,1
0.0006781818,-6.504996e-05,5,1
0.0006485239,-4.365734e-05,5,1
0.000564736,-1.950961e-05,5,1
0.0004200116,-1.520357e-06,5,1
0.0002363916,4.80019e-06,5,1
4.547859e-05,-5.479652e-07,5,1
-0.0001332795,-1.108221e-05,5,1
-0.0002930758,-2.42095e-05,5,1
-0.0004284004,-3.766092e-05,5,1
-0.0005389289,-4.949169e-05,5,1
-0.0006291993,-5.889148e-05,5,1
-0.0007027769,-6.504996e-05,5,1
-0.0007557723,-6.521203e-05,5,1
-0.0007727891,-5.986387e-05,5,1
-0.0007536653,-4.689865e-05,5,1
-0.000715418,-2.583016e-05,5,1
-0.0006679329,-1.196227e-06,5,1
-0.0006055377,2.570662e-05,5,1
-0.0005248293,5.082674e-05,5,1
-0.000437314,6.687121e-05,5,1
-0.0003591985,6.800567e-05,5,1
-0.0002982619,5.309566e-05,5,1
-0.0002600145,2.603075e-05,5,1
-0.0002472114,-1.156841e-05,5,1
-0.0002434839,-5.565017e-05,5,1
-0.0002107467,-9.568031e-05,5,1
-9.956988e-05,-0.0001183694,5,1
0.0001235941,-0.0001152902,5,1
0.0004493454,-8.709085e-05,5,1
0.0008293889,-3.928157e-05,5,1
0.001196305,1.711715e-05,5,1
0.001484296,6.865393e-05,5,1
0.001646199,0.0001039842,5,1
0.001665323,0.0001237561,5,1
0.001559819,0.0001305629,5,1
0.001364691,0.0001294284,5,1
0.001119,0.0001239182,5,1
0.0008506195,0.0001188942,5,1
0.0005814288,0.0001163011,5,1
0.0003328204,0.0001167873,5,1
0.0001175977,0.0001206769,5,1
-5.565017e-05,0.0001265113,5,1
-0.0001763888,0.0001338042,5,1
-0.0002408908,0.0001388282,5,1
-0.0002622834,0.000140773,5,1
-0.000261311,0.0001398006,5,1
-0.0002619593,0.0001328318,5,1
-0.0002878898,0.0001229458,5,1
-0.0003502849,0.0001117633,5,1
-0.0004413656,0.0001013911,5,1
-0.0005343911,9.004655e-05,5,1
-0.0006029447,7.67572e-05,5,1
-0.0006351956,6.152305e-05,5,1
-0.0006345474,4.888196e-05,5,1
-0.0006170443,4.369587e-05,5,1
-0.0006034309,4.531652e-05,5,1
-0.0006154237,4.661304e-05,5,1
-0.0006570745,4.207521e-05,5,1
-0.0007056941,3.202716e-05,5,1
-0.0007240074,1.663096e-05,5,1
-0.0006888393,-4.113403e-06,5,1
-0.0006126686,-2.46957e-05,5,1
-0.0005326084,-4.138842e-05,5,1
-0.0004886886,-5.824322e-05,5,1
-0.0004925782,-8.206682e-05,5,1
-0.00052175,-0.000114804,5,1
-0.0005423322,-0.0001501342,5,1
-0.0005274223,-0.000179306,5,1
-0.0004553032,-0.0001977815,5,1
-0.0003104168,-0.000206695,5,1
-0.0001037836,-0.0002123673,5,1
0.000110953,-0.0002162569,5,1
0.0002607014,-0.0002126914,5,1
0.0003051073,-0.0002047502,5,1
0.0002555152,-0.0002011848,5,1
0.0001618415,-0.0002107467,5,1
8.84259e-05,-0.0002335979,5,1
8.583286e-05,-0.0002650386,5,1
0.0001738343,-0.0002901587,5,1
0.0003308757,-0.0002966413,5,1
0.0004898618,-0.0002793003,5,1
0.0005704083,-0.0002480217,5,1
0.0005141716,-0.0002206326,5,1
0.0003154794,-0.000206695,5,1
2.878586e-05,-0.0001995642,5,1
-0.0002579077,-0.0001864369,5,1
-0.0004648651,-0.0001606685,5,1
-0.0005527044,-0.0001211246,5,1
-0.0005317981,-7.428769e-05,5,1
-0.0004413656,-2.404744e-05,5,1
-0.0003319715,3.380988e-05,5,1
-0.0002460769,0.000105929,5,1
-0.0002003745,0.0001842065,5,1
-0.0001880575,0.0002501671,5,1
-0.0001815749,0.0002861456,5,1
-0.0001472171,0.0002827423,5,1
-6.06742e-05,0.0002477361,5,1
7.562274e-05,0.0001984683,5,1
0.0002431983,0.0001563313,5,1
0.0004187151,0.0001360731,5,1
0.0005848321,0.0001419075,5,1
0.0007289083,0.000170431,5,1
0.0008528884,0.0002145127,5,1
0.0009758961,0.0002692908,5,1
0.001119324,0.0003232586,5,1
0.001286252,0.0003610198,5,1
0.001451559,0.0003723644,5,1
0.001565815,0.0003553475,5,1
0.001584777,0.0003188828,5,1
0.001502285,0.0002764217,5,1
0.001341516,0.0002415777,5,1
0.001136665,0.0002188885,5,1
0.0009196594,0.0002073819,5,1
0.0007188602,0.0002025199,5,1
0.000567005,0.0001970097,5,1
0.0004919686,0.0001887444,5,1
0.0004905101,0.0001801549,5,1
0.0005190336,0.0001786963,5,1
0.0005209784,0.0001866375,5,1
0.0004533971,0.0001997648,5,1
0.0003102934,0.0002120818,5,1
0.0001151667,0.0002140265,5,1
-9.713889e-05,0.0001974959,5,1
-0.0003042584,0.0001598967,5,1
-0.0004977643,0.0001088461,5,1
-0.0006713362,5.212327e-05,5,1
-0.00080974,-1.196227e-06,5,1
-0.000909248,-4.43056e-05,5,1
-0.0009859049,-7.072225e-05,5,1
-0.001052352,-8.02841e-05,5,1
-0.001099513,-7.785312e-05,5,1
-0.001095785,-7.153257e-05,5,1
-0.001013456,-6.423963e-05,5,1
-0.0008504183,-5.921561e-05,5,1
-0.0006308199,-6.06742e-05,5,1
-0.0003929081,-7.169464e-05,5,1
-0.0001702304,-9.2439e-05,5,1
8.041497e-06,-0.0001191798,5,1
0.0001057669,-0.0001464067,5,1
9.717743e-05,-0.0001661787,5,1
-4.761664e-06,-0.0001729855,5,1
-0.0001472171,-0.0001656925,5,1
-0.0002664971,-0.0001436516,5,1
-0.0003220855,-0.0001050801,5,1
-0.0003144685,-5.257093e-05,5,1
-0.0002771934,-6.176923e-08,5,1
-0.0002525595,3.332369e-05,5,1
-0.0002702246,3.445814e-05,5,1
-0.0003413713,5.286387e-06,5,1
-0.0004554653,-3.847125e-05,5,1
-0.0005796073,-7.947377e-05,5,1
-0.0006672846,-0.0001067007,5,1
-0.0006716604,-0.0001204763,5,1
-0.0005802555,-0.0001280934,5,1
-0.0004340726,-0.0001412206,5,1
-0.0003141443,-0.0001645581,5,1
-0.0002908069,-0.0001958367,5,1
-0.0003732982,-0.0002327876,5,1
-0.0005073262,-0.0002692523,5,1
-0.000611048,-0.000300855,5,1
-0.0006251476,-0.0003264613,5,1
-0.0005274223,-0.0003420196,5,1
-0.0003399127,-0.0003460712,5,1
-0.000119666,-0.0003400748,5,1
6.897806e-05,-0.0003201407,5,1
0.0001809652,-0.0002846485,5,1
0.0002072198,-0.0002394322,5,1
0.0001749688,-0.0001934057,5,1
0.000128294,-0.0001571031,5,1
9.912221e-05,-0.0001329553,5,1
8.74535e-05,-0.0001219349,5,1
7.351589e-05,-0.0001238797,5,1
5.601284e-05,-0.0001365208,5,1
6.071273e-05,-0.0001579134,5,1
0.0001106288,-0.0001848162,5,1
0.0002041406,-0.0002063709,5,1
0.0003012177,-0.0002120432,5,1
0.0003503235,-0.0001943781,5,1
0.0003321722,-0.0001551583,5,1
0.000269777,-0.0001054042,5,1
0.0002085163,-5.759496e-05,5,1
0.0001864754,-1.934754e-05,5,1
0.0002208333,7.393236e-06,5,1
0.0003098072,2.603075e-05,5,1
0.0004367043,4.158902e-05,5,1
0.0005726772,5.179914e-05,5,1
0.0006802886,5.098881e-05,5,1
0.0007410632,3.98063e-05,5,1
0.0007543526,3.056858e-05,5,1
0.0007259911,3.948217e-05,5,1
0.0006606788,8.291568e-05,5,1
0.0005679773,0.0001647587,5,1
0.0004615004,0.0002637806,5,1
0.0003584268,0.0003462718,5,1
0.0002738286,0.0003856538,5,1
0.0002169437,0.000376416,5,1
0.0001825859,0.0003363859,5,1
0.0001492004,0.0002903593,5,1
8.74535e-05,0.0002607014,5,1
-1.805102e-05,0.0002545429,5,1
-0.0001551583,0.0002692908,5,1
-0.000298424,0.0002958695,5,1
-0.000422566,0.0003245551,5,1
-0.0005134846,0.0003440029,5,1
-0.0005823624,0.0003503235,5,1
-0.0006442713,0.0003430306,5,1
-0.0006974287,0.0003230965,5,1
-0.0007157421,0.0002926282,5,1
-0.0006736051,0.0002568118,5,1
-0.0005731247,0.0002211574,5,1
-0.0004478482,0.0001897167,5,1
-0.0003378059,0.0001634622,5,1
-0.0002574215,0.0001428799,5,1
-0.0002002124,0.0001304008,5,1
-0.0001477033,0.0001231079,5,1
-8.595638e-05,0.0001148425,5,1
-2.404744e-05,0.0001020394,5,1
1.54965e-05,8.145709e-05,5,1
2.165498e-05,5.633696e-05,5,1
1.112074e-05,3.656499e-05,5,1
8.851824e-06,3.299956e-05,5,1
3.154097e-05,5.179914e-05,5,1
7.173317e-05,9.020862e-05,5,1
9.26396e-05,0.0001372076,5,1
6.930219e-05,0.0001773998,5,1
9.824215e-06,0.0001919856,5,1
-5.111234e-05,0.0001671896,5,1
-8.44978e-05,0.0001091703,5,1
-8.174268e-05,3.656499e-05,5,1
-5.548811e-05,-3.085418e-05,5,1
-2.064406e-05,-8.530812e-05,5,1
1.306552e-05,-0.0001256624,5,1
5.795762e-05,-0.0001533756,5,1
0.0001425557,-0.0001702304,5,1
0.0002882525,-0.0001802784,5,1
0.0004790034,-0.0001874093,5,1
0.0006645683,-0.0001955125,5,1
0.0007930862,-0.0002073433,5,1
0.0008374922,-0.0002274394,5,1
0.0007945448,-0.0002545043,5,1
0.0006772094,-0.000283514,5,1
0.0005154681,-0.0003091203,5,1
0.0003474063,-0.0003267854,5,1
0.0002078681,-0.000335537,5,1
0.0001252147,-0.0003348887,5,1
0.0001154908,-0.0003285682,5,1
0.0001678379,-0.0003206269,5,1
0.0002461155,-0.0003100927,5,1
0.0003158036,-0.0002946965,5,1
0.0003483787,-0.0002707109,5,1
0.000319207,-0.0002335979,5,1
0.000225047,-0.0001770371,5,1
8.680524e-05,-9.794922e-05,5,1
-7.201877e-05,-3.858999e-07,5,1
-0.0002352185,0.0001047945,5,1
-0.0003843186,0.0001973338,5,1
-0.0005039228,0.0002590807,5,1
-0.0005791211,0.0002801492,5,1
-0.0006102377,0.0002645909,5,1
-0.0006155858,0.000225209,5,1
-0.0006092652,0.0001717275,5,1
-0.0005846313,0.0001104668,5,1
-0.0005249913,4.709924e-05,5,1
-0.0004360174,-8.489166e-06,5,1
-0.0003269475,-4.252288e-05,5,1
-0.0002086398,-4.641245e-05,5,1
-8.611845e-05,-1.950961e-05,5,1
4.839576e-05,2.716521e-05,5,1
0.0002143507,7.562274e-05,5,1
0.0004349216,0.000111115,5,1
0.0007023296,0.0001239182,5,1
0.0009579068,0.0001132219,5,1
0.001127752,8.567078e-05,5,1
0.001173292,5.406805e-05,5,1
0.001112031,2.975825e-05,5,1
0.0009924268,1.873781e-05,5,1
0.0008485126,2.035846e-05,5,1
0.0006757508,2.975825e-05,5,1
0.0004522626,4.402e-05,5,1
0.0001668655,5.94162e-05,5,1
-0.0001553203,7.432621e-05,5,1
-0.0004604893,8.161915e-05,5,1
-0.0006967805,7.983644e-05,5,1
-0.0008343739,7.465034e-05,5,1
-0.0008674352,7.659513e-05,5,1
-0.0008060125,9.377406e-05,5,1
