EMG1,EMG2,class,user
0.001302134,0.0003605336,5,1
0.0009342453,0.0002979764,5,1
0.0005767288,0.0002334744,5,1
0.0002527602,0.0001752929,5,1
-2.971972e-05,0.0001316974,5,1
-0.0002556388,0.0001046324,5,1
-0.0004057112,9.101894e-05,5,1
-0.0004705373,8.729144e-05,5,1
-0.0004549791,9.020862e-05,5,1
-0.0003833462,9.426025e-05,5,1
-0.0002903207,9.847395e-05,5,1
-0.0002126914,0.0001039842,5,1
-0.0001870851,0.0001070634,5,1
-0.0002454286,0.0001009049,5,1
-0.0003956632,8.550872e-05,5,1
-0.0006071584,6.816773e-05,5,1
-0.0008283774,5.358185e-05,5,1
-0.001004543,4.256141e-05,5,1
-0.001101295,3.283749e-05,5,1
-0.001105509,2.133085e-05,5,1
-0.001023666,7.555301e-06,5,1
-0.0008765109,-5.409925e-06,5,1
-0.0007006701,-1.075808e-05,5,1
-0.0005424943,-5.57199e-06,5,1
-0.0004390967,4.151929e-06,5,1
-0.0003997148,8.689758e-06,5,1
-0.0004040906,2.369211e-06,5,1
-0.0004167317,-1.578211e-05,5,1
-0.0003969597,-4.625038e-05,5,1
-0.0003006929,-8.871149e-05,5,1
-0.0001020008,-0.0001363587,5,1
0.0001835583,-0.0001796301,5,1
0.000492779,-0.0002099363,5,1
0.0007472217,-0.0002219292,5,1
0.000893891,-0.0002173914,5,1
0.0009177146,-0.0002042641,5,1
0.0008365198,-0.0001896782,5,1
0.0006911471,-0.0001780095,5,1
0.0005195198,-0.0001715269,5,1
0.0003452995,-0.00016942,5,1
0.0001793446,-0.0001624512,5,1
2.862379e-05,-0.0001410586,5,1
-9.000802e-05,-0.0001063766,5,1
-0.0001630995,-7.169464e-05,5,1
-0.0001885437,-4.625038e-05,5,1
-0.0001773612,-3.231277e-05,5,1
-0.0001548341,-2.404744e-05,5,1
-0.000151917,-1.67545e-05,5,1
-0.0001861127,-7.192643e-06,5,1
-0.0002454286,2.693341e-06,5,1
-0.0003094444,8.851824e-06,5,1
-0.0003591985,8.203562e-06,5,1
-0.0003781601,-1.358292e-06,5,1
-0.0003601709,-1.545797e-05,5,1
-0.0003074997,-2.7937e-05,5,1
-0.0002358668,-3.441962e-05,5,1
-0.0001726613,-3.555408e-05,5,1
-0.0001379794,-3.328516e-05,5,1
-0.0001396,-2.939559e-05,5,1
-0.0001771992,-2.874733e-05,5,1
-0.0002407288,-3.279896e-05,5,1
-0.0003165753,-4.041603e-05,5,1
-0.0003930701,-5.127441e-05,5,1
-0.0004567618,-6.375344e-05,5,1
-0.0005032745,-7.380149e-05,5,1
-0.0005319601,-7.428769e-05,5,1
-0.000541846,-6.359137e-05,5,1
-0.0005282326,-4.284701e-05,5,1
-0.0004953333,-8.975362e-06,5,1
-0.0004570859,3.283749e-05,5,1
-0.0004228902,7.157111e-05,5,1
-0.0003959873,9.928428e-05,5,1
-0.0003799429,0.0001166253,5,1
-0.0003799429,0.0001269974,5,1
-0.0004094387,0.0001336421,5,1
-0.0004901472,0.0001391524,5,1
-0.0006225546,0.0001419075,5,1
-0.0007740856,0.0001394765,5,1
-0.0008967691,0.0001265113,5,1
-0.0009449024,0.0001047945,5,1
-0.000904224,7.384002e-05,5,1
-0.0007970989,3.413401e-05,5,1
-0.0006792775,-7.192643e-06,5,1
-0.0006100755,-3.863332e-05,5,1
-0.0006126686,-5.500191e-05,5,1
-0.0006632329,-5.710876e-05,5,1
-0.0007039114,-4.965376e-05,5,1
-0.0006804119,-3.976777e-05,5,1
-0.0005656697,-3.604027e-05,5,1
-0.0003587123,-4.203669e-05,5,1
-7.833932e-05,-5.305713e-05,5,1
0.0002337985,-6.39155e-05,5,1
0.0005217887,-7.218083e-05,5,1
0.0007342565,-7.671866e-05,5,1
0.000849485,-6.537409e-05,5,1
0.000871688,-2.728874e-05,5,1
0.000832306,3.818565e-05,5,1
0.0007930862,0.0001188942,5,1
0.0008211235,0.0001931201,5,1
0.0009558,0.0002415777,5,1
0.001186419,0.0002553532,5,1
0.001449776,0.0002386605,5,1
0.001664837,0.0002021958,5,1
0.001788169,0.0001587623,5,1
0.001825282,0.0001143563,5,1
0.001803727,7.20573e-05,5,1
0.001747491,3.364782e-05,5,1
0.001664675,-1.358292e-06,5,1
0.001552688,-3.830919e-05,5,1
0.00140067,-8.158062e-05,5,1
0.001195495,-0.0001290658,5,1
0.0009387831,-0.0001812508,5,1
0.0006621373,-0.0002342462,5,1
0.000423415,-0.0002737901,5,1
0.0002777182,-0.000286107,5,1
0.0002419018,-0.0002677937,5,1
0.0003086727,-0.0002306807,5,1
0.0004608521,-0.0001932436,5,1
0.0006734819,-0.0001681235,5,1
0.0008953495,-0.0001603444,5,1
0.001054498,-0.0001715269,5,1
0.001099876,-0.000196647,5,1
0.001025974,-0.0002235498,5,1
0.0008601813,-0.0002404046,5,1
0.0006425274,-0.0002368392,5,1
0.0004114222,-0.0002097743,5,1
0.0001997648,-0.0001564548,5,1
2.116879e-05,-7.833932e-05,5,1
-0.0001161005,1.792748e-05,5,1
-0.0002133397,0.0001103047,5,1
-0.0002794623,0.0001757791,5,1
-0.0003254889,0.0002021958,5,1
-0.0003676259,0.000192796,5,1
-0.000424997,0.000168162,5,1
-0.0005102433,0.0001422316,5,1
-0.0006125065,0.0001213252,5,1
-0.0007066664,0.00010366,5,1
-0.0007669547,9.101894e-05,5,1
-0.0007841337,8.74535e-05,5,1
-0.0007698719,9.280167e-05,5,1
-0.0007421587,0.0001044704,5,1
-0.0007160662,0.0001150046,5,1
-0.0007009942,0.0001188942,5,1
-0.0007034251,0.0001171115,5,1
-0.0007199558,0.0001151667,5,1
-0.0007394037,0.0001154908,5,1
-0.0007468587,0.0001166253,5,1
-0.0007319486,0.0001103047,5,1
-0.0006996976,8.810177e-05,5,1
-0.0006635571,4.920609e-05,5,1
-0.0006394094,1.002961e-07,5,1
-0.000633575,-4.981582e-05,5,1
-0.0006444334,-9.308726e-05,5,1
-0.0006684191,-0.0001235555,5,1
-0.0007013183,-0.0001374932,5,1
-0.0007330831,-0.0001355484,5,1
-0.0007499378,-0.0001212866,5,1
-0.0007444277,-9.341139e-05,5,1
-0.0007157421,-4.965376e-05,5,1
-0.000673281,4.151929e-06,5,1
-0.0006347094,6.233338e-05,5,1
-0.0006225546,0.0001174356,5,1
-0.0006517263,0.0001644345,5,1
-0.0007197938,0.0001986303,5,1
-0.0008053642,0.0002185644,5,1
-0.0008711627,0.0002278021,5,1
-0.0008687317,0.0002281262,5,1
-0.0007531792,0.0002196988,5,1
-0.0005160777,0.0002064095,5,1
-0.0001982676,0.0001939304,5,1
0.000115977,0.000187934,5,1
0.0003313618,0.0001832341,5,1
0.0003854917,0.0001720516,5,1
0.0002816078,0.0001509831,5,1
8.518459e-05,0.0001213252,5,1
-0.0001170729,9.361199e-05,5,1
-0.0002596904,7.351589e-05,5,1
-0.0003125237,6.265751e-05,5,1
-0.0002843243,6.055066e-05,5,1
-0.0002032917,6.849186e-05,5,1
-0.0001015147,7.983644e-05,5,1
-2.654814e-06,9.101894e-05,5,1
7.367795e-05,9.669123e-05,5,1
0.0001140322,9.16672e-05,5,1
0.0001172735,7.189524e-05,5,1
9.588091e-05,4.045456e-05,5,1
6.83298e-05,-7.100305e-07,5,1
4.483033e-05,-4.187462e-05,5,1
2.149292e-05,-7.542214e-05,5,1
-5.89612e-06,-9.940781e-05,5,1
-3.069211e-05,-0.0001161005,5,1
-3.441962e-05,-0.0001329553,5,1
1.290346e-05,-0.0001562927,5,1
0.0001412592,-0.0001888679,5,1
0.0003496752,-0.0002277635,5,1
0.0005864528,-0.0002650386,5,1
0.00076278,-0.0002964792,5,1
0.000809779,-0.0003160891,5,1
0.0007138362,-0.0003167374,5,1
0.0005204921,-0.0002930758,5,1
0.0003013798,-0.0002506147,5,1
0.0001242423,-0.00019924,5,1
3.121684e-05,-0.0001481895,5,1
4.207521e-05,-0.0001057284,5,1
0.0001566554,-7.850138e-05,5,1
0.0003436788,-6.197072e-05,5,1
0.0005464226,-4.90055e-05,5,1
0.0007084881,-3.668853e-05,5,1
0.0007989206,-2.923353e-05,5,1
0.0008186926,-2.923353e-05,5,1
0.0007836864,-3.539201e-05,5,1
0.0007141604,-4.074016e-05,5,1
0.0006276174,-3.766092e-05,5,1
0.0005477191,-2.680255e-05,5,1
0.0004906721,-1.092015e-05,5,1
0.0004555039,3.503668e-06,5,1
0.0004279528,7.555301e-06,5,1
0.0003973225,2.369211e-06,5,1
0.0003666921,-5.57199e-06,5,1
0.0003517821,-1.043395e-05,5,1
0.0003683128,-9.461558e-06,5,1
0.0004170944,-3.789272e-06,5,1
0.0004859722,5.286387e-06,5,1
0.0005519328,2.01964e-05,5,1
0.0005965008,4.207521e-05,5,1
0.0006071971,7.076078e-05,5,1
0.0005764047,0.0001077117,5,1
0.0005025029,0.0001540623,5,1
0.0003898674,0.0002039785,5,1
0.0002530843,0.0002480603,5,1
0.0001138702,0.0002759355,5,1
-4.923729e-06,0.0002887387,5,1
-9.308726e-05,0.0002898731,5,1
-0.0001588858,0.0002889007,5,1
-0.0002279256,0.0002942489,5,1
-0.0003198166,0.0003115899,5,1
-0.0004418518,0.0003358997,5,1
-0.000576528,0.0003571303,5,1
-0.0006917564,0.0003666921,5,1
-0.0007640376,0.000356482,5,1
-0.0007930472,0.0003271482,5,1
-0.0007943438,0.0002885766,5,1
-0.0007859163,0.0002516257,5,1
-0.0007818647,0.0002227781,5,1
-0.0007961266,0.0002012234,5,1
-0.0008293499,0.0001782101,5,1
-0.0008505805,0.0001492004,5,1
-0.0008155743,0.0001130598,5,1
-0.0007086112,7.384002e-05,5,1
-0.0005634008,3.721326e-05,5,1
-0.0004318037,7.23117e-06,5,1
-0.0003467195,-1.367526e-05,5,1
-0.0003128478,-2.485776e-05,5,1
-0.0003144685,-2.955766e-05,5,1
-0.0003266234,-2.761287e-05,5,1
-0.0003264613,-2.291298e-05,5,1
-0.0002895104,-2.064406e-05,5,1
-0.0001919471,-2.745081e-05,5,1
-3.279896e-05,-4.462973e-05,5,1
0.0001710792,-6.829127e-05,5,1
0.000388733,-9.422172e-05,5,1
0.0005916389,-0.0001216107,5,1
0.0007606731,-0.0001478653,5,1
0.0008856256,-0.0001739578,5,1
0.0009677928,-0.0002010227,5,1
0.001013657,-0.0002277635,5,1
0.001023705,-0.0002525595,5,1
0.0009943716,-0.0002700626,5,1
0.00092128,-0.0002791382,5,1
0.0007917897,-0.0002796244,5,1
0.0006041179,-0.0002689281,5,1
0.0003734989,-0.000253694,5,1
0.0001237561,-0.0002444563,5,1
-0.0001131834,-0.0002475355,5,1
-0.0003147926,-0.0002600145,5,1
-0.0004867439,-0.0002734659,5,1
-0.000645892,-0.0002749245,5,1
-0.0008035815,-0.0002616352,5,1
-0.0009447403,-0.0002334358,5,1
-0.001033552,-0.000191623,5,1
-0.001046841,-0.0001363587,5,1
-0.0009977358,-7.023606e-05,5,1
-0.0009249684,-8.165035e-06,5,1
-0.0008578734,3.170304e-05,5,1
-0.0007990437,3.996837e-05,5,1
-0.0007254661,1.501031e-05,5,1
-0.0006074825,-3.247483e-05,5,1
-0.0004355313,-7.850138e-05,5,1
-0.0002352185,-0.000102325,5,1
-5.289507e-05,-9.19528e-05,5,1
8.04847e-05,-5.483985e-05,5,1
0.0001751309,-6.220252e-06,5,1
0.0002738286,3.316162e-05,5,1
0.000426008,5.52025e-05,5,1
0.0006598685,6.427817e-05,5,1
0.0009694134,6.346784e-05,5,1
0.001307806,5.017848e-05,5,1
0.001612652,2.424803e-05,5,1
0.001826903,-9.623623e-06,5,1
0.001910529,-4.80331e-05,5,1
0.001861423,-8.692878e-05,5,1
0.001709243,-0.0001190177,5,1
0.001508606,-0.0001350622,5,1
0.001310561,-0.0001318209,5,1
0.001150603,-0.0001105903,5,1
0.001038453,-7.963584e-05,5,1
0.0009708721,-4.365734e-05,5,1
0.0009455899,-5.085794e-06,5,1
0.0009626067,3.251336e-05,5,1
0.001004258,6.557468e-05,5,1
0.001034888,9.442231e-05,5,1
0.001015278,0.0001180839,5,1
0.0009167422,0.0001342904,5,1
0.0007366874,0.0001423936,5,1
0.000495372,0.0001466074,5,1
0.0002328261,0.0001496866,5,1
5.286387e-06,0.0001542244,5,1
-0.0001460826,0.0001642725,5,1
-0.0002316531,0.0001825859,5,1
-0.0003047445,0.0002023578,5,1
-0.0004159214,0.0002099749,5,1
-0.0005792832,0.0002017096,5,1
-0.0007672789,0.0001808031,5,1
-0.0009372854,0.0001574657,5,1
-0.001062076,0.0001389903,5,1
-0.001139543,0.0001320215,5,1
-0.001178601,0.0001362352,5,1
-0.001192376,0.0001464453,5,1
-0.001189135,0.0001618415,5,1
-0.001178763,0.0001783722,5,1
-0.001168066,0.0001916615,5,1
-0.00116207,0.0001983062,5,1
-0.00116126,0.0001996027,5,1
-0.001167256,0.0001936063,5,1
-0.001177952,0.0001803169,5,1
-0.001187838,0.0001566554,5,1
-0.001182652,0.0001203528,5,1
-0.001147646,7.52986e-05,5,1
-0.001080227,2.716521e-05,5,1
-0.0009881739,-2.064406e-05,5,1
-0.0008904485,-6.780507e-05,5,1
-0.0008086055,-0.0001099421,5,1
-0.0007573929,-0.0001415448,5,1
-0.0007347037,-0.0001583996,5,1
-0.0007233592,-0.0001601823,5,1
-0.0007018045,-0.0001509446,5,1
-0.0006586951,-0.0001387897,5,1
-0.0005993792,-0.0001326312,5,1
-0.0005371462,-0.0001360346,5,1
-0.0004849611,-0.0001481895,5,1
-0.0004512515,-0.0001634236,5,1
-0.0004371519,-0.0001773612,5,1
-0.0004433104,-0.0001890299,5,1
-0.0004676201,-0.0002000504,5,1
-0.0004979264,-0.0002122053,5,1
-0.0005121881,-0.0002261429,5,1
-0.0004886886,-0.0002417012,5,1
-0.0004154351,-0.0002520733,5,1
-0.0003039342,-0.0002509389,5,1
-0.0001828714,-0.0002352185,5,1
-8.044617e-05,-0.0002120432,5,1
-1.108221e-05,-0.0001870851,5,1
2.003433e-05,-0.0001624512,5,1
9.338019e-06,-0.0001360346,5,1
-4.090223e-05,-0.0001057284,5,1
-0.0001261486,-7.444975e-05,5,1
-0.0002381357,-4.414354e-05,5,1
-0.0003697327,-1.25408e-05,5,1
-0.0005052193,1.9224e-05,5,1
-0.0006222305,4.466826e-05,5,1
-0.0006962943,5.94162e-05,5,1
-0.0007133111,6.978839e-05,5,1
-0.0006667984,8.534666e-05,5,1
-0.0005531906,0.0001069013,5,1
-0.0003760533,0.0001310491,5,1
-0.0001472171,0.000153252,5,1
0.000108522,0.0001642725,5,1
0.0003589129,0.0001654069,5,1
0.0005833735,0.0001577899,5,1
0.0007763935,0.0001480659,5,1
0.0009292212,0.0001425557,5,1
0.001027109,0.0001385041,5,1
0.001051094,0.000130887,5,1
0.001006527,0.0001221355,5,1
0.0009340832,0.0001195424,5,1
0.0008872462,0.0001302388,5,1
0.0009060458,0.0001522796,5,1
0.000992913,0.0001746447,5,1
0.001112841,0.0001884202,5,1
0.001227098,0.0001914995,5,1
0.001320934,0.0001835583,5,1
0.001401318,0.0001665414,5,1
0.001472465,0.0001467694,5,1
0.001524002,0.0001287802,5,1
0.001531133,0.0001177597,5,1
0.001468089,0.0001150046,5,1
0.001333251,0.0001239182,5,1
0.001152385,0.0001394765,5,1
0.0009540173,0.0001558451,5,1
0.0007608352,0.0001688103,5,1
0.0005892079,0.0001746447,5,1
0.0004593935,0.0001756171,5,1
0.0003874365,0.000177886,5,1
0.0003660439,0.0001859892,5,1
0.0003592371,0.0001981441,5,1
0.0003263378,0.0002055991,5,1
0.000247412,0.0002012234,5,1
0.0001328318,0.0001838824,5,1
1.54965e-05,0.0001577899,5,1
-7.23429e-05,0.0001266733,5,1
-0.0001263107,9.814982e-05,5,1
-0.0001713648,7.918817e-05,5,1
-0.0002337599,7.286763e-05,5,1
-0.0003211132,7.870197e-05,5,1
-0.0004193247,8.858796e-05,5,1
-0.0004963057,9.247754e-05,5,1
-0.0005219121,8.534666e-05,5,1
-0.0004867439,6.41161e-05,5,1
-0.0004133283,3.251336e-05,5,1
-0.0003369955,-6.382317e-06,5,1
-0.0002796244,-4.641245e-05,5,1
-0.0002374874,-8.012204e-05,5,1
-0.0002042641,-0.0001002181,5,1
-0.0001763888,-0.0001086455,5,1
-0.0001381414,-0.0001139937,5,1
-6.342931e-05,-0.0001274451,5,1
7.853991e-05,-0.0001512687,5,1
0.0003085106,-0.0001791439,5,1
0.0006080075,-0.0002018331,5,1
0.000911232,-0.0002144742,5,1
0.001138124,-0.0002230636,5,1
0.00124298,-0.0002374874,5,1
0.001226125,-0.0002634179,5,1
0.001111221,-0.0002906449,5,1
0.0009305178,-0.0003060411,5,1
0.00071335,-0.0003021515,5,1
0.0004874308,-0.0002827037,5,1
0.0002793389,-0.0002569353,5,1
0.0001044704,-0.0002347323,5,1
-3.782299e-05,-0.0002222533,5,1
-0.0001716889,-0.0002237119,5,1
-0.0003214373,-0.0002324634,5,1
-0.0004992229,-0.0002310048,5,1
-0.0006933771,-0.0002086398,5,1
-0.0008729455,-0.0001679614,5,1
-0.001004867,-0.0001183694,5,1
-0.00105689,-7.33153e-05,5,1
-0.001013942,-4.05781e-05,5,1
-0.0008873693,-2.145439e-05,5,1
-0.000713149,-1.092015e-05,5,1
-0.0005407116,-1.358292e-06,5,1
-0.0004131662,1.031041e-05,5,1
-0.0003540124,2.505836e-05,5,1
-0.0003613053,3.753739e-05,5,1
-0.0004188385,4.385793e-05,5,1
-0.0005149432,4.045456e-05,5,1
-0.0006303337,2.975825e-05,5,1
-0.0007350279,1.663096e-05,5,1
-0.0008068228,9.824215e-06,5,1
-0.000842153,1.355172e-05,5,1
-0.0008515528,2.635488e-05,5,1
-0.0008483115,4.790957e-05,5,1
-0.000832267,7.465034e-05,5,1
-0.0007907783,9.928428e-05,5,1
-0.0007188214,0.0001132219,5,1
-0.0006293613,0.0001154908,5,1
-0.0005439529,0.0001090082,5,1
-0.0004851232,9.863601e-05,5,1
-0.0004528722,9.31258e-05,5,1
-0.0004172179,9.490851e-05,5,1
-0.0003342404,0.00010366,5,1
-0.0001791439,0.000118408,5,1
1.97102e-05,0.000133318,5,1
0.0001974959,0.0001464453,5,1
0.0002981384,0.0001553589,5,1
0.0003059176,0.0001564933,5,1
0.0002585945,0.0001462832,5,1
0.0002174299,0.0001266733,5,1
0.0002295848,0.0001044704,5,1
0.000304297,8.437427e-05,5,1
0.0004120704,6.557468e-05,5,1
0.0005070407,4.661304e-05,5,1
0.0005496639,3.235129e-05,5,1
0.0005232473,3.13789e-05,5,1
0.0004384871,5.017848e-05,5,1
0.0003258516,8.064677e-05,5,1
0.0002247229,0.000113384,5,1
0.0001710792,0.0001438522,5,1
0.0001749688,0.0001678379,5,1
0.0002214815,0.0001825859,5,1
0.0002960316,0.0001801549,5,1
0.0004166082,0.0001577899,5,1
0.0006102764,0.0001205148,5,1
0.000864395,7.30297e-05,5,1
0.001105873,1.841368e-05,5,1
0.001248977,-4.155049e-05,5,1
0.00124849,-0.0001032974,5,1
0.0011237,-0.0001629374,5,1
0.0009319764,-0.0002170672,5,1
0.0007292324,-0.000261311,5,1
0.000544964,-0.000290969,5,1
0.0003841952,-0.0003005308,5,1
0.0002422259,-0.0002883759,5,1
0.0001094944,-0.0002577456,5,1
-2.064406e-05,-0.0002188499,5,1
-0.000137169,-0.0001870851,5,1
-0.0002180396,-0.0001684476,5,1
-0.0002368392,-0.0001572651,5,1
-0.0001872472,-0.0001447861,5,1
-9.535618e-05,-0.0001266348,5,1
-1.237873e-05,-9.956988e-05,5,1
1.257933e-05,-6.650855e-05,5,1
-4.576419e-05,-2.907146e-05,5,1
-0.0001776853,5.124321e-06,5,1
-0.0003442885,3.040651e-05,5,1
-0.0005001953,4.239934e-05,5,1
-0.0006165582,4.499239e-05,5,1
-0.0006927288,4.142696e-05,5,1
-0.0007458862,3.267542e-05,5,1
-0.0007889956,1.582063e-05,5,1
-0.0008100641,-3.627206e-06,5,1
-0.0007870508,-1.399939e-05,5,1
-0.0007120146,-9.137427e-06,5,1
-0.0006026206,6.744974e-06,5,1
-0.0004987367,2.084466e-05,5,1
-0.0004421759,2.522042e-05,5,1
-0.0004463896,2.068259e-05,5,1
-0.0004932265,9.175954e-06,5,1
-0.0005460597,-3.465141e-06,5,1
-0.0005749074,-1.497178e-05,5,1
-0.0005736109,-2.550602e-05,5,1
-0.0005489769,-3.733679e-05,5,1
-0.0005074882,-5.208474e-05,5,1
-0.0004467137,-6.618442e-05,5,1
-0.0003608192,-7.493595e-05,5,1
-0.0002460769,-7.412562e-05,5,1
-0.0001055663,-6.116039e-05,5,1
4.758544e-05,-4.041603e-05,5,1
0.0001906891,-1.513384e-05,5,1
0.0003062417,1.014835e-05,5,1
0.0003879227,3.283749e-05,5,1
0.0004454559,4.953022e-05,5,1
0.0004924549,6.362991e-05,5,1
0.0005378332,8.226741e-05,5,1
0.0005739738,0.000113384,5,1
0.0005833735,0.0001586002,5,1
0.0005540397,0.0002104611,5,1
0.0004931031,0.0002605393,5,1
0.0004174185,0.0003000832,5,1
0.0003331446,0.0003247172,5,1
0.0002346088,0.0003289309,5,1
0.0001201907,0.0003128864,5,1
5.934648e-06,0.0002809595,5,1
-8.044617e-05,0.0002446569,5,1
-0.0001209625,0.0002115956,5,1
-0.000127283,0.00018291,5,1
-0.0001258245,0.0001587623,5,1
-0.0001405724,0.0001441764,5,1
-0.0001728234,0.0001467694,5,1
-0.0002078295,0.0001660552,5,1
-0.0002266291,0.0001913374,5,1
-0.0002230636,0.0002091646,5,1
-0.0002068571,0.0002130541,5,1
-0.0001882196,0.0002000889,5,1
-0.0001746061,0.0001731861,5,1
-0.0001784957,0.0001419075,5,1
-0.0002081536,0.0001128978,5,1
-0.0002549905,9.101894e-05,5,1
-0.000303448,7.610894e-05,5,1
-0.0003421817,6.525056e-05,5,1
-0.0003702189,5.374392e-05,5,1
-0.0003948528,4.061663e-05,5,1
-0.0004267797,3.089271e-05,5,1
-0.0004674581,2.570662e-05,5,1
-0.0005010056,1.744129e-05,5,1
-0.0004987367,-5.479652e-07,5,1
-0.0004371519,-2.826114e-05,5,1
-0.000320789,-5.759496e-05,5,1
-0.0001699062,-7.963584e-05,5,1
-1.092015e-05,-8.838737e-05,5,1
0.0001375317,-8.838737e-05,5,1
0.0002574601,-9.017008e-05,5,1
0.0003352514,-0.0001010285,5,1
0.0003600474,-0.0001219349,5,1
0.0003329825,-0.0001472171,5,1
0.000267346,-0.0001705545,5,1
0.0001872858,-0.0001830335,5,1
0.0001179218,-0.0001815749,5,1
6.314371e-05,-0.0001681235,5,1
1.889987e-05,-0.0001455964,5,1
-1.659243e-05,-0.0001214487,5,1
-4.446767e-05,-0.0001078352,5,1
-6.035007e-05,-0.0001110765,5,1
-6.035007e-05,-0.0001324691,5,1
-3.344723e-05,-0.0001676373,5,1
2.684107e-05,-0.0002047502,5,1
0.0001190562,-0.0002329496,5,1
0.0002265056,-0.0002483458,5,1
0.0003229345,-0.0002553146,5,1
0.0003843572,-0.0002551526,5,1
0.0004008879,-0.0002457528,5,1
0.0003759298,-0.0002287359,5,1
0.0003229345,-0.0002118811,5,1
0.0002639427,-0.0002055606,5,1
0.0002260194,-0.0002094502,5,1
0.0002222919,-0.0002120432,5,1
0.0002569738,-0.00019924,5,1
0.0003274723,-0.0001645581,5,1
0.0004217943,-0.0001146419,5,1
0.0005119027,-6.002594e-05,5,1
0.0005668429,-1.140634e-05,5,1
0.0005668429,2.359977e-05,5,1
0.0005093097,4.369587e-05,5,1
0.0004130428,5.098881e-05,5,1
0.0003101313,5.212327e-05,5,1
0.0002284504,5.309566e-05,5,1
0.0001744826,5.876794e-05,5,1
0.0001338042,7.157111e-05,5,1
8.259155e-05,9.377406e-05,5,1
8.851824e-06,0.0001278078,5,1
-8.206682e-05,0.0001686482,5,1
-0.0001807646,0.000210299,5,1
-0.0002718453,0.0002436845,5,1
-0.0003384541,0.0002615117,5,1
-0.0003671397,0.0002605393,5,1
-0.0003593606,0.000244981,5,1
-0.0003277578,0.0002214815,5,1
-0.0002862691,0.000192796,5,1
-0.0002499665,0.0001628139,5,1
-0.0002323013,0.000135749,5,1
-0.0002420253,0.0001125736,5,1
-0.0002780038,9.296373e-05,5,1
-0.0003267854,7.189524e-05,5,1
-0.0003613053,5.050261e-05,5,1
-0.000355633,3.089271e-05,5,1
-0.0003068514,1.97102e-05,5,1
-0.0002327876,1.744129e-05,5,1
-0.0001577513,2.003433e-05,5,1
-9.19528e-05,2.716521e-05,5,1
-3.393342e-05,4.045456e-05,5,1
2.716521e-05,5.682316e-05,5,1
0.0001148425,7.432621e-05,5,1
0.000247412,9.037068e-05,5,1
0.0004227667,0.0001044704,5,1
0.0006089798,0.0001125736,5,1
0.0007564594,0.0001088461,5,1
0.000829713,9.588091e-05,5,1
0.0008238787,7.562274e-05,5,1
0.0007561353,5.56887e-05,5,1
0.0006517651,3.98063e-05,5,1
0.0005439916,2.959619e-05,5,1
0.0004764104,2.230325e-05,5,1
0.0004806241,1.452411e-05,5,1
0.0005589016,3.989864e-06,5,1
0.000690985,-8.327101e-06,5,1
0.0008621261,-1.918548e-05,5,1
0.001063736,-2.615429e-05,5,1
0.001270531,-2.809907e-05,5,1
0.001419956,-2.874733e-05,5,1
0.001432111,-3.085418e-05,5,1
0.001257728,-3.247483e-05,5,1
0.0009143112,-2.728874e-05,5,1
0.000480462,-9.299493e-06,5,1
6.444023e-05,1.889987e-05,5,1
-0.0002327876,4.645098e-05,5,1
-0.0003577399,5.974033e-05,5,1
-0.0003156029,4.807163e-05,5,1
-0.0001713648,9.175954e-06,5,1
-1.318906e-05,-4.236082e-05,5,1
8.810177e-05,-9.098041e-05,5,1
9.442231e-05,-0.0001285796,5,1
-6.176923e-08,-0.0001538618,5,1
-0.0001697442,-0.0001653684,5,1
-0.0003718396,-0.0001608306,5,1
-0.0005677765,-0.0001412206,5,1
-0.0007304901,-0.0001169109,5,1
-0.0008463667,-9.794922e-05,5,1
-0.000911517,-8.935975e-05,5,1
-0.0009261029,-9.065628e-05,5,1
-0.0008923933,-9.649064e-05,5,1
-0.0008311326,-0.0001011905,5,1
-0.0007755442,-0.0001010285,5,1
-0.0007470207,-9.584238e-05,5,1
-0.0007405381,-9.033215e-05,5,1
-0.0007371347,-8.838737e-05,5,1
-0.0007220627,-8.952183e-05,5,1
-0.000680574,-8.984595e-05,5,1
-0.0006016482,-8.530812e-05,5,1
-0.0004930644,-7.526008e-05,5,1
-0.0003844807,-6.0188e-05,5,1
-0.0003201407,-4.544006e-05,5,1
-0.0003301888,-3.960571e-05,5,1
-0.0004084663,-4.511593e-05,5,1
-0.0005065158,-4.85193e-05,5,1
-0.0005706937,-3.377136e-05,5,1
-0.0005625904,3.341602e-06,5,1
-0.00047232,5.277153e-05,5,1
-0.0003361852,9.490851e-05,5,1
-0.0002130156,0.0001187321,5,1
-0.0001357104,0.0001218114,5,1
-9.503204e-05,0.0001083599,5,1
-6.051213e-05,8.388807e-05,5,1
5.86492e-07,4.936815e-05,5,1
9.68533e-05,2.531276e-06,5,1
0.0002117576,-4.916756e-05,5,1
0.0003064038,-9.535618e-05,5,1
0.0003358997,-0.000127283,5,1
0.00027707,-0.0001417068,5,1
0.0001449867,-0.0001402483,5,1
-1.788895e-05,-0.0001263107,5,1
-0.0001645581,-0.0001028112,5,1
-0.0002608248,-7.266703e-05,5,1
-0.0002888622,-3.441962e-05,5,1
-0.0002491561,1.063454e-05,5,1
-0.00016942,5.747142e-05,5,1
-8.725291e-05,0.0001012291,5,1
-3.117831e-05,0.00013818,5,1
-1.520357e-06,0.0001702689,5,1
2.457216e-05,0.0001981441,5,1
7.140904e-05,0.0002224539,5,1
0.0001399627,0.0002384984,5,1
0.0002030061,0.0002415777,5,1
0.0002307193,0.0002284504,5,1
0.0002119197,0.0002055991,5,1
0.0001548727,0.0001856651,5,1
8.113296e-05,0.0001770756,5,1
1.322759e-05,0.0001809652,5,1
-3.377136e-05,0.0001913374,5,1
-5.2733e-05,0.0002039785,5,1
-4.300908e-05,0.0002124059,5,1
-1.659243e-05,0.0002169437,5,1
1.468618e-05,0.0002192126,5,1
3.834771e-05,0.0002162954,5,1
4.693717e-05,0.0002039785,5,1
3.834771e-05,0.0001795066,5,1
2.165498e-05,0.0001451488,5,1
7.069105e-06,0.000103498,5,1
3.341602e-06,6.281957e-05,5,1
1.484824e-05,2.943412e-05,5,1
4.304761e-05,7.555301e-06,5,1
9.069481e-05,-6.868513e-06,5,1
0.0001540623,-1.805102e-05,5,1
0.0002085163,-2.745081e-05,5,1
0.0002159713,-3.571614e-05,5,1
0.0001522796,-4.544006e-05,5,1
2.214118e-05,-5.613637e-05,5,1
-0.0001426792,-6.926366e-05,5,1
-0.0003044204,-8.141856e-05,5,1
-0.0004353692,-8.935975e-05,5,1
-0.0005198052,-9.519411e-05,5,1
-0.0005527044,-0.0001011905,5,1
-0.0005350393,-0.0001089697,5,1
-0.0004825302,-0.0001199901,5,1
-0.0004139766,-0.0001331174,5,1
-0.0003488263,-0.0001478653,5,1
-0.0002945344,-0.0001648822,5,1
-0.0002517492,-0.0001883817,5,1
-0.0002149604,-0.0002207947,5,1
-0.0001812508,-0.0002543422,5,1
-0.0001541859,-0.0002791382,5,1
-0.0001295519,-0.0002924276,5,1
-9.162867e-05,-0.0002946965,5,1
-2.923353e-05,-0.0002854588,5,1
5.439218e-05,-0.0002640662,5,1
0.0001370455,-0.0002323013,5,1
0.0001848548,-0.0001938919,5,1
0.000170593,-0.0001512687,5,1
9.31258e-05,-0.0001084835,5,1
-1.497178e-05,-7.039812e-05,5,1
-9.859748e-05,-3.766092e-05,5,1
-0.0001032974,-8.327101e-06,5,1
-3.627206e-06,1.954813e-05,5,1
0.0001866375,4.596478e-05,5,1
0.0004235771,7.367795e-05,5,1
0.0006516031,0.0001017153,5,1
0.0008094548,0.0001248906,5,1
0.0008373301,0.0001406109,5,1
0.0007122156,0.0001466074,5,1
0.0004731691,0.0001423936,5,1
0.0002018716,0.0001273216,5,1
-1.788895e-05,0.0001009049,5,1
-0.000127121,7.043665e-05,5,1
-0.0001021629,5.050261e-05,5,1
3.818565e-05,5.163707e-05,5,1
0.0002331503,7.319176e-05,5,1
0.0004128807,0.0001099806,5,1
0.0005316747,0.0001522796,5,1
0.0005804563,0.0001902029,5,1
0.0005804563,0.0002158093,5,1
0.0005561466,0.000222616,5,1
0.000507689,0.0002119197,5,1
0.0004281149,0.0001940925,5,1
0.0003159656,0.0001736723,5,1
0.0001764274,0.0001524417,5,1
2.586868e-05,0.0001289422,5,1
-0.0001167488,0.0001022015,5,1
-0.0002276015,7.789165e-05,5,1
-0.0002895104,6.152305e-05,5,1
-0.0003047445,4.709924e-05,5,1
-0.0002989102,3.105477e-05,5,1
-0.000303286,1.274139e-05,5,1
-0.000335537,-4.113403e-06,5,1
-0.000395339,-1.318906e-05,5,1
-0.0004706994,-1.108221e-05,5,1
-0.0005426564,3.017472e-06,5,1
-0.0005825245,2.781346e-05,5,1
-0.0005611319,5.876794e-05,5,1
-0.0004587066,9.020862e-05,5,1
-0.0002765452,0.0001192183,5,1
-3.604027e-05,0.0001423936,5,1
0.000235095,0.0001611932,5,1
0.0005224369,0.0001709172,5,1
0.0008143168,0.0001662173,5,1
0.001081077,0.0001488763,5,1
0.001275393,0.0001268354,5,1
0.001348485,0.0001081979,5,1
0.0012775,9.490851e-05,5,1
0.001075404,8.259155e-05,5,1
0.000784983,6.946425e-05,5,1
0.0004699278,5.730935e-05,5,1
0.0002128921,4.807163e-05,5,1
8.502253e-05,4.045456e-05,5,1
0.0001127357,3.056858e-05,5,1
0.0002626462,9.986281e-06,5,1
0.0004571246,-2.809907e-05,5,1
0.0006177314,-8.239095e-05,5,1
0.0006966573,-0.000137169,5,1
0.0006791542,-0.0001788198,5,1
0.0005760806,-0.0002006986,5,1
0.0004229288,-0.0002099363,5,1
0.0002571359,-0.0002136638,5,1
0.000101067,-0.0002175534,5,1
-3.701266e-05,-0.0002263049,5,1
-0.0001451102,-0.0002415391,5,1
-0.0002099363,-0.0002574215,5,1
-0.0002263049,-0.0002666592,5,1
-0.0002094502,-0.0002671454,5,1
-0.0001750923,-0.0002609869,5,1
-0.0001277692,-0.0002491561,5,1
-6.715681e-05,-0.0002376495,5,1
3.827799e-06,-0.0002277635,5,1
7.092284e-05,-0.000219012,5,1
0.0001227837,-0.0002083157,5,1
0.000145635,-0.000194216,5,1
0.0001193804,-0.0001773612,5,1
3.024445e-05,-0.0001583996,5,1
-0.0001143178,-0.0001387897,5,1
-0.000290969,-0.0001211246,5,1
-0.0004731304,-0.0001078352,5,1
-0.0006351956,-9.730096e-05,5,1
-0.0007517206,-8.465986e-05,5,1
-0.0007993678,-6.229485e-05,5,1
-0.0007714926,-2.647842e-05,5,1
-0.000685436,2.327564e-05,5,1
-0.0005736109,8.405014e-05,5,1
-0.0004643789,0.000145635,5,1
-0.0003734602,0.000190365,5,1
-0.0003016653,0.000210137,5,1
-0.0002433218,0.000207706,5,1
-0.0001878955,0.0001913374,5,1
-0.0001332795,0.0001662173,5,1
-8.595638e-05,0.000135749,5,1
-5.240886e-05,0.000106091,5,1
-2.971972e-05,8.340187e-05,5,1
-1.529591e-05,6.978839e-05,5,1
-1.416145e-05,6.346784e-05,5,1
-2.46957e-05,6.217132e-05,5,1
-4.511593e-05,6.281957e-05,5,1
-7.493595e-05,6.670914e-05,5,1
-0.0001115627,7.400208e-05,5,1
-0.0001517549,8.453633e-05,5,1
-0.0001958367,9.928428e-05,5,1
-0.0002421874,0.0001151667,5,1
-0.0002875656,0.0001286181,5,1
-0.0003369955,0.0001402868,5,1
-0.000397608,0.0001519555,5,1
-0.0004700511,0.0001668655,5,1
-0.0005509217,0.000187772,5,1
-0.0006251476,0.0002161334,5,1
-0.000680574,0.0002542187,5,1
-0.0007113663,0.0002974902,5,1
-0.0007136352,0.000331686,5,1
-0.0006875428,0.0003425444,5,1
-0.000640868,0.0003282826,5,1
-0.0005893312,0.0002978143,5,1
-0.000544277,0.0002639427,5,1
-0.0004992229,0.0002341226,5,1
-0.0004256453,0.0002060853,5,1
-0.0002908069,0.0001775618,5,1
-9.778715e-05,0.0001475797,5,1
0.0001015532,0.0001140322,5,1
0.0002482223,7.643307e-05,5,1
0.000314345,3.769945e-05,5,1
0.0003030004,2.207145e-06,5,1
0.0002359054,-2.84232e-05,5,1
0.0001433661,-5.451572e-05,5,1
5.244739e-05,-7.801519e-05,5,1
-2.654814e-06,-9.357346e-05,5,1
2.531276e-06,-9.892161e-05,5,1
6.508849e-05,-9.827335e-05,5,1
0.0001503349,-9.632857e-05,5,1
0.0002107852,-9.762509e-05,5,1
0.0002106232,-0.0001062146,5,1
0.0001419075,-0.0001263107,5,1
2.797553e-05,-0.0001558065,5,1
-9.227693e-05,-0.0001950263,5,1
-0.0001880575,-0.0002402425,5,1
-0.0002519113,-0.0002827037,5,1
-0.0002843243,-0.0003117133,5,1
-0.0002823795,-0.0003238683,5,1
-0.000238946,-0.0003170615,5,1
-0.0001548341,-0.0002917793,5,1
-4.932962e-05,-0.0002570974,5,1
5.017848e-05,-0.000224036,5,1
0.0001112771,-0.0002006986,5,1
0.0001128978,-0.0001938919,5,1
4.709924e-05,-0.0001977815,5,1
-7.574627e-05,-0.0002006986,5,1
-0.0002241981,-0.0001929195,5,1
-0.0003598467,-0.0001697442,5,1
-0.000452386,-0.0001360346,5,1
-0.0004809095,-0.0001045939,5,1
-0.0004413656,-8.352541e-05,5,1
-0.0003517435,-7.526008e-05,5,1
-0.0002405667,-7.688073e-05,5,1
-0.000142031,-8.352541e-05,5,1
-9.924574e-05,-8.952183e-05,5,1
-0.0001455964,-8.968389e-05,5,1
-0.0002857829,-8.239095e-05,5,1
-0.0004901472,-6.91016e-05,5,1
-0.0007141214,-5.759496e-05,5,1
-0.0009154066,-5.046408e-05,5,1
-0.001059969,-4.47918e-05,5,1
-0.001113288,-3.555408e-05,5,1
-0.0010483,-1.967167e-05,5,1
-0.0008617629,6.258778e-06,5,1
-0.0005703696,3.996837e-05,5,1
-0.0002159328,7.708133e-05,5,1
0.0001404489,0.0001073875,5,1
0.0004401077,0.000128294,5,1
0.0006645683,0.0001414213,5,1
0.000834575,0.0001504969,5,1
0.0009877268,0.0001600588,5,1
0.001171833,0.0001738343,5,1
0.001425628,0.0001949028,5,1
0.001751866,0.0002193747,5,1
0.002096256,0.0002389846,5,1
0.002383599,0.0002464396,5,1
0.002566572,0.0002420638,5,1
0.002635612,0.0002333123,5,1
0.002602227,0.00022764,5,1
0.002479543,0.000227478,5,1
0.002277122,0.0002313675,5,1
0.002010361,0.0002313675,5,1
0.001703085,0.0002213195,5,1
0.001394512,0.00019782,5,1
0.001136665,0.0001671896,5,1
0.0009708721,0.0001406109,5,1
0.000926304,0.0001255389,5,1
0.0009987473,0.0001248906,5,1
0.001134396,0.0001338042,5,1
0.001237146,0.0001453108,5,1
0.001223694,0.0001514693,5,1
0.00106406,0.0001500107,5,1
0.0007864416,0.0001422316,5,1
0.0004474007,0.0001297526,5,1
0.0001002567,0.0001132219,5,1
-0.0002194982,9.620504e-05,5,1
-0.0004961436,7.90261e-05,5,1
-0.0007290315,5.876794e-05,5,1
-0.0009183238,3.769945e-05,5,1
-0.001063696,1.760335e-05,5,1
-0.001159477,1.002961e-07,5,1
-0.001209069,-1.416145e-05,5,1
-0.001223655,-2.404744e-05,5,1
-0.001216038,-3.053005e-05,5,1
-0.001202586,-3.506788e-05,5,1
-0.001202748,-3.911951e-05,5,1
-0.001229975,-4.300908e-05,5,1
-0.001282485,-4.85193e-05,5,1
-0.001339207,-5.370539e-05,5,1
-0.001370324,-5.710876e-05,5,1
-0.001362869,-5.970181e-05,5,1
-0.001319922,-6.06742e-05,5,1
-0.001248451,-6.180866e-05,5,1
-0.001152346,-6.407757e-05,5,1
-0.001033876,-7.299116e-05,5,1
-0.0008975794,-8.806324e-05,5,1
-0.0007486413,-0.0001052422,5,1
-0.000601162,-0.0001211246,5,1
-0.0004757234,-0.0001355484,5,1
-0.0003891806,-0.0001511067,5,1
-0.0003363473,-0.000171851,5,1
-0.0002893484,-0.0001982676,5,1
-0.0002194982,-0.0002259808,5,1
-0.0001305243,-0.0002475355,5,1
-4.608832e-05,-0.0002570974,5,1
1.209313e-05,-0.0002545043,5,1
3.056858e-05,-0.0002457528,5,1
9.338019e-06,-0.0002357047,5,1
-3.539201e-05,-0.0002233878,5,1
-8.07703e-05,-0.0002047502,5,1
-0.0001096179,-0.0001797922,5,1
-0.0001151281,-0.0001536997,5,1
-9.438378e-05,-0.0001245279,5,1
-5.240886e-05,-8.854943e-05,5,1
-4.113403e-06,-4.770897e-05,5,1
3.170304e-05,-1.853722e-05,5,1
4.645098e-05,-1.967167e-05,5,1
3.786152e-05,-5.386745e-05,5,1
5.772582e-06,-0.000102325,5,1
-5.030202e-05,-0.0001391138,5,1
-0.0001201522,-0.0001478653,5,1
-0.0001827094,-0.0001287416,5,1
-0.0002162569,-8.790117e-05,5,1
-0.0002099363,-3.798505e-05,5,1
-0.0001598582,1.193106e-05,5,1
-7.704279e-05,5.763349e-05,5,1
4.638125e-06,9.555677e-05,5,1
5.325772e-05,0.0001255389,5,1
5.860588e-05,0.0001509831,5,1
3.526847e-05,0.0001786963,5,1
1.241726e-05,0.000210137,5,1
1.711715e-05,0.0002365536,5,1
5.61749e-05,0.0002464396,5,1
0.0001140322,0.0002360674,5,1
0.0001595726,0.000210299,5,1
0.0001602208,0.0001809652,5,1
0.0001051186,0.0001600588,5,1
2.538249e-05,0.0001501728,5,1
-2.89094e-05,0.000145635,5,1
-2.453363e-05,0.0001385041,5,1
3.753739e-05,0.000123432,5,1
0.0001396385,0.0001017153,5,1
0.0002705873,8.080883e-05,5,1
0.0004196875,7.724339e-05,5,1
0.000572029,9.782569e-05,5,1
0.0006994124,0.0001396385,5,1
0.0007760693,0.0001840444,5,1
0.0008010275,0.0002070577,5,1
0.0007859553,0.0001983062,5,1
0.0007357151,0.0001645966,5,1
0.0006459308,0.0001218114,5,1
0.0005167646,8.583286e-05,5,1
0.0003679886,6.362991e-05,5,1
0.0002307193,5.374392e-05,5,1
0.0001334801,5.260946e-05,5,1
9.571884e-05,5.633696e-05,5,1
0.0001044704,6.071273e-05,5,1
0.0001177597,6.719535e-05,5,1
8.858796e-05,8.032264e-05,5,1
-4.599598e-06,9.604298e-05,5,1
-0.0001517549,0.0001094944,5,1
-0.0003149546,0.0001153287,5,1
-0.0004541688,0.0001093323,5,1
-0.0005480045,8.567078e-05,5,1
-0.000593869,4.013043e-05,5,1
-0.0005969483,-2.129233e-05,5,1
-0.000561456,-8.644259e-05,5,1
-0.0004961436,-0.0001397621,5,1
-0.00042759,-0.000176875,5,1
-0.0003812394,-0.0001995642,5,1
-0.0003671397,-0.0002081536,5,1
-0.000375405,-0.0002049123,5,1
-0.0003942046,-0.0001906506,5,1
-0.0004173799,-0.0001613168,5,1
-0.0004476861,-0.0001146419,5,1
-0.0004899852,-5.856735e-05,5,1
-0.0005382806,-5.085794e-06,5,1
-0.0005807417,3.267542e-05,5,1
-0.0006031067,4.855783e-05,5,1
-0.0005906277,4.320967e-05,5,1
-0.0005314739,2.084466e-05,5,1
-0.0004188385,-1.25408e-05,5,1
-0.0002515871,-4.122636e-05,5,1
-3.539201e-05,-4.38194e-05,5,1
0.0002047888,-8.489166e-06,5,1
0.0004326527,5.309566e-05,5,1
0.0006170832,0.0001075496,5,1
0.0007441425,0.000123432,5,1
0.0008117238,9.247754e-05,5,1
0.0008143168,2.651694e-05,5,1
0.0007399287,-5.451572e-05,5,1
0.0005742979,-0.0001300382,5,1
0.000324231,-0.0001827094,5,1
3.672706e-05,-0.000206533,5,1
-0.0002094502,-0.0002052365,5,1
-0.0003415334,-0.0001882196,5,1
-0.0003293785,-0.0001640719,5,1
-0.0002003745,-0.0001383035,5,1
-1.027188e-05,-0.0001133454,5,1
0.0001902029,-9.179074e-05,5,1
0.0003637749,-7.347736e-05,5,1
0.0004892136,-6.002594e-05,5,1
0.00055485,-5.159854e-05,5,1
0.0005691118,-4.722278e-05,5,1
0.0005580913,-4.738484e-05,5,1
0.0005430193,-5.192267e-05,5,1
0.0005204921,-5.710876e-05,5,1
0.0004841895,-6.164659e-05,5,1
0.0004491834,-6.116039e-05,5,1
0.0004350837,-5.062615e-05,5,1
0.0004504799,-3.231277e-05,5,1
0.0004901859,-1.173047e-05,5,1
0.0005441537,4.47606e-06,5,1
0.0005971491,1.371378e-05,5,1
0.0006230795,1.452411e-05,5,1
0.000599256,3.341602e-06,5,1
0.0005097958,-1.805102e-05,5,1
0.0003582647,-3.960571e-05,5,1
0.0001692965,-4.365734e-05,5,1
-1.221667e-05,-1.367526e-05,5,1
-0.0001426792,5.585077e-05,5,1
-0.0002044261,0.0001483901,5,1
-0.0002146363,0.0002337985,5,1
-0.0002160948,0.0002872801,5,1
-0.0002444563,0.0003000832,5,1
-0.0003031239,0.0002803113,5,1
-0.0003656811,0.0002464396,5,1
-0.0004036044,0.0002138645,5,1
-0.0004006872,0.0001919856,5,1
-0.0003626019,0.0001835583,5,1
-0.0003076617,0.0001832341,5,1
-0.0002506147,0.0001791825,5,1
-0.0001968091,0.0001665414,5,1
-0.0001449482,0.0001561692,5,1
-9.811128e-05,0.0001671896,5,1
-6.164659e-05,0.000210299,5,1
-3.766092e-05,0.0002692908,5,1
-2.485776e-05,0.0003104554,5,1
-2.307504e-05,0.0003030004,5,1
-4.05781e-05,0.0002380122,5,1
-8.563225e-05,0.0001339663,5,1
-0.0001465688,2.149292e-05,5,1
-0.0001982676,-7.007399e-05,5,1
-0.0002237119,-0.0001258245,5,1
-0.0002258187,-0.0001464067,5,1
-0.0002157707,-0.0001442999,5,1
-0.0002006986,-0.000132145,5,1
-0.0001919471,-0.0001185315,5,1
-0.0002060468,-0.0001088076,5,1
-0.0002577456,-0.0001068628,5,1
-0.0003523917,-0.0001105903,5,1
-0.0004749131,-0.0001183694,5,1
-0.0005904656,-0.0001255003,5,1
-0.0006664743,-0.0001285796,5,1
-0.0006800878,-0.0001289037,5,1
-0.0006232028,-0.000127121,5,1
-0.0005068399,-0.0001242038,5,1
-0.0003598467,-0.0001130213,5,1
-0.0002078295,-8.790117e-05,5,1
-7.104638e-05,-5.581224e-05,5,1
3.688912e-05,-2.7937e-05,5,1
0.0001107909,-1.67545e-05,5,1
0.0001545486,-2.534396e-05,5,1
0.0001756171,-5.2733e-05,5,1
0.0001795066,-8.725291e-05,5,1
0.0001694586,-0.0001191798,5,1
0.0001470936,-0.0001417068,5,1
0.0001172735,-0.0001533756,5,1
9.442231e-05,-0.00015451,5,1
0.0001038221,-0.0001436516,5,1
0.0001710792,-0.0001190177,5,1
0.0003112658,-8.547019e-05,5,1
0.0005136854,-5.289507e-05,5,1
0.0007436562,-3.847125e-05,5,1
0.0009609861,-5.127441e-05,5,1
0.001123862,-8.579432e-05,5,1
0.00120376,-0.0001253383,5,1
0.001193874,-0.0001524032,5,1
0.001115434,-0.0001614788,5,1
0.0009964785,-0.0001549962,5,1
0.0008491609,-0.0001392759,5,1
0.0006783439,-0.0001162626,5,1
0.0004965065,-8.190475e-05,5,1
0.0003234207,-3.117831e-05,5,1
0.000173024,2.975825e-05,5,1
6.119892e-05,9.328786e-05,5,1
-6.176923e-08,0.0001504969,5,1
-1.351319e-05,0.000195227,5,1
-1.682422e-06,0.0002208333,5,1
7.069105e-06,0.0002260194,5,1
3.017472e-06,0.0002145127,5,1
-6.706447e-06,0.000192958,5,1
-1.902341e-05,0.0001696206,5,1
-4.155049e-05,0.0001467694,5,1
-8.952183e-05,0.0001281319,5,1
-0.000171851,0.0001145184,5,1
-0.0002763831,0.0001080358,5,1
-0.0003784843,0.0001051186,5,1
-0.0004625961,0.0001038221,5,1
-0.0005324463,9.977047e-05,5,1
-0.0006003517,9.231547e-05,5,1
-0.0006637191,8.534666e-05,5,1
-0.0007003459,8.356394e-05,5,1
-0.0006946736,8.858796e-05,5,1
-0.0006561021,9.798775e-05,5,1
-0.0006056998,0.0001044704,5,1
-0.000556756,0.0001023635,5,1
-0.0005082985,9.31258e-05,5,1
-0.0004600031,7.870197e-05,5,1
-0.0004254832,5.925414e-05,5,1
-0.0004271038,3.948217e-05,5,1
-0.0004689167,2.554455e-05,5,1
-0.0005334187,2.262738e-05,5,1
-0.0005919242,2.619281e-05,5,1
-0.0006230408,3.170304e-05,5,1
-0.000618503,3.478228e-05,5,1
-0.0005873864,3.18651e-05,5,1
-0.0005471942,1.825161e-05,5,1
-0.0005091089,-5.247859e-06,5,1
-0.0004669719,-2.923353e-05,5,1
-0.0004121938,-4.284701e-05,5,1
-0.0003442885,-4.300908e-05,5,1
-0.000268604,-3.474375e-05,5,1
-0.0001877334,-2.647842e-05,5,1
-0.0001036215,-2.372331e-05,5,1
-1.918548e-05,-2.777494e-05,5,1
6.589881e-05,-3.21507e-05,5,1
0.0001490383,-3.409549e-05,5,1
0.0002198609,-3.296103e-05,5,1
0.0002670219,-3.166451e-05,5,1
0.0002809595,-2.939559e-05,5,1
0.0002584324,-2.599222e-05,5,1
0.0002122438,-2.194059e-05,5,1
0.0001654069,-2.177852e-05,5,1
0.0001451488,-2.84232e-05,5,1
0.0001694586,-4.155049e-05,5,1
0.0002248849,-5.856735e-05,5,1
0.0002707494,-7.817725e-05,5,1
0.0002654013,-0.0001002181,5,1
0.000202682,-0.0001250141,5,1
0.0001043083,-0.0001481895,5,1
-4.113403e-06,-0.0001642339,5,1
-0.0001015147,-0.0001713648,5,1
-0.0001806025,-0.0001715269,5,1
-0.000251263,-0.0001627754,5,1
-0.0003322956,-0.0001478653,5,1
-0.0004420138,-0.0001344139,5,1
-0.0005799314,-0.00012469,5,1
-0.0007163903,-0.0001152902,5,1
-0.0008110365,-0.0001032974,5,1
-0.0008416669,-8.871149e-05,5,1
-0.0008092538,-7.088431e-05,5,1
-0.0007275729,-5.030202e-05,5,1
-0.0006032689,-3.117831e-05,5,1
-0.0004476861,-1.643037e-05,5,1
-0.0002799486,-7.192643e-06,5,1
-0.0001128592,-5.479652e-07,5,1
4.920609e-05,1.014835e-05,5,1
0.0002018716,2.748934e-05,5,1
0.0003311998,5.017848e-05,5,1
0.0004193634,7.140904e-05,5,1
0.0004694416,8.453633e-05,5,1
0.0005062304,8.777764e-05,5,1
0.0005619809,8.340187e-05,5,1
0.0006595443,7.756752e-05,5,1
0.0007947069,7.724339e-05,5,1
0.000946076,8.599492e-05,5,1
0.001082535,9.879808e-05,5,1
0.001188526,0.0001054428,5,1
0.001264373,9.993253e-05,5,1
0.001317855,8.356394e-05,5,1
0.001357398,6.087479e-05,5,1
0.001387381,3.915804e-05,5,1
0.001403101,2.586868e-05,5,1
0.001378953,2.473423e-05,5,1
0.001281066,3.316162e-05,5,1
0.001101659,4.369587e-05,5,1
0.0008757396,4.77475e-05,5,1
0.0006679717,3.996837e-05,5,1
0.0005452881,2.667901e-05,5,1
0.0005503122,1.59827e-05,5,1
0.0006867713,1.679302e-05,5,1
0.000899077,2.700314e-05,5,1
0.00108367,3.93201e-05,5,1
0.001142175,4.969229e-05,5,1
0.001036347,6.41161e-05,5,1
0.0008037825,9.21534e-05,5,1
0.0005323229,0.0001367214,5,1
0.0002997591,0.0001898788,5,1
0.0001385041,0.0002394708,5,1
3.040651e-05,0.0002760976,5,1
-6.991193e-05,0.0002952213,5,1
-0.0002026434,0.0002983005,5,1
-0.0003807532,0.0002843629,5,1
-0.0005809038,0.0002563256,5,1
-0.0007585274,0.0002154851,5,1
-0.0008761868,0.0001683241,5,1
-0.000921565,0.000128456,5,1
-0.0009199444,0.0001028497,5,1
-0.0009145963,9.199134e-05,5,1
-0.0009332337,8.550872e-05,5,1
-0.000976019,7.432621e-05,5,1
-0.001021397,5.309566e-05,5,1
-0.001048624,1.938607e-05,5,1
-0.001045545,-1.934754e-05,5,1
-0.001018642,-5.451572e-05,5,1
-0.0009844464,-8.07703e-05,5,1
-0.0009533298,-0.0001016767,5,1
-0.0009252926,-0.0001209625,5,1
-0.0008876934,-0.0001407345,5,1
-0.0008274051,-0.0001525652,5,1
-0.0007445897,-0.0001464067,5,1
-0.0006561021,-0.0001133454,5,1
-0.0005906277,-6.586029e-05,5,1
-0.0005752315,-2.291298e-05,5,1
-0.0006001896,-2.654814e-06,5,1
-0.0006141272,-9.623623e-06,5,1
-0.0005497872,-3.863332e-05,5,1
-0.0003595226,-8.109443e-05,5,1
-5.613637e-05,-0.000127283,5,1
0.0002767458,-0.0001712027,5,1
0.0005352402,-0.0002024813,5,1
0.0006483617,-0.0002186879,5,1
0.0005976353,-0.000224036,5,1
0.0004148255,-0.0002245222,5,1
0.000160707,-0.0002235498,5,1
-0.0001018388,-0.0002206326,5,1
-0.0003313232,-0.0002151224,5,1
-0.0005134846,-0.0002084778,5,1
-0.0006415162,-0.0001994021,5,1
-0.0006985632,-0.0001880575,5,1
-0.0006640433,-0.000176875,5,1
-0.0005238568,-0.0001682856,5,1
-0.0002898345,-0.0001558065,5,1
-2.654814e-06,-0.0001340898,5,1
0.0002676702,-0.0001008664,5,1
0.0004524247,-5.921561e-05,5,1
0.0005185474,-1.140634e-05,5,1
0.0004696036,3.672706e-05,5,1
0.0003373583,7.935024e-05,5,1
0.0001539003,0.0001107909,5,1
-4.608832e-05,0.0001260251,5,1
-0.0002211189,0.0001214872,5,1
-0.000325651,9.928428e-05,5,1
-0.0003222476,6.362991e-05,5,1
-0.000191623,2.278944e-05,5,1
5.19612e-05,-1.399939e-05,5,1
0.0003671783,-4.138842e-05,5,1
0.0007139983,-5.64605e-05,5,1
0.00106017,-5.629844e-05,5,1
0.001378143,-4.009191e-05,5,1
0.001634855,-1.059602e-05,5,1
0.001795138,2.505836e-05,5,1
0.001830792,5.99024e-05,5,1
0.00173096,9.118101e-05,5,1
0.001502285,0.0001120874,5,1
0.00117232,0.0001206769,5,1
0.0007874139,0.0001248906,5,1
0.0003992672,0.0001325077,5,1
5.115087e-05,0.0001475797,5,1
-0.0002237119,0.0001712413,5,1
-0.0004162455,0.0001997648,5,1
-0.0005382806,0.0002234263,5,1
-0.0006068342,0.0002365536,5,1
-0.0006376266,0.0002417397,5,1
-0.0006394094,0.0002428742,5,1
-0.0006152617,0.0002402811,5,1
-0.0005569181,0.0002357433,5,1
-0.000464703,0.0002284504,5,1
-0.0003512573,0.0002224539,5,1
-0.0002324634,0.0002198609,5,1
-0.0001211246,0.0002184023,5,1
-2.226472e-05,0.0002179161,5,1
6.184718e-05,0.0002143507,5,1
0.0001248906,0.0002039785,5,1
0.0001539003,0.0001859892,5,1
0.0001289422,0.0001639484,5,1
4.239934e-05,0.0001401247,5,1
-9.098041e-05,0.0001190562,5,1
-0.0002353806,0.000101067,5,1
-0.000360495,8.729144e-05,5,1
-0.0004553032,7.708133e-05,5,1
-0.0005201293,6.427817e-05,5,1
-0.0005609698,4.888196e-05,5,1
-0.0005823624,2.910999e-05,5,1
-0.0006019723,1.396819e-06,5,1
-0.0006437852,-3.198864e-05,5,1
-0.0007137973,-6.634648e-05,5,1
-0.000789968,-9.373552e-05,5,1
-0.0008353463,-0.0001114006,5,1
-0.0008133054,-0.000122097,5,1
-0.0007045596,-0.0001303623,5,1
-0.0005181845,-0.0001387897,5,1
-0.0002969654,-0.0001457585,5,1
-0.0001102662,-0.000149486,5,1
-2.161646e-05,-0.0001517549,5,1
-4.949169e-05,-0.0001588858,5,1
-0.0001616409,-0.000176713,5,1
-0.0002938862,-0.0001995642,5,1
-0.0003843186,-0.00021415,5,1
-0.0004118697,-0.0002057227,5,1
-0.0003932322,-0.0001640719,5,1
-0.0003585502,-9.260107e-05,5,1
-0.0003303509,-1.950961e-05,5,1
-0.0003040963,2.133085e-05,5,1
-0.0002543422,9.66215e-06,5,1
-0.0001614788,-4.819517e-05,5,1
-3.976777e-05,-0.0001313347,5,1
7.011252e-05,-0.0002117191,5,1
0.0001355869,-0.0002692523,5,1
0.0001504969,-0.0002980999,5,1
0.0001410971,-0.0003011791,5,1
0.000145635,-0.0002848105,5,1
0.0001850168,-0.0002566112,5,1
0.0002569738,-0.0002261429,5,1
0.0003383307,-0.0002002124,5,1
0.000408505,-0.0001791439,5,1
0.000462959,-0.0001626133,5,1
0.0005033132,-0.0001436516,5,1
0.0005315126,-0.0001178833,5,1
0.0005495019,-8.368748e-05,5,1
0.0005589016,-4.495386e-05,5,1
0.0005618189,-4.761664e-06,5,1
0.00055485,3.462021e-05,5,1
0.0005345919,7.173317e-05,5,1
0.0004965065,0.0001031738,5,1
0.0004423766,0.0001248906,5,1
0.0003830607,0.0001344524,5,1
0.0003381686,0.0001422316,5,1
0.0003146691,0.0001537382,5,1
0.0003062417,0.000170431,5,1
0.000299435,0.0001884202,5,1
0.0002817699,0.0002007372,5,1
0.0002558394,0.0002049509,5,1
0.0002331503,0.0002088404,5,1
0.0002196988,0.0002234263,5,1
0.000202844,0.0002503292,5,1
0.0001621656,0.0002811216,5,1
9.101894e-05,0.0003023522,5,1
-4.923729e-06,0.0003054314,5,1
-0.0001136696,0.0002901973,5,1
-0.0002126914,0.000264753,5,1
-0.0002801106,0.0002373639,5,1
-0.0003003688,0.0002111094,5,1
-0.0002614731,0.0001859892,5,1
-0.0001611547,0.0001537382,5,1
-2.291298e-05,0.0001099806,5,1
9.782569e-05,5.666109e-05,5,1
0.0001608691,4.244267e-07,5,1
0.0001587623,-4.673658e-05,5,1
0.0001101427,-8.012204e-05,5,1
4.758544e-05,-0.0001007043,5,1
1.112074e-05,-0.000112211,5,1
2.214118e-05,-0.0001141558,5,1
6.589881e-05,-0.0001062146,5,1
0.0001025256,-9.341139e-05,5,1
9.798775e-05,-7.947377e-05,5,1
3.98063e-05,-6.958779e-05,5,1
-6.375344e-05,-6.472583e-05,5,1
-0.0001840059,-6.197072e-05,5,1
-0.0002865932,-5.872941e-05,5,1
-0.0003441264,-5.370539e-05,5,1
-0.0003447747,-4.949169e-05,5,1
-0.0002917793,-5.111234e-05,5,1
-0.0002037779,-5.856735e-05,5,1
-0.000107349,-6.926366e-05,5,1
-3.036798e-05,-8.093236e-05,5,1
2.116879e-05,-9.276313e-05,5,1
6.897806e-05,-0.0001034594,5,1
0.0001435281,-0.0001083214,5,1
0.0002683184,-0.0001026491,5,1
0.0004538833,-8.530812e-05,5,1
0.0006822334,-6.148453e-05,5,1
0.0009031286,-4.025397e-05,5,1
0.001056605,-2.939559e-05,5,1
0.001095176,-3.296103e-05,5,1
0.001006689,-4.738484e-05,5,1
0.0008141547,-6.310517e-05,5,1
0.0005653843,-7.039812e-05,5,1
0.0003227724,-6.310517e-05,5,1
0.0001346145,-3.847125e-05,5,1
1.97102e-05,-5.89612e-06,5,1
-3.053005e-05,1.679302e-05,5,1
-4.673658e-05,1.12828e-05,5,1
-7.299116e-05,-2.712668e-05,5,1
-0.0001441378,-8.773911e-05,5,1
-0.0002614731,-0.0001509446,5,1
-0.0003919357,-0.0002029675,5,1
-0.0004877163,-0.0002365151,5,1
-0.0005152673,-0.0002556388,5,1
-0.0004718339,-0.0002622834,5,1
-0.0003810773,-0.0002507768,5,1
-0.000278652,-0.0002212809,5,1
-0.0001927574,-0.0001786577,5,1
-0.0001407345,-0.0001263107,5,1
-0.0001182074,-6.359137e-05,5,1
-0.0001185315,5.610517e-06,5,1
-0.0001394379,7.092284e-05,5,1
-0.0001765509,0.0001221355,5,1
-0.0002199844,0.0001537382,5,1
-0.0002522354,0.0001663793,5,1
-0.0002593663,0.0001634622,5,1
-0.000241377,0.0001449867,5,1
-0.0002233878,0.0001130598,5,1
-0.0002386219,7.691926e-05,5,1
-0.0003000446,4.953022e-05,5,1
-0.0003848048,4.175109e-05,5,1
-0.0004481723,5.747142e-05,5,1
-0.0004624341,9.182927e-05,5,1
-0.0004327761,0.0001372076,5,1
-0.0003869116,0.0001793446,5,1
-0.0003412093,0.0002068957,5,1
-0.0002896725,0.0002125679,5,1
-0.0002138259,0.0001966855,5,1
-0.0001152902,0.0001692965,5,1
-1.983374e-05,0.0001467694,5,1
3.964424e-05,0.0001399627,5,1
4.82337e-05,0.0001522796,5,1
1.079661e-05,0.000180479,5,1
-5.127441e-05,0.0002172679,5,1
-0.0001209625,0.0002516257,5,1
-0.0001927574,0.0002751252,5,1
-0.0002715212,0.0002819319,5,1
-0.0003579019,0.0002713977,5,1
-0.0004428242,0.0002440086,5,1
-0.0005065158,0.0002057612,5,1
-0.0005313118,0.0001652449,5,1
-0.0005006815,0.000128456,5,1
-0.000410087,9.944634e-05,5,1
-0.0002724935,8.242948e-05,5,1
-0.0001165867,7.67572e-05,5,1
3.397195e-05,7.756752e-05,5,1
0.000170593,7.724339e-05,5,1
0.0002987867,7.384002e-05,5,1
0.0004341113,6.541262e-05,5,1
0.0006010387,5.552663e-05,5,1
0.0008065377,4.628891e-05,5,1
0.00102095,3.883391e-05,5,1
0.00118334,3.267542e-05,5,1
0.001244925,2.716521e-05,5,1
0.001186257,2.084466e-05,5,1
0.00102954,1.031041e-05,5,1
0.0008219338,-6.868513e-06,5,1
0.0006112488,-3.21507e-05,5,1
0.0004392974,-6.310517e-05,5,1
0.0003177483,-9.211487e-05,5,1
0.0002180782,-0.0001109144,5,1
9.879808e-05,-0.0001182074,5,1
-5.970181e-05,-0.0001201522,5,1
-0.0002327876,-0.0001209625,5,1
-0.0003664914,-0.000127283,5,1
-0.0004113835,-0.0001410586,5,1
-0.0003488263,-0.0001661787,5,1
-0.000201671,-0.0001997262,5,1
-2.129233e-05,-0.0002308428,5,1
0.0001289422,-0.0002504527,5,1
0.0002051129,-0.0002577456,5,1
0.0001976579,-0.0002561249,5,1
0.0001329939,-0.0002553146,5,1
4.515445e-05,-0.0002605007,5,1
-4.560212e-05,-0.0002692523,5,1
-0.0001302002,-0.0002734659,5,1
-0.0002042641,-0.0002671454,5,1
-0.0002569353,-0.0002480217,5,1
-0.0002807589,-0.0002138259,5,1
-0.0002684419,-0.0001639098,5,1
-0.0002303566,-9.859748e-05,5,1
-0.000191623,-2.518189e-05,5,1
-0.000181737,3.98063e-05,5,1
-0.000208964,8.405014e-05,5,1
-0.0002549905,0.0001012291,5,1
-0.0002976137,9.344993e-05,5,1
-0.00032322,6.78436e-05,5,1
-0.0003309991,3.316162e-05,5,1
-0.0003322956,-5.479652e-07,5,1
-0.00035304,-2.728874e-05,5,1
-0.0004222419,-4.819517e-05,5,1
-0.0005489769,-6.974985e-05,5,1
-0.000707963,-9.924574e-05,5,1
-0.0008481495,-0.0001374932,5,1
-0.0009154066,-0.0001788198,5,1
-0.0008836418,-0.0002094502,5,1
-0.0007640376,-0.0002182017,5,1
-0.0006000275,-0.0001977815,5,1
-0.0004405553,-0.0001546721,5,1
-0.0003115513,-0.0001031353,5,1
-0.0002076674,-5.662256e-05,5,1
-0.0001060525,-2.307504e-05,5,1
1.825161e-05,-6.058186e-06,5,1
0.0001845306,-3.858999e-07,5,1
0.0003801436,9.106227e-07,5,1
0.0005663567,6.582909e-06,5,1
0.0007062191,1.873781e-05,5,1
0.0007848209,4.304761e-05,5,1
0.000802486,8.502253e-05,5,1
0.0007639144,0.0001485521,5,1
0.0006804507,0.0002339606,5,1
0.0005668429,0.0003284447,5,1
0.0004414042,0.0004068843,5,1
0.0003208276,0.0004514523,5,1
0.0002184023,0.0004585832,5,1
0.0001475797,0.0004367043,5,1
0.0001291043,0.0003944053,5,1
0.000195389,0.0003425444,5,1
0.0003629646,0.0002885766,5,1
0.0006182176,0.0002451431,5,1
0.0009117182,0.0002180782,5,1
0.001178316,0.0002078681,5,1
0.001360316,0.0002068957,5,1
0.001419145,0.0002007372,5,1
0.001343623,0.0001765894,5,1
0.001161623,0.0001360731,5,1
0.000938621,9.182927e-05,5,1
0.0007415494,5.730935e-05,5,1
0.000601849,3.802358e-05,5,1
0.0005059062,3.089271e-05,5,1
0.0004153117,3.040651e-05,5,1
0.0002885766,3.089271e-05,5,1
0.0001070634,2.797553e-05,5,1
-0.0001146419,2.246531e-05,5,1
-0.0003408851,1.760335e-05,5,1
-0.0005408737,1.663096e-05,5,1
-0.0007011562,1.776542e-05,5,1
-0.000827243,1.873781e-05,5,1
-0.0009346923,1.776542e-05,5,1
-0.001035011,1.695509e-05,5,1
-0.001124309,1.873781e-05,5,1
-0.001195293,2.570662e-05,5,1
-0.001245534,3.364782e-05,5,1
-0.001271302,3.478228e-05,5,1
-0.001254285,2.133085e-05,5,1
-0.001157208,-7.840905e-06,5,1
-0.0009559229,-4.560212e-05,5,1
-0.0006778188,-8.02841e-05,5,1
-0.0004045768,-0.0001029732,5,1
-0.0002224154,-0.000112373,5,1
-0.0001783336,-0.0001110765,5,1
-0.000261149,-0.0001062146,5,1
-0.0004154351,-0.0001083214,5,1
-0.0005747453,-0.0001204763,5,1
-0.0006886772,-0.0001391138,5,1
-0.0007298418,-0.0001543479,5,1
-0.0006867325,-0.000159534,5,1
-0.0005637249,-0.0001536997,5,1
-0.0003956632,-0.0001438137,5,1
-0.0002295462,-0.0001357104,5,1
-0.0001083214,-0.000134738,5,1
-5.662256e-05,-0.0001412206,5,1
-6.569822e-05,-0.000149486,5,1
-0.0001026491,-0.0001532135,5,1
-0.0001360346,-0.0001525652,5,1
-0.0001504584,-0.0001506204,5,1
-0.000142031,-0.0001462447,5,1
-0.0001136696,-0.000137007,5,1
-7.088431e-05,-0.0001259865,5,1
-2.550602e-05,-0.0001138316,5,1
1.403791e-05,-9.746302e-05,5,1
4.709924e-05,-7.688073e-05,5,1
7.57848e-05,-5.240886e-05,5,1
0.0001083599,-2.599222e-05,5,1
0.0001472556,1.234753e-06,5,1
0.0001801549,2.700314e-05,5,1
0.0001992786,4.72613e-05,5,1
0.0002098128,6.298164e-05,5,1
0.0002354192,6.881599e-05,5,1
0.0003007315,6.703327e-05,5,1
0.0004057499,6.217132e-05,5,1
0.0005242196,6.136099e-05,5,1
0.0006188659,6.557468e-05,5,1
0.0006733199,7.335383e-05,5,1
0.0007020054,8.259155e-05,5,1
0.0007240463,9.231547e-05,5,1
0.0007336082,0.000103498,5,1
0.0007120535,0.0001172735,5,1
0.000634262,0.0001388282,5,1
0.0004793275,0.0001621656,5,1
0.0002490327,0.0001791825,5,1
-2.566809e-05,0.0001835583,5,1
-0.0002938862,0.0001741585,5,1
-0.0004985746,0.0001503349,5,1
-0.0006024585,0.0001150046,5,1
-0.0005961379,7.221937e-05,5,1
-0.0004995471,2.716521e-05,5,1
-0.0003533641,-1.318906e-05,5,1
-0.0001985918,-4.38194e-05,5,1
-6.116039e-05,-6.261898e-05,5,1
5.536457e-05,-6.81292e-05,5,1
0.0001602208,-6.229485e-05,5,1
0.000254867,-4.868137e-05,5,1
0.0003328204,-3.020592e-05,5,1
0.0003845193,-1.156841e-05,5,1
0.0004026706,2.04508e-06,5,1
0.0003880847,6.582909e-06,5,1
0.0003527545,7.393236e-06,5,1
0.0003052694,1.338965e-05,5,1
0.000244981,3.154097e-05,5,1
0.0001717275,6.346784e-05,5,1
8.583286e-05,0.000101067,5,1
-9.137427e-06,0.0001341283,5,1
-9.989401e-05,0.0001466074,5,1
-0.0001729855,0.0001336421,5,1
-0.0002209568,0.0001002567,5,1
-0.0002457528,5.974033e-05,5,1
-0.0002579077,2.603075e-05,5,1
-0.000268604,9.500085e-06,5,1
-0.0002830278,9.824215e-06,5,1
-0.0002890242,2.278944e-05,5,1
-0.0002702246,4.158902e-05,5,1
-0.0002209568,6.022653e-05,5,1
-0.0001528894,6.962632e-05,5,1
-8.141856e-05,6.427817e-05,5,1
-2.291298e-05,4.807163e-05,5,1
2.207145e-06,2.894792e-05,5,1
-2.307504e-05,1.031041e-05,5,1
-0.0001007043,-1.043395e-05,5,1
-0.0002147983,-3.182657e-05,5,1
-0.0003436402,-5.127441e-05,5,1
-0.0004719959,-6.650855e-05,5,1
-0.0005805797,-7.526008e-05,5,1
-0.0006499436,-7.720486e-05,5,1
-0.0006609641,-7.60704e-05,5,1
-0.0006022964,-7.60704e-05,5,1
-0.0004702132,-7.947377e-05,5,1
-0.0002742763,-8.417367e-05,5,1
-2.372331e-05,-8.773911e-05,5,1
0.0002764217,-8.854943e-05,5,1
0.0006076833,-8.40116e-05,5,1
0.0009298695,-7.785312e-05,5,1
0.001195981,-7.769106e-05,5,1
0.001370526,-8.465986e-05,5,1
0.001448479,-9.470791e-05,5,1
0.001448803,-0.0001041077,5,1
0.001392405,-0.0001112386,5,1
0.001296138,-0.000114804,5,1
0.001179937,-0.0001159385,5,1
0.001077511,-0.0001180453,5,1
0.001028729,-0.0001216107,5,1
0.001047691,-0.000127283,5,1
0.001103117,-0.000129714,5,1
0.001135369,-0.000122097,5,1
0.001096149,-0.0001042698,5,1
0.0009734652,-8.417367e-05,5,1
0.0007900069,-6.213279e-05,5,1
0.0005806184,-4.138842e-05,5,1
0.0003773884,-2.599222e-05,5,1
0.000200251,-1.724069e-05,5,1
5.974033e-05,-1.270286e-05,5,1
-4.025397e-05,-6.706447e-06,5,1
-9.308726e-05,3.017472e-06,5,1
-9.616651e-05,1.322759e-05,5,1
-5.013995e-05,2.570662e-05,5,1
2.910999e-05,4.515445e-05,5,1
9.490851e-05,7.6271e-05,5,1
8.486046e-05,0.0001132219,5,1
-4.398147e-05,0.0001480659,5,1
-0.0002869174,0.0001744826,5,1
-0.0005977586,0.0001931201,5,1
-0.0009074653,0.0002055991,5,1
-0.001150077,0.0002125679,5,1
-0.001286212,0.0002153231,5,1
-0.001314573,0.0002161334,5,1
-0.001266278,0.0002148369,5,1
-0.001173415,0.0002125679,5,1
-0.00105381,0.0002088404,5,1
-0.0009183238,0.0002047888,5,1
-0.0007740856,0.000195227,5,1
-0.0006369784,0.0001720516,5,1
-0.0005215878,0.000130725,5,1
-0.0004272659,7.52986e-05,5,1
-0.0003391024,1.322759e-05,5,1
-0.0002452666,-4.770897e-05,5,1
-0.0001434896,-0.0001002181,5,1
-4.236082e-05,-0.0001326312,5,1
4.953022e-05,-0.0001400862,5,1
0.0001143563,-0.0001255003,5,1
0.00013818,-0.0001013526,5,1
0.0001268354,-7.866345e-05,5,1
0.0001030118,-6.294311e-05,5,1
9.669123e-05,-5.483985e-05,5,1
0.0001344524,-5.159854e-05,5,1
0.0002294227,-4.608832e-05,5,1
0.0003717161,-3.279896e-05,5,1
0.0005237334,-1.286493e-05,5,1
0.0006425274,1.241726e-05,5,1
0.000696009,4.126489e-05,5,1
0.0006671614,7.286763e-05,5,1
0.0005567948,0.0001057669,5,1
0.0003798194,0.0001360731,5,1
0.0001579519,0.000153252,5,1
-8.368748e-05,0.0001474177,5,1
-0.0003146305,0.0001185701,5,1
-0.0005005194,7.853991e-05,5,1
-0.0006097514,4.385793e-05,5,1
-0.0006303337,2.230325e-05,5,1
-0.0005747453,1.355172e-05,5,1
-0.0004799371,1.12828e-05,5,1
-0.0003820497,9.66215e-06,5,1
-0.000303286,5.286387e-06,5,1
-0.0002535319,-2.978945e-06,5,1
-0.0002350565,-1.270286e-05,5,1
-0.0002441321,-2.242678e-05,5,1
-0.0002726556,-3.604027e-05,5,1
-0.0003000446,-5.386745e-05,5,1
-0.0002987481,-7.282909e-05,5,1
-0.000246239,-9.114248e-05,5,1
-0.0001467309,-0.0001115627,5,1
-2.923353e-05,-0.0001360346,5,1
6.136099e-05,-0.0001598582,5,1
8.016057e-05,-0.0001776853,5,1
7.555301e-06,-0.0001844921,5,1
-0.0001261486,-0.0001786577,5,1
-0.000243808,-0.0001622891,5,1
-0.0002648765,-0.000137007,5,1
-0.0001699062,-0.0001102662,5,1
-8.651231e-06,-8.919769e-05,5,1
0.0001388282,-7.396356e-05,5,1
0.0002174299,-5.775702e-05,5,1
0.0002132162,-3.733679e-05,5,1
0.0001362352,-1.3027e-05,5,1
1.679302e-05,1.160693e-05,5,1
-0.0001107524,2.975825e-05,5,1
-0.0002173914,3.850978e-05,5,1
-0.0002895104,4.385793e-05,5,1
-0.00032322,5.034055e-05,5,1
-0.0003217614,5.536457e-05,5,1
-0.0002946965,5.811968e-05,5,1
-0.0002504527,5.795762e-05,5,1
-0.0001906506,5.552663e-05,5,1
-0.0001191798,5.1475e-05,5,1
-5.257093e-05,4.612685e-05,5,1
-1.25408e-05,3.899597e-05,5,1
-1.043395e-05,3.056858e-05,5,1
-2.939559e-05,2.408596e-05,5,1
-4.560212e-05,2.586868e-05,5,1
-5.062615e-05,4.110282e-05,5,1
-5.257093e-05,7.270556e-05,5,1
-6.699475e-05,0.0001174356,5,1
-0.0001013526,0.0001696206,5,1
-0.0001512687,0.000215161,5,1
-0.0001950263,0.0002431983,5,1
-0.0002112329,0.0002477361,5,1
-0.0001904885,0.0002282883,5,1
-0.0001428413,0.0001884202,5,1
-8.887356e-05,0.0001376938,5,1
-4.495386e-05,8.46984e-05,5,1
-1.578211e-05,4.158902e-05,5,1
1.396819e-06,2.035846e-05,5,1
1.193106e-05,2.538249e-05,5,1
2.262738e-05,4.985435e-05,5,1
3.850978e-05,7.837785e-05,5,1
5.909208e-05,9.847395e-05,5,1
7.967438e-05,0.0001070634,5,1
8.923623e-05,0.0001046324,5,1
8.615699e-05,9.782569e-05,5,1
7.221937e-05,8.84259e-05,5,1
5.341979e-05,7.546067e-05,5,1
3.478228e-05,6.022653e-05,5,1
1.614476e-05,4.304761e-05,5,1
-4.599598e-06,2.684107e-05,5,1
-2.712668e-05,9.986281e-06,5,1
-4.884343e-05,-7.678839e-06,5,1
-6.877746e-05,-3.21507e-05,5,1
-8.125649e-05,-6.893953e-05,5,1
-8.109443e-05,-0.0001157764,5,1
-6.051213e-05,-0.0001650443,5,1
-2.129233e-05,-0.0002042641,5,1
3.55926e-05,-0.000224036,5,1
9.863601e-05,-0.0002245222,5,1
0.0001472556,-0.0002099363,5,1
0.0001673517,-0.0001898403,5,1
0.0001602208,-0.0001759026,5,1
0.0001302388,-0.0001708786,5,1
8.502253e-05,-0.0001729855,5,1
3.883391e-05,-0.0001807646,5,1
9.175954e-06,-0.0001903264,5,1
5.610517e-06,-0.0001945401,5,1
2.100672e-05,-0.0001822232,5,1
3.624086e-05,-0.0001439758,5,1
2.959619e-05,-8.109443e-05,5,1
-4.275467e-06,-6.706447e-06,5,1
-3.879538e-05,6.379197e-05,5,1
-3.150244e-05,0.0001198666,5,1
3.510641e-05,0.0001586002,5,1
0.000128294,0.0001803169,5,1
0.0001966855,0.0001867996,5,1
0.0002138645,0.0001795066,5,1
0.0001918236,0.0001602208,5,1
0.0001663793,0.0001312112,5,1
0.0001712413,9.63671e-05,5,1
0.0002214815,6.184718e-05,5,1
0.0003060797,3.008238e-05,5,1
0.0003997535,-4.275467e-06,5,1
0.0004751139,-4.365734e-05,5,1
0.0005185474,-8.887356e-05,5,1
0.0005357263,-0.0001329553,5,1
0.0005396159,-0.0001707166,5,1
0.0005341057,-0.0001968091,5,1
0.0005188715,-0.0002075054,5,1
0.0004871067,-0.0002076674,5,1
0.0004310321,-0.0002021572,5,1
0.0003464339,-0.0001979435,5,1
0.0002384984,-0.0001930815,5,1
0.0001188942,-0.0001869231,5,1
2.531276e-06,-0.0001776853,5,1
-9.616651e-05,-0.0001665028,5,1
-0.0001705545,-0.0001522411,5,1
-0.0002162569,-0.0001357104,5,1
-0.0002345703,-0.0001186936,5,1
-0.0002276015,-0.0001000561,5,1
-0.0002000504,-8.384954e-05,5,1
-0.000164396,-7.088431e-05,5,1
-0.000132145,-5.548811e-05,5,1
-0.0001063766,-3.377136e-05,5,1
-8.644259e-05,-5.734056e-06,5,1
-7.266703e-05,2.327564e-05,5,1
-7.137051e-05,5.358185e-05,5,1
-8.709085e-05,8.777764e-05,5,1
-0.0001139937,0.000123432,5,1
-0.0001374932,0.000155521,5,1
-0.0001438137,0.0001803169,5,1
-0.0001216107,0.0001965235,5,1
-6.116039e-05,0.0002090025,5,1
5.098881e-05,0.0002227781,5,1
0.0002117576,0.0002454672,5,1
0.0003778746,0.0002790148,5,1
0.0004762483,0.0003185587,5,1
0.0004519385,0.0003553475,5,1
0.0003080245,0.0003760919,5,1
0.0001067393,0.0003671783,5,1
-7.363943e-05,0.0003269861,5,1
-0.0001754164,0.0002684805,5,1
-0.0001883817,0.0002124059,5,1
-0.0001460826,0.0001733481,5,1
-9.373552e-05,0.0001573037,5,1
-6.423963e-05,0.0001584381,5,1
-6.91016e-05,0.0001639484,5,1
-9.66527e-05,0.0001667035,5,1
-0.0001146419,0.0001645966,5,1
-9.843541e-05,0.0001592484,5,1
-4.511593e-05,0.0001551968,5,1
5.017848e-05,0.0001551968,5,1
0.0001986303,0.0001560072,5,1
0.0003924605,0.0001461212,5,1
0.0005924492,0.0001213252,5,1
0.0007452769,8.502253e-05,5,1
0.0008079963,4.483033e-05,5,1
0.0007642386,1.063454e-05,5,1
0.0006190279,-1.62683e-05,5,1
0.000406074,-3.701266e-05,5,1
0.0001746447,-5.483985e-05,5,1
-2.826114e-05,-7.299116e-05,5,1
-0.0001655305,-9.470791e-05,5,1
-0.0002250084,-0.0001206384,5,1
-0.0002274394,-0.0001452723,5,1
-0.0002063709,-0.0001574272,5,1
-0.000184168,-0.0001464067,5,1
-0.0001747682,-0.0001136696,5,1
-0.0001851404,-7.201877e-05,5,1
-0.0002306807,-4.05781e-05,5,1
-0.0003228959,-2.907146e-05,5,1
-0.0004480103,-4.05781e-05,5,1
-0.0005638869,-6.731888e-05,5,1
-0.0006202856,-9.908367e-05,5,1
-0.0005877105,-0.0001269589,5,1
-0.0004788027,-0.0001452723,5,1
-0.0003457471,-0.0001543479,5,1
-0.0002553146,-0.0001554824,5,1
-0.0002397564,-0.0001543479,5,1
-0.0002768693,-0.0001561307,5,1
-0.0003047445,-0.0001585616,5,1
-0.0002674695,-0.0001608306,5,1
-0.0001515928,-0.000164396,5,1
1.419998e-05,-0.0001699062,5,1
0.000185503,-0.0001736337,5,1
0.0003307136,-0.0001724993,5,1
0.0004392974,-0.0001642339,5,1
0.0005055821,-0.0001464067,5,1
0.0005401021,-0.0001240417,5,1
0.0005589016,-0.0001034594,5,1
0.0005533914,-9.065628e-05,5,1
0.0004984512,-8.757704e-05,5,1
0.0003848434,-8.887356e-05,5,1
0.0002397949,-8.887356e-05,5,1
0.0001103047,-8.320128e-05,5,1
2.667901e-05,-6.991193e-05,5,1
-1.270286e-05,-4.592625e-05,5,1
-4.949169e-05,-1.318906e-05,5,1
-0.0001313347,2.359977e-05,5,1
-0.0002720074,5.585077e-05,5,1
-0.0004421759,7.562274e-05,5,1
-0.0005796073,8.405014e-05,5,1
-0.0006319543,8.988449e-05,5,1
-0.0005865761,0.0001026876,5,1
-0.0004755614,0.0001239182,5,1
-0.0003527159,0.0001462832,5,1
-0.0002699005,0.0001623277,5,1
-0.0002420253,0.0001686482,5,1
-0.0002386219,0.0001671896,5,1
-0.0001998883,0.0001642725,5,1
-8.158062e-05,0.0001668655,5,1
0.0001229458,0.0001783722,5,1
0.0003843572,0.0001947408,5,1
0.0006571133,0.0002114335,5,1
0.0009053976,0.000227478,5,1
0.001108142,0.0002384984,5,1
0.001246384,0.0002406053,5,1
0.001295976,0.0002278021,5,1
0.001247518,0.0001997648,5,1
0.001118028,0.000160707,5,1
0.000943645,0.0001205148,5,1
0.0007616456,8.583286e-05,5,1
0.0005961767,5.94162e-05,5,1
0.0004608521,3.915804e-05,5,1
0.0003582647,1.987227e-05,5,1
0.0002730183,3.179537e-06,5,1
0.0001735102,-9.947754e-06,5,1
2.927205e-05,-1.756482e-05,5,1
-0.000166827,-1.724069e-05,5,1
-0.0003959873,-2.168618e-06,5,1
-0.0006287131,3.267542e-05,5,1
-0.0008334015,8.356394e-05,5,1
-0.0009876877,0.0001373696,5,1
-0.001086385,0.0001788584,5,1
-0.001137922,0.0002000889,5,1
-0.001153156,0.00019782,5,1
-0.001136302,0.0001777239,5,1
-0.001091896,0.0001461212,5,1
-0.001031283,0.0001039842,5,1
-0.0009703467,5.730935e-05,5,1
-0.0009238339,6.096713e-06,5,1
-0.0008995241,-5.143648e-05,5,1
-0.0008983897,-0.0001109144,5,1
-0.0009064929,-0.0001686097,5,1
-0.0008990379,-0.0002207947,5,1
-0.0008492839,-0.0002592042,5,1
-0.0007489655,-0.000278652,5,1
-0.0006116962,-0.0002728177,5,1
-0.0004690787,-0.0002439701,5,1
-0.0003457471,-0.0002008607,5,1
-0.0002622834,-0.0001579134,5,1
-0.0002310048,-0.0001266348,5,1
-0.0002499665,-0.0001112386,5,1
-0.0002937241,-0.0001109144,5,1
-0.0003272716,-0.0001230693,5,1
-0.0003196545,-0.0001460826,5,1
-0.0002570974,-0.0001755785,5,1
-0.0001353863,-0.0002084778,5,1
3.445814e-05,-0.0002402425,5,1
0.0002125679,-0.0002645523,5,1
0.0003290929,-0.0002776796,5,1
0.0003235827,-0.0002767073,5,1
0.0001783722,-0.0002674695,5,1
-6.91016e-05,-0.0002546664,5,1
-0.0003446126,-0.0002420253,5,1
-0.000573935,-0.0002251705,5,1
-0.0007082871,-0.0002026434,5,1
-0.0007277349,-0.0001750923,5,1
-0.000643299,-0.0001407345,5,1
-0.0004886886,-9.649064e-05,5,1
-0.0003091203,-4.770897e-05,5,1
-0.0001493239,-4.923729e-06,5,1
-4.041603e-05,2.473423e-05,5,1
6.744974e-06,3.753739e-05,5,1
2.04508e-06,3.688912e-05,5,1
-2.307504e-05,2.927205e-05,5,1
-2.858527e-05,1.679302e-05,5,1
9.013889e-06,9.986281e-06,5,1
8.79397e-05,1.387585e-05,5,1
0.00019782,2.538249e-05,5,1
0.0003396272,3.948217e-05,5,1
0.0005136854,5.244739e-05,5,1
0.0007143224,6.055066e-05,5,1
0.0009173905,6.816773e-05,5,1
0.001072487,7.6271e-05,5,1
0.001118514,8.631905e-05,5,1
0.001019654,9.490851e-05,5,1
0.0007964896,0.0001018773,5,1
0.0005191956,0.0001122495,5,1
0.0002569738,0.0001297526,5,1
5.455425e-05,0.000155683,5,1
-7.509801e-05,0.0001861513,5,1
-0.0001415448,0.000217592,5,1
-0.0001733096,0.0002451431,5,1
-0.000191785,0.0002624841,5,1
-0.0002070192,0.0002657254,5,1
-0.000216581,0.0002607014,5,1
-0.0002083157,0.0002540567,5,1
-0.0001618029,0.0002517878,5,1
-5.905355e-05,0.0002506533,5,1
0.0001004187,0.000244981,5,1
0.0003015418,0.0002289366,5,1
0.0005242196,0.0002020337,5,1
0.0007511112,0.0001686482,5,1
0.0009661721,0.0001375317,5,1
0.00115903,0.0001128978,5,1
0.001327578,9.507057e-05,5,1
0.001459824,8.323981e-05,5,1
0.001537291,7.886404e-05,5,1
0.001540695,7.691926e-05,5,1
0.001465172,6.962632e-05,5,1
0.001318827,5.374392e-05,5,1
0.001123214,3.202716e-05,5,1
0.0009120423,8.203562e-06,5,1
0.0007264773,-1.20546e-05,5,1
0.0006003904,-2.566809e-05,5,1
0.000547233,-3.182657e-05,5,1
0.0005520949,-2.84232e-05,5,1
0.0005684635,-1.886135e-05,5,1
0.0005431813,-1.140634e-05,5,1
0.0004472386,-9.947754e-06,5,1
0.0002842008,-1.173047e-05,5,1
7.983644e-05,-5.89612e-06,5,1
-0.0001230693,2.311357e-05,5,1
-0.0002763831,9.555677e-05,5,1
-0.0003363473,0.000210137,5,1
-0.0002995585,0.0003323342,5,1
-0.0002073433,0.000408505,5,1
-0.0001267968,0.0004013741,5,1
-0.0001075111,0.0003132105,5,1
-0.0001587237,0.0001759412,5,1
-0.0002475355,3.089271e-05,5,1
-0.0003238683,-9.357346e-05,5,1
-0.0003536883,-0.0001846542,5,1
-0.0003285682,-0.0002417012,5,1
-0.0002652006,-0.000268766,5,1
-0.0001890299,-0.0002775176,5,1
-0.000129714,-0.0002796244,5,1
-0.0001050801,-0.0002804347,5,1
-0.0001242038,-0.0002794623,5,1
-0.0001801163,-0.0002757348,5,1
-0.0002520733,-0.0002703867,5,1
-0.0003308371,-0.000263742,5,1
-0.0004215936,-0.0002574215,5,1
-0.0005296912,-0.0002517492,5,1
-0.0006400577,-0.0002502906,5,1
-0.0007235213,-0.000251101,5,1
-0.0007512344,-0.0002473734,5,1
-0.0007126629,-0.0002305186,5,1
-0.0006251476,-0.0001972953,5,1
-0.0005202913,-0.0001514308,5,1
-0.0004240246,-0.0001029732,5,1
-0.0003509331,-6.083626e-05,5,1
-0.0002982619,-2.745081e-05,5,1
-0.000248832,-2.654814e-06,5,1
-0.0001874093,1.484824e-05,5,1
-0.000112373,2.424803e-05,5,1
-2.809907e-05,2.441009e-05,5,1
5.99024e-05,1.9224e-05,5,1
0.0001436902,1.290346e-05,5,1
0.0002112714,1.290346e-05,5,1
0.0002529222,2.619281e-05,5,1
0.0002615117,5.390598e-05,5,1
0.0002386605,9.328786e-05,5,1
0.0001957132,0.0001398006,5,1
0.0001603829,0.0001859892,5,1
0.0001598967,0.0002289366,5,1
0.0001945787,0.0002631324,5,1
0.00022764,0.000287118,5,1
0.0002156472,0.0002981384,5,1
0.0001323456,0.0002984626,5,1
-1.99958e-05,0.0002914938,5,1
-0.0002198223,0.0002833905,5,1
-0.0004318037,0.0002743149,5,1
-0.0006172064,0.0002629703,5,1
-0.0007371347,0.0002448189,5,1
-0.0007629031,0.0002184023,5,1
-0.0006770085,0.0001814514,5,1
-0.000477182,0.0001355869,5,1
-0.0001922712,8.777764e-05,5,1
0.000105929,4.580272e-05,5,1
0.000316938,1.954813e-05,5,1
0.0003657197,1.22552e-05,5,1
0.0002503292,1.452411e-05,5,1
2.992031e-05,1.533444e-05,5,1
-0.0002104225,1.160693e-05,5,1
-0.0003959873,5.124321e-06,5,1
-0.000487068,-5.409925e-06,5,1
-0.0004888507,-2.09682e-05,5,1
-0.0004363416,-4.252288e-05,5,1
-0.0003750809,-6.602235e-05,5,1
-0.000325813,-8.709085e-05,5,1
-0.00027849,-0.0001016767,5,1
-0.0002151224,-0.0001086455,5,1
-0.0001379794,-0.0001102662,5,1
-6.278104e-05,-0.0001099421,5,1
-6.706447e-06,-0.0001078352,5,1
3.024445e-05,-0.0001042698,5,1
6.022653e-05,-0.000102325,5,1
9.069481e-05,-0.0001117248,5,1
0.0001148425,-0.0001373311,5,1
0.0001185701,-0.000176713,5,1
9.426025e-05,-0.0002156086,5,1
4.790957e-05,-0.0002408908,5,1
-1.027188e-05,-0.0002457528,5,1
-7.056019e-05,-0.0002370013,5,1
-0.0001245279,-0.0002241981,5,1
-0.0001674752,-0.0002169052,5,1
-0.0001989159,-0.0002175534,5,1
-0.0002211189,-0.0002204706,5,1
-0.0002352185,-0.000216581,5,1
-0.0002392702,-0.000201509,5,1
-0.0002331117,-0.0001749302,5,1
-0.0002267911,-0.0001454344,5,1
-0.0002357047,-0.0001212866,5,1
-0.0002624455,-0.0001042698,5,1
-0.0002930758,-9.422172e-05,5,1
-0.0003053928,-9.114248e-05,5,1
-0.0002746004,-9.146661e-05,5,1
-0.0001846542,-8.741498e-05,5,1
-3.652646e-05,-6.81292e-05,5,1
0.0001470936,-3.749886e-05,5,1
0.0003276344,-7.678839e-06,5,1
0.0004640934,1.1769e-05,5,1
0.0005328091,1.825161e-05,5,1
0.0005311884,1.727922e-05,5,1
0.0004709002,1.355172e-05,5,1
0.0003665301,1.419998e-05,5,1
0.0002334744,2.181705e-05,5,1
9.085688e-05,3.624086e-05,5,1
-3.733679e-05,5.455425e-05,5,1
-0.0001373311,7.059871e-05,5,1
-0.0001994021,8.161915e-05,5,1
-0.0002222533,8.777764e-05,5,1
-0.0002125294,8.972242e-05,5,1
-0.0001708786,8.858796e-05,5,1
-9.211487e-05,7.789165e-05,5,1
1.517237e-05,5.698522e-05,5,1
0.0001316974,3.18651e-05,5,1
0.0002373639,1.1769e-05,5,1
0.0003151553,3.827799e-06,5,1
0.0003521062,9.986281e-06,5,1
0.000346596,2.603075e-05,5,1
0.0003034866,4.35338e-05,5,1
0.0002347709,5.795762e-05,5,1
0.0001621656,6.719535e-05,5,1
0.0001192183,7.221937e-05,5,1
0.0001488763,8.080883e-05,5,1
0.0002780424,9.474644e-05,5,1
0.0004963444,0.0001103047,5,1
0.0007418735,0.0001255389,5,1
0.0009272764,0.0001368834,5,1
0.0009919406,0.0001433661,5,1
0.0009324626,0.0001467694,5,1
0.0007887104,0.0001492004,5,1
0.0006183797,0.0001545486,5,1
0.0004699278,0.000170431,5,1
0.0003647473,0.0001965235,5,1
0.0003064038,0.0002234263,5,1
0.0002840388,0.0002393087,5,1
0.0002723701,0.0002354192,5,1
0.0002454672,0.0002111094,5,1
0.0001937684,0.0001741585,5,1
0.000108522,0.0001360731,5,1
-2.761287e-05,0.000106091,5,1
-0.0002295462,8.761557e-05,5,1
-0.0004919299,8.210535e-05,5,1
-0.0007859163,8.696731e-05,5,1
-0.001076824,0.0001002567,5,1
-0.00133078,0.0001214872,5,1
-0.001516993,0.0001521176,5,1
-0.001617149,0.0001902029,5,1
-0.001629952,0.0002253711,5,1
-0.001567233,0.0002490327,5,1
-0.001440012,0.0002563256,5,1
-0.00125153,0.0002490327,5,1
-0.001004867,0.0002344468,5,1
-0.0007110422,0.0002180782,5,1
-0.0003922598,0.0002054371,5,1
-7.914964e-05,0.0002015475,5,1
0.0002065715,0.0002078681,5,1
0.0004574487,0.0002205092,5,1
0.0006857989,0.0002232643,5,1
0.0009060458,0.0001999268,5,1
0.001122241,0.000140773,5,1
0.001331468,4.985435e-05,5,1
0.001536805,-5.483985e-05,5,1
0.001732905,-0.000152079,5,1
0.00189416,-0.0002259808,5,1
0.001986538,-0.0002741142,5,1
0.001979569,-0.0002992343,5,1
0.001860288,-0.000310741,5,1
0.001655761,-0.0003147926,5,1
0.001415904,-0.0003164132,5,1
0.001188202,-0.0003190063,5,1
0.0009916165,-0.0003217614,5,1
0.0008117238,-0.0003227338,5,1
0.0006269692,-0.0003201407,5,1
0.0004255218,-0.0003149546,5,1
0.0002133783,-0.0003081479,5,1
-2.330684e-06,-0.0002989102,5,1
-0.0002162569,-0.0002838381,5,1
-0.0004248349,-0.0002595283,5,1
-0.0006149375,-0.0002282497,5,1
-0.0007593377,-0.0001948643,5,1
-0.0008466908,-0.0001605064,5,1
-0.0008889899,-0.0001238797,5,1
-0.0009100584,-8.919769e-05,5,1
-0.0009256167,-6.780507e-05,5,1
-0.0009380957,-6.342931e-05,5,1
-0.0009483058,-7.250496e-05,5,1
-0.0009585159,-8.82253e-05,5,1
-0.0009649985,-0.0001013526,5,1
-0.0009625676,-0.0001089697,5,1
-0.0009496023,-0.0001067007,5,1
-0.0009272373,-9.66527e-05,5,1
-0.0008990379,-8.271508e-05,5,1
-0.0008713248,-6.456377e-05,5,1
-0.0008479874,-4.317115e-05,5,1
-0.0008254603,-2.161646e-05,5,1
-0.0007891576,-2.168618e-06,5,1
-0.0007275729,1.64689e-05,5,1
-0.0006447575,3.672706e-05,5,1
-0.0005470322,5.909208e-05,5,1
-0.0004303451,8.097089e-05,5,1
-0.0002901587,0.0001022015,5,1
-0.0001227452,0.0001237561,5,1
6.622294e-05,0.0001464453,5,1
0.0002608634,0.0001702689,5,1
0.0004454559,0.0001961994,5,1
0.0006075213,0.0002235884,5,1
0.0007217774,0.0002454672,5,1
0.0007514353,0.0002564877,5,1
0.0006731578,0.0002564877,5,1
0.0004987754,0.0002472499,5,1
0.0002762596,0.000232502,5,1
6.249545e-05,0.0002128921,5,1
-0.0001032974,0.0001845306,5,1
-0.0002138259,0.0001522796,5,1
-0.0002820554,0.0001248906,5,1
-0.0003335922,0.0001101427,5,1
-0.0003989045,0.0001096565,5,1
-0.000496954,0.0001145184,5,1
-0.0006228787,0.0001114392,5,1
-0.0007371347,9.199134e-05,5,1
-0.0007872129,6.362991e-05,5,1
-0.0007345417,4.223728e-05,5,1
-0.0005909518,4.304761e-05,5,1
-0.0004246728,6.83298e-05,5,1
-0.0003113892,0.0001038221,5,1
-0.0002742763,0.0001294284,5,1
-0.0002865932,0.0001312112,5,1
-0.0003074997,0.0001054428,5,1
-0.0003050687,5.925414e-05,5,1
-0.0002517492,3.989864e-06,5,1
-0.0001240417,-5.208474e-05,5,1
0.0001002567,-0.0001032974,5,1
0.0004211461,-0.000144624,5,1
0.0007955172,-0.0001708786,5,1
0.001145579,-0.0001806025,5,1
0.001396942,-0.0001820611,5,1
0.00151444,-0.0001830335,5,1
0.001506175,-0.000191623,5,1
0.001407801,-0.0002062088,5,1
0.001250759,-0.000219012,5,1
0.001053039,-0.000221605,5,1
0.000839437,-0.000206695,5,1
0.0006405826,-0.0001771992,5,1
0.000477869,-0.0001454344,5,1
0.0003592371,-0.0001178833,5,1
0.0002811216,-9.956988e-05,5,1
0.0002352571,-9.017008e-05,5,1
0.0002112714,-8.368748e-05,5,1
0.0001919856,-7.493595e-05,5,1
0.0001571416,-5.937768e-05,5,1
9.717743e-05,-3.490581e-05,5,1
9.824215e-06,-1.196227e-06,5,1
-9.389759e-05,3.802358e-05,5,1
-0.0001854645,8.064677e-05,5,1
-0.0002478596,0.0001240803,5,1
-0.0002934,0.0001636242,5,1
-0.0003548227,0.0001932822,5,1
-0.0004481723,0.0002091646,5,1
-0.0005632387,0.0002112714,5,1
-0.0006789533,0.0002012234,5,1
-0.000772465,0.0001832341,5,1
-0.0008230293,0.0001571416,5,1
-0.0008225431,0.000125863,5,1
-0.0007818647,8.615699e-05,5,1
-0.0007243316,3.397195e-05,5,1
-0.0006651777,-3.020592e-05,5,1
-0.0006013241,-9.616651e-05,5,1
-0.0005238568,-0.0001481895,5,1
-0.0004296969,-0.0001780095,5,1
-0.0003237062,-0.0001893541,5,1
-0.0002143121,-0.0001904885,5,1
-0.0001054042,-0.0001900023,5,1
-1.682422e-06,-0.0001921092,5,1
8.372601e-05,-0.0001995642,5,1
0.0001389903,-0.0002045882,5,1
0.0001633001,-0.0002011848,5,1
0.0001683241,-0.0001895161,5,1
0.0001642725,-0.0001731475,5,1
0.0001615174,-0.0001538618,5,1
0.0001584381,-0.0001229073,5,1
0.0001543865,-7.590833e-05,5,1
0.0001645966,-1.416145e-05,5,1
0.0002269918,5.536457e-05,5,1
0.0003781987,0.0001302388,5,1
0.0006281036,0.000200413,5,1
0.0009528828,0.0002545429,5,1
0.001298569,0.0002830664,5,1
0.001596121,0.0002816078,5,1
0.001786386,0.0002585945,5,1
0.001826255,0.0002282883,5,1
0.001698547,0.0002062474,5,1
0.001420118,0.0002041406,5,1
0.001038778,0.0002243987,5,1
0.0006196762,0.0002589186,5,1
0.0002193747,0.0002953834,5,1
-0.0001201522,0.0003177483,5,1
-0.0003752429,0.0003180725,5,1
-0.000544277,0.0002979764,5,1
-0.0006374646,0.0002645909,5,1
-0.0006703638,0.0002273159,5,1
-0.0006640433,0.0001939304,5,1
-0.000648485,0.0001657311,5,1
-0.0006462161,0.000135911,5,1
-0.0006599916,0.000106091,5,1
-0.0006852738,8.323981e-05,5,1
-0.0007173628,7.6271e-05,5,1
-0.0007468587,8.42122e-05,5,1
-0.0007546378,9.944634e-05,5,1
-0.0007215765,0.0001078737,5,1
-0.0006413542,9.879808e-05,5,1
-0.0005207775,7.076078e-05,5,1
-0.0003775118,3.364782e-05,5,1
-0.0002379736,1.883015e-06,5,1
-0.0001352242,-1.756482e-05,5,1
-9.746302e-05,-2.89094e-05,5,1
-0.0001340898,-3.992984e-05,5,1
-0.0002300324,-5.970181e-05,5,1
-0.0003507711,-9.162867e-05,5,1
-0.0004518998,-0.0001340898,5,1
-0.000496954,-0.0001823853,5,1
-0.0004812336,-0.0002280877,5,1
-0.0004284004,-0.0002632558,5,1
-0.0003792946,-0.0002801106,5,1
-0.0003658432,-0.0002781658,5,1
-0.0003982562,-0.0002630937,5,1
-0.000459679,-0.0002436459,5,1
-0.0005253154,-0.0002250084,5,1
-0.0005695592,-0.0002073433,5,1
-0.0005718282,-0.0001938919,5,1
-0.0005282326,-0.0001820611,5,1
-0.0004582204,-0.0001700683,5,1
-0.0003872358,-0.0001532135,5,1
-0.0003217614,-0.0001300382,5,1
-0.0002485079,-0.0001057284,5,1
-0.0001530514,-8.44978e-05,5,1
-3.279896e-05,-6.991193e-05,5,1
0.0001039842,-5.986387e-05,5,1
0.0002357433,-6.197072e-05,5,1
0.00033671,-8.07703e-05,5,1
0.0003984569,-0.000114804,5,1
0.0004384871,-0.0001541859,5,1
0.0004882411,-0.0001853024,5,1
0.0005666808,-0.0001987538,5,1
0.0006533858,-0.0001981056,5,1
0.0007086502,-0.0001959987,5,1
0.0006995744,-0.0002039399,5,1
0.0006279415,-0.0002220912,5,1
0.0005245438,-0.000238946,5,1
0.0004277907,-0.0002293842,5,1
0.0003561579,-0.0001791439,5,1
0.0002966799,-9.632857e-05,5,1
0.0002295848,-4.923729e-06,5,1
0.0001589243,7.448828e-05,5,1
0.0001065772,0.0001287802,5,1
7.870197e-05,0.0001624898,5,1
5.779555e-05,0.0001833962,5,1
2.003433e-05,0.0001971717,5,1
-4.074016e-05,0.0002017096,5,1
-0.0001063766,0.0001944166,5,1
-0.0001501342,0.000180479,5,1
-0.00015451,0.0001668655,5,1
-0.0001212866,0.0001597346,5,1
-7.412562e-05,0.0001597346,5,1
-3.944364e-05,0.0001652449,5,1
-3.928157e-05,0.0001710792,5,1
-7.769106e-05,0.0001756171,5,1
-0.0001478653,0.0001795066,5,1
-0.000241377,0.0001843686,5,1
-0.0003465574,0.0001919856,5,1
-0.0004465517,0.0002015475,5,1
-0.000524181,0.0002090025,5,1
-0.0005655076,0.00021273,5,1
-0.0005603215,0.0002094887,5,1
-0.0005126743,0.0002008992,5,1
-0.0004407173,0.0001866375,5,1
-0.0003668155,0.0001691344,5,1
-0.0003186821,0.0001534141,5,1
-0.0003112272,0.0001422316,5,1
-0.0003416954,0.0001305629,5,1
-0.0003841565,0.0001116012,5,1
-0.0004079801,8.405014e-05,5,1
-0.000385291,4.920609e-05,5,1
-0.0002945344,1.517237e-05,5,1
-0.0001258245,-1.140634e-05,5,1
0.0001175977,-2.599222e-05,5,1
0.0004004017,-2.939559e-05,5,1
0.0006699165,-2.388537e-05,5,1
0.0008778464,-1.691656e-05,5,1
0.00100442,-1.399939e-05,5,1
0.001059036,-1.724069e-05,5,1
0.001068435,-2.728874e-05,5,1
0.001065194,-4.236082e-05,5,1
0.001083508,-5.710876e-05,5,1
0.001150279,-6.359137e-05,5,1
0.001268586,-5.775702e-05,5,1
0.001416066,-4.333321e-05,5,1
0.001552039,-2.291298e-05,5,1
0.001635827,4.244267e-07,5,1
0.001644579,2.667901e-05,5,1
0.001572622,5.455425e-05,5,1
0.001413635,7.740546e-05,5,1
0.001171671,8.615699e-05,5,1
0.0008759017,7.481241e-05,5,1
0.000572191,4.596478e-05,5,1
0.0002968419,1.22552e-05,5,1
7.67572e-05,-1.399939e-05,5,1
-7.250496e-05,-2.696461e-05,5,1
-0.0001480274,-2.728874e-05,5,1
-0.0001640719,-2.647842e-05,5,1
-0.0001525652,-3.652646e-05,5,1
-0.0001528894,-6.051213e-05,5,1
-0.0001815749,-9.308726e-05,5,1
-0.0002295462,-0.0001258245,5,1
-0.000271035,-0.0001530514,5,1
-0.0002946965,-0.0001703924,5,1
-0.0003123616,-0.0001812508,5,1
-0.0003465574,-0.0001908126,5,1
-0.0004118697,-0.0001972953,5,1
-0.0005023021,-0.0001955125,5,1
-0.0005937069,-0.00018433,5,1
-0.0006569124,-0.0001679614,5,1
-0.000673281,-0.0001517549,5,1
-0.0006488092,-0.0001365208,5,1
-0.0006146134,-0.0001240417,5,1
-0.0006048895,-0.0001141558,5,1
-0.0006338991,-0.0001092938,5,1
-0.0006802498,-0.0001099421,5,1
-0.0007022907,-0.0001128592,5,1
-0.0006713362,-0.000112211,5,1
-0.0005907898,-0.0001021629,5,1
-0.000484637,-8.190475e-05,5,1
-0.000377836,-5.581224e-05,5,1
-0.0002857829,-3.101625e-05,5,1
-0.0002253326,-1.497178e-05,5,1
-0.000204102,-1.010982e-05,5,1
-0.0002183637,-1.189254e-05,5,1
-0.0002425115,-1.25408e-05,5,1
-0.0002421874,-6.544382e-06,5,1
-0.0001882196,9.986281e-06,5,1
-7.866345e-05,3.397195e-05,5,1
5.909208e-05,6.265751e-05,5,1
0.0001882582,9.004655e-05,5,1
0.0002867939,0.0001148425,5,1
0.0003504856,0.0001347766,5,1
0.0003775505,0.0001526038,5,1
0.0003618301,0.0001673517,5,1
0.0003010556,0.0001788584,5,1
0.0002015475,0.000185341,5,1
8.226741e-05,0.0001906891,5,1
-2.242678e-05,0.0002031682,5,1
-7.720486e-05,0.0002315296,5,1
-6.407757e-05,0.000274801,5,1
-3.14101e-06,0.0003271482,5,1
5.649903e-05,0.0003700955,5,1
6.670914e-05,0.0003846814,5,1
1.095867e-05,0.000361506,5,1
-9.276313e-05,0.0003065659,5,1
-0.000209126,0.0002396328,5,1
-0.000310741,0.0001756171,5,1
-0.0003809152,0.000125863,5,1
-0.0004164075,9.21534e-05,5,1
-0.0004246728,7.416415e-05,5,1
-0.0004293727,6.78436e-05,5,1
-0.0004562756,6.78436e-05,5,1
-0.0005201293,6.735741e-05,5,1
-0.0006173685,6.087479e-05,5,1
-0.0007309763,5.098881e-05,5,1
-0.0008543079,3.948217e-05,5,1
-0.000996115,2.700314e-05,5,1
-0.001156236,1.582063e-05,5,1
-0.001298853,7.393236e-06,5,1
-0.001353793,1.883015e-06,5,1
-0.001255744,-3.951337e-06,5,1
-0.0009891463,-1.3027e-05,5,1
-0.0006027826,-2.664048e-05,5,1
-0.0001972953,-4.754691e-05,5,1
0.0001146805,-7.542214e-05,5,1
0.0002603772,-0.000104918,5,1
0.0002406053,-0.0001337657,5,1
0.0001257009,-0.0001642339,5,1
1.711715e-05,-0.0002003745,5,1
-3.465141e-06,-0.0002436459,5,1
7.772959e-05,-0.0002895104,5,1
0.0002075439,-0.000328244,5,1
0.0003132105,-0.00035304,5,1
0.000351458,-0.0003638984,5,1
0.0003162898,-0.0003593606,5,1
0.000225209,-0.0003387782,5,1
0.0001077117,-0.0003087962,5,1
-5.085794e-06,-0.000278652,5,1
-9.211487e-05,-0.0002566112,5,1
-0.000149486,-0.0002491561,5,1
-0.000189192,-0.0002541802,5,1
-0.0002220912,-0.0002582318,5,1
-0.0002493182,-0.0002447804,5,1
-0.0002624455,-0.0002024813,5,1
-0.000261311,-0.0001311726,5,1
-0.0002523975,-4.025397e-05,5,1
-0.0002395943,5.050261e-05,5,1
-0.000213988,0.0001193804,5,1
-0.0001655305,0.0001551968,5,1
-9.470791e-05,0.0001608691,5,1
-1.545797e-05,0.0001545486,5,1
6.055066e-05,0.0001529279,5,1
0.0001336421,0.0001657311,5,1
0.0002107852,0.0001932822,5,1
0.0002961937,0.0002237505,5,1
0.000383709,0.0002430362,5,1
0.0004645796,0.000239957,5,1
0.0005354022,0.0002161334,5,1
0.000601849,0.0001848548,5,1
0.0006776956,0.0001598967,5,1
0.0007694247,0.0001480659,5,1
0.0008652053,0.0001501728,5,1
0.0009337591,0.0001615174,5,1
0.0009425106,0.0001731861,5,1
0.0008854635,0.0001790204,5,1
0.0007835244,0.0001772377,5,1
0.0006728336,0.0001699448,5,1
0.0005785116,0.0001620036,5,1
0.0004976409,0.0001558451,5,1
0.0004226047,0.0001490383,5,1
0.0003670162,0.0001427178,5,1
0.0003631267,0.0001410971,5,1
0.000435894,0.0001454729,5,1
0.0005809425,0.0001516314,5,1
0.0007661834,0.0001561692,5,1
0.0009431589,0.000160707,5,1
0.001069894,0.0001637863,5,1
0.001120783,0.0001626518,5,1
0.001097769,0.0001571416,5,1
0.001029702,0.0001524417,5,1
0.000968279,0.0001550348,5,1
0.0009530449,0.000165569,5,1
0.0009781651,0.0001761032,5,1
0.0009955061,0.000177886,5,1
0.0009601758,0.0001626518,5,1
0.0008663398,0.0001297526,5,1
0.0007441425,8.226741e-05,5,1
0.0006433378,2.910999e-05,5,1
0.0006016869,-2.129233e-05,5,1
0.0006232416,-6.472583e-05,5,1
0.0006669993,-9.568031e-05,5,1
0.0006725095,-0.0001092938,5,1
0.0005979594,-0.0001114006,5,1
0.0004297355,-0.0001084835,5,1
0.0001812893,-0.0001044318,5,1
-0.0001186936,-9.973194e-05,5,1
-0.0004390967,-9.2439e-05,5,1
-0.0007505861,-8.692878e-05,5,1
-0.001025773,-8.676672e-05,5,1
-0.001235648,-9.098041e-05,5,1
-0.001357359,-9.681477e-05,5,1
-0.001388313,-0.0001058904,5,1
-0.001346176,-0.0001165867,5,1
-0.001254123,-0.0001300382,5,1
-0.00114246,-0.000149486,5,1
-0.001040845,-0.0001794681,5,1
-0.0009627296,-0.0002157707,5,1
-0.0008954725,-0.0002504527,5,1
-0.0008176812,-0.0002741142,5,1
-0.000713149,-0.0002848105,5,1
-0.0005757177,-0.0002825416,5,1
-0.0004018217,-0.0002708729,5,1
-0.0001982676,-0.0002585559,5,1
1.630683e-05,-0.0002561249,5,1
0.0002039785,-0.0002643903,5,1
0.0003180725,-0.000278652,5,1
0.0003218,-0.0002925897,5,1
0.0002122438,-0.0002990722,5,1
1.517237e-05,-0.0002872415,5,1
-0.0002193361,-0.000248832,5,1
-0.0004415277,-0.0001846542,5,1
-0.0006238511,-0.0001071869,5,1
-0.0007590136,-3.506788e-05,5,1
-0.0008560906,1.776542e-05,5,1
-0.0009269132,4.402e-05,5,1
-0.0009839601,4.693717e-05,5,1
-0.001031283,3.769945e-05,5,1
-0.00106872,2.667901e-05,5,1
-0.001094327,1.436204e-05,5,1
-0.001098702,-1.520357e-06,5,1
-0.001073744,-1.724069e-05,5,1
-0.001026097,-2.809907e-05,5,1
-0.0009716432,-3.231277e-05,5,1
-0.000921565,-3.522994e-05,5,1
-0.000871811,-4.155049e-05,5,1
-0.0008129813,-5.2733e-05,5,1
-0.0007400519,-6.926366e-05,5,1
-0.0006514022,-8.871149e-05,5,1
-0.0005499493,-0.0001055663,5,1
-0.0004450931,-0.0001156143,5,1
-0.0003472056,-0.0001115627,5,1
-0.0002543422,-9.535618e-05,5,1
-0.0001601823,-7.18567e-05,5,1
-5.986387e-05,-4.284701e-05,5,1
4.888196e-05,-1.335113e-05,5,1
0.0001673517,1.760335e-05,5,1
0.000292142,5.017848e-05,5,1
0.0004149876,8.340187e-05,5,1
0.0005363746,0.0001132219,5,1
0.0006674855,0.00013818,5,1
0.0008203132,0.0001589243,5,1
0.0009904819,0.0001782101,5,1
0.001167782,0.00019782,5,1
0.001353347,0.0002213195,5,1
0.001556253,0.0002540567,5,1
0.001783307,0.0002987867,5,1
0.00201652,0.0003461098,5,1
0.00220322,0.0003824125,5,1
0.002280039,0.0003978086,5,1
0.002205003,0.0003901916,5,1
0.00197811,0.0003623164,5,1
0.001644741,0.0003230965,5,1
0.001266156,0.0002825802,5,1
0.0009006977,0.0002466017,5,1
0.0005815908,0.0002209954,5,1
0.0003211517,0.000207706,5,1
0.000118408,0.0002049509,5,1
-3.020592e-05,0.0002078681,5,1
-0.0001344139,0.0002078681,5,1
-0.0002107467,0.0001997648,5,1
-0.0002668213,0.0001796687,5,1
-0.0003018274,0.0001474177,5,1
-0.0003168994,0.0001083599,5,1
-0.0003185201,6.768154e-05,5,1
-0.0003130099,2.894792e-05,5,1
-0.0002982619,-3.789272e-06,5,1
-0.0002848105,-2.728874e-05,5,1
-0.0002956689,-4.171256e-05,5,1
-0.0003544986,-5.143648e-05,5,1
-0.0004655133,-5.824322e-05,5,1
-0.0006118583,-6.715681e-05,5,1
-0.0007593377,-8.303922e-05,5,1
-0.0008675972,-0.00010978,5,1
-0.0009116791,-0.0001455964,5,1
-0.0008957966,-0.0001836818,5,1
-0.0008523631,-0.0002125294,5,1
-0.0008188156,-0.0002204706,5,1
-0.0008081193,-0.0002052365,5,1
-0.000812333,-0.0001770371,5,1
-0.0008207604,-0.0001485136,5,1
-0.0008243258,-0.000129714,5,1
-0.000817195,-0.0001248521,5,1
-0.0007969369,-0.0001295519,5,1
-0.0007619307,-0.000137169,5,1
-0.0007175248,-0.0001374932,5,1
-0.0006729569,-0.0001264727,5,1
-0.0006347094,-0.0001112386,5,1
-0.0005972724,-0.0001005423,5,1
-0.0005518941,-9.438378e-05,5,1
-0.0004914437,-8.368748e-05,5,1
-0.0004117076,-5.532604e-05,5,1
-0.0003049066,-9.137427e-06,5,1
-0.0001614788,4.628891e-05,5,1
1.501031e-05,9.912221e-05,5,1
0.0001997648,0.0001367214,5,1
0.0003558337,0.0001534141,5,1
0.0004548557,0.0001498487,5,1
0.0004909963,0.0001300767,5,1
0.0004851619,0.0001009049,5,1
0.0004756001,6.930219e-05,5,1
0.0004932652,4.013043e-05,5,1
0.0005443158,1.841368e-05,5,1
0.0006148142,1.014835e-05,5,1
0.0006869333,1.257933e-05,5,1
0.0007475458,1.873781e-05,5,1
0.0007891966,2.39239e-05,5,1
0.0008092928,2.651694e-05,5,1
0.0008058894,2.846173e-05,5,1
0.0007694247,3.60788e-05,5,1
0.0006937401,5.179914e-05,5,1
0.0005780254,7.011252e-05,5,1
0.0004352458,8.729144e-05,5,1
0.0002923041,0.0001041462,5,1
0.0001812893,0.0001235941,5,1
0.0001116012,0.0001464453,5,1
7.221937e-05,0.0001702689,5,1
3.915804e-05,0.0001889064,5,1
-1.059602e-05,0.0002023578,5,1
-8.352541e-05,0.0002125679,5,1
-0.0001679614,0.0002184023,5,1
-0.0002489941,0.0002161334,5,1
-0.0003057169,0.0001968476,5,1
-0.0003250027,0.000160545,5,1
-0.0003003688,0.0001098185,5,1
-0.0002418632,5.471631e-05,5,1
-0.00016942,1.241726e-05,5,1
-0.0001079973,-9.461558e-06,5,1
-7.623246e-05,-1.497178e-05,5,1
-7.850138e-05,-1.027188e-05,5,1
-9.859748e-05,-1.034161e-06,5,1
-0.0001165867,6.096713e-06,5,1
-0.0001323071,1.112074e-05,5,1
-0.0001611547,2.052053e-05,5,1
-0.0002144742,3.737532e-05,5,1
-0.0002830278,5.698522e-05,5,1
-0.0003436402,7.270556e-05,5,1
-0.0003812394,7.837785e-05,5,1
-0.0003930701,6.816773e-05,5,1
-0.0003912874,4.239934e-05,5,1
-0.0003916115,6.096713e-06,5,1
-0.0004013355,-3.425755e-05,5,1
-0.0004181903,-6.974985e-05,5,1
-0.0004361795,-9.584238e-05,5,1
-0.0004570859,-0.0001130213,5,1
-0.0004888507,-0.0001255003,5,1
-0.000539253,-0.0001344139,5,1
-0.0005974344,-0.0001386276,5,1
-0.000628551,-0.0001410586,5,1
-0.0005997034,-0.0001462447,5,1
-0.0005058676,-0.0001522411,5,1
-0.0003732982,-0.0001556445,5,1
-0.0002344082,-0.0001564548,5,1
-0.0001079973,-0.0001562927,5,1
-1.034161e-06,-0.0001546721,5,1
8.372601e-05,-0.0001507825,5,1
0.0001537382,-0.0001412206,5,1
0.0002260194,-0.0001255003,5,1
0.0003156415,-0.0001005423,5,1
0.0004313562,-6.829127e-05,5,1
0.0005762426,-3.976777e-05,5,1
0.0007276118,-2.501983e-05,5,1
0.0008413817,-2.599222e-05,5,1
0.0008853014,-4.284701e-05,5,1
0.0008613158,-7.315322e-05,5,1
0.0008029722,-0.0001112386,5,1
0.0007481941,-0.0001483515,5,1
0.0007185361,-0.0001786577,5,1
0.000718374,-0.0001940539,5,1
0.0007318255,-0.0001940539,5,1
0.000725829,-0.0001874093,5,1
0.0006763991,-0.0001825473,5,1
0.0005905044,-0.0001818991,5,1
0.0004997478,-0.00018433,5,1
0.0004392974,-0.0001846542,5,1
0.0004204978,-0.0001810887,5,1
0.0004247115,-0.0001731475,5,1
0.0004149876,-0.0001621271,5,1
0.0003720403,-0.000151917,5,1
0.0003015418,-0.0001462447,5,1
0.0002243987,-0.0001418689,5,1
0.0001542244,-0.000137169,5,1
9.361199e-05,-0.0001323071,5,1
3.202716e-05,-0.0001235555,5,1
-3.830919e-05,-0.000107349,5,1
-0.0001214487,-8.303922e-05,5,1
-0.0002146363,-5.289507e-05,5,1
-0.0003156029,-2.258885e-05,5,1
-0.0004209454,7.069105e-06,5,1
-0.0005235327,3.899597e-05,5,1
-0.0006133168,7.643307e-05,5,1
-0.0006724707,0.0001175977,5,1
-0.0006551297,0.0001498487,5,1
-0.0004880404,0.0001678379,5,1
-0.0001313347,0.0001791825,5,1
0.0003598854,0.0001926339,5,1
0.0008684467,0.00021273,5,1
0.001302944,0.0002346088,5,1
0.001610383,0.0002475741,5,1
0.001760942,0.0002446569,5,1
0.001735822,0.0002248849,5,1
0.001536805,0.000195389,5,1
0.001205867,0.0001636242,5,1
0.0008214476,0.000135749,5,1
0.0004721967,0.0001182459,5,1
0.0002256952,0.0001177597,5,1
9.766362e-05,0.0001367214,5,1
5.747142e-05,0.0001699448,5,1
5.974033e-05,0.0002090025,5,1
5.860588e-05,0.0002417397,5,1
2.359977e-05,0.000259891,5,1
-5.662256e-05,0.000259729,5,1
-0.0001794681,0.0002436845,5,1
-0.0003272716,0.0002156472,5,1
-0.0004689167,0.0001858272,5,1
-0.0005778245,0.0001621656,5,1
-0.0006369784,0.000150659,5,1
-0.0006489712,0.000145797,5,1
-0.0006332509,0.0001402868,5,1
-0.0006180168,0.0001294284,5,1
-0.0006223925,0.0001169494,5,1
-0.0006593434,0.0001091703,5,1
-0.0007322728,0.0001096565,5,1
-0.0008278913,0.0001167873,5,1
-0.0009262649,0.0001235941,5,1
-0.001002922,0.0001226217,5,1
-0.001041169,0.0001148425,5,1
-0.001036307,0.0001028497,5,1
-0.00099336,9.118101e-05,5,1
-0.0009248063,8.453633e-05,5,1
-0.0008408565,8.583286e-05,5,1
-0.0007389174,9.247754e-05,5,1
-0.0006150996,0.0001023635,5,1
-0.0004826922,0.0001096565,5,1
-0.0003713534,0.0001065772,5,1
-0.0003029619,8.858796e-05,5,1
-0.0002856209,6.006447e-05,5,1
-0.0003089583,2.505836e-05,5,1
-0.0003544986,-1.075808e-05,5,1
-0.000410249,-4.511593e-05,5,1
-0.0004611376,-7.704279e-05,5,1
-0.0004883645,-0.000107349,5,1
-0.0004810716,-0.0001358725,5,1
-0.0004493068,-0.0001660166,5,1
-0.0004091146,-0.000199078,5,1
-0.0003684362,-0.000233922,5,1
-0.0003196545,-0.0002622834,5,1
-0.0002523975,-0.0002723315,5,1
-0.0001763888,-0.0002639041,5,1
-0.0001170729,-0.0002433218,5,1
-9.762509e-05,-0.0002182017,5,1
-0.000132145,-0.0001974573,5,1
-0.0002180396,-0.0001872472,5,1
-0.0003303509,-0.0001874093,5,1
-0.000430021,-0.0001994021,5,1
-0.0004838267,-0.0002147983,5,1
-0.0004813957,-0.0002182017,5,1
-0.0004446069,-0.0001959987,5,1
-0.0004105732,-0.0001478653,5,1
-0.0004105732,-8.806324e-05,5,1
-0.0004525481,-3.312309e-05,5,1
-0.0005149432,5.934648e-06,5,1
-0.0005535148,2.603075e-05,5,1
-0.0005107295,2.797553e-05,5,1
-0.0003452609,1.711715e-05,5,1
-6.294311e-05,-3.951337e-06,5,1
0.0002733424,-3.182657e-05,5,1
0.0005708945,-5.759496e-05,5,1
0.0007613214,-7.056019e-05,5,1
0.000832144,-6.618442e-05,5,1
0.0008195029,-4.965376e-05,5,1
0.0007783383,-3.393342e-05,5,1
0.00074787,-2.323711e-05,5,1
0.0007462493,-1.351319e-05,5,1
0.0007746107,-7.100305e-07,5,1
0.0008199891,1.760335e-05,5,1
0.0008606675,3.948217e-05,5,1
0.0008681226,5.909208e-05,5,1
0.0008154513,6.914012e-05,5,1
0.0006969814,7.157111e-05,5,1
0.0005465847,7.30297e-05,5,1
0.0004190393,8.04847e-05,5,1
0.0003532407,9.490851e-05,5,1
0.0003530786,0.0001112771,5,1
0.0003895433,0.000123432,5,1
0.0004200116,0.000128294,5,1
0.0004253598,0.0001253768,5,1
0.0004065602,0.0001143563,5,1
0.0003845193,9.766362e-05,5,1
0.0003840331,8.226741e-05,5,1
0.0004208219,7.367795e-05,5,1
0.0004861343,7.367795e-05,5,1
0.0005475571,8.307774e-05,5,1
0.000579646,0.000103498,5,1
0.0005655463,0.0001349386,5,1
0.0005008822,0.0001678379,5,1
0.0003979707,0.0001932822,5,1
0.0002872801,0.0002047888,5,1
0.0001983062,0.0001981441,5,1
0.0001513072,0.0001744826,5,1
0.0001504969,0.0001414213,5,1
0.0001842065,0.000106091,5,1
0.0002308813,7.367795e-05,5,1
0.0002720459,4.35338e-05,5,1
0.0003054314,1.501031e-05,5,1
0.0003431926,-1.010982e-05,5,1
0.0004057499,-3.166451e-05,5,1
0.0004952099,-5.532604e-05,5,1
0.0005853184,-8.498399e-05,5,1
0.000634262,-0.0001250141,5,1
0.0006125454,-0.0001750923,5,1
0.0005081752,-0.0002259808,5,1
0.0003279585,-0.0002677937,5,1
9.571884e-05,-0.000295993,5,1
-0.0001425172,-0.0003062031,5,1
-0.0003340784,-0.0002982619,5,1
-0.0004463896,-0.0002695764,5,1
-0.0004930644,-0.0002217671,5,1
-0.000514457,-0.0001562927,5,1
-0.0005470322,-7.526008e-05,5,1
-0.0006034309,1.484824e-05,5,1
-0.0006760361,9.896015e-05,5,1
-0.0007513965,0.0001620036,5,1
-0.0008176812,0.0001973338,5,1
-0.0008599802,0.0002030061,5,1
-0.0008586837,0.0001859892,5,1
-0.0007915886,0.0001563313,5,1
-0.0006549676,0.0001244044,5,1
-0.0004781544,9.814982e-05,5,1
-0.0003070135,7.740546e-05,5,1
-0.0001853024,6.006447e-05,5,1
-0.000134738,4.191315e-05,5,1
-0.000147055,2.278944e-05,5,1
-0.0001950263,3.179537e-06,5,1
-0.0002596904,-1.529591e-05,5,1
-0.0003407231,-3.101625e-05,5,1
-0.0004410415,-4.414354e-05,5,1
-0.0005598353,-5.905355e-05,5,1
-0.0006988873,-8.012204e-05,5,1
-0.0008523631,-0.0001041077,5,1
-0.001006163,-0.0001240417,5,1
-0.001136302,-0.0001311726,5,1
-0.001215389,-0.0001253383,5,1
-0.001216686,-0.0001092938,5,1
-0.001133709,-8.741498e-05,5,1
-0.0009902808,-6.359137e-05,5,1
-0.0008191398,-4.122636e-05,5,1
-0.0006504298,-2.388537e-05,5,1
-0.0005099192,-1.108221e-05,5,1
-0.0004044147,-2.330684e-06,5,1
-0.0003074997,2.04508e-06,5,1
-0.000171851,7.555301e-06,5,1
6.136099e-05,1.695509e-05,5,1
0.000425846,2.797553e-05,5,1
0.0008979426,3.818565e-05,5,1
0.001401642,4.596478e-05,5,1
0.001852023,5.19612e-05,5,1
0.00217421,5.423012e-05,5,1
0.002334331,4.904402e-05,5,1
0.002350052,3.60788e-05,5,1
0.002268532,1.889987e-05,5,1
0.002131263,1.396819e-06,5,1
0.001964011,-1.416145e-05,5,1
0.001791573,-2.145439e-05,5,1
0.001640689,-1.513384e-05,5,1
0.001536157,6.744974e-06,5,1
0.001489644,4.304761e-05,5,1
0.001483161,8.46984e-05,5,1
0.001470844,0.0001190562,5,1
0.001413311,0.0001349386,5,1
0.001284307,0.0001312112,5,1
0.001076701,0.0001122495,5,1
0.0008060515,8.631905e-05,5,1
0.0005078511,6.395404e-05,5,1
0.0002333123,5.179914e-05,5,1
1.954813e-05,5.277153e-05,5,1
-0.0001342519,6.281957e-05,5,1
-0.0002640662,7.57848e-05,5,1
-0.0004157593,8.615699e-05,5,1
-0.0006215822,9.31258e-05,5,1
-0.0008800763,9.68533e-05,5,1
-0.001157694,9.750156e-05,5,1
-0.001405978,9.604298e-05,5,1
-0.001586357,9.847395e-05,5,1
-0.001676952,0.000106091,5,1
-0.001666741,0.0001104668,5,1
-0.001557996,0.000106091,5,1
-0.001376644,8.988449e-05,5,1
-0.00117617,6.233338e-05,5,1
-0.00101378,2.700314e-05,5,1
-0.0009063309,-1.043395e-05,5,1
-0.0008275671,-4.495386e-05,5,1
-0.0007415105,-6.974985e-05,5,1
-0.0006317923,-8.222889e-05,5,1
-0.0005141329,-8.498399e-05,5,1
-0.0004246728,-8.320128e-05,5,1
-0.0003914495,-8.141856e-05,5,1
-0.0004160834,-8.093236e-05,5,1
-0.0004729683,-8.303922e-05,5,1
-0.0005314739,-8.709085e-05,5,1
-0.0005770142,-9.114248e-05,5,1
-0.0006154237,-9.373552e-05,5,1
-0.000655778,-9.470791e-05,5,1
-0.0007000218,-9.357346e-05,5,1
-0.0007410243,-9.227693e-05,5,1
-0.0007713305,-9.535618e-05,5,1
-0.000784944,-0.0001037836,5,1
-0.0007838095,-0.0001120489,5,1
-0.0007669547,-0.0001138316,5,1
-0.0007275729,-0.0001104282,5,1
-0.0006539953,-0.0001089697,5,1
-0.0005439529,-0.0001190177,5,1
-0.0004040906,-0.0001387897,5,1
-0.0002553146,-0.0001630995,5,1
-0.0001267968,-0.0001859507,5,1
-4.171256e-05,-0.0002036158,5,1
-1.196227e-06,-0.000208964,5,1
1.727922e-05,-0.0001987538,5,1
3.964424e-05,-0.0001760647,5,1
8.275361e-05,-0.0001460826,5,1
0.0001398006,-0.0001125351,5,1
0.0001897167,-7.671866e-05,5,1
0.0002106232,-3.539201e-05,5,1
0.0001867996,1.387585e-05,5,1
0.0001137081,6.395404e-05,5,1
1.12828e-05,0.0001080358,5,1
-8.644259e-05,0.0001412592,5,1
-0.0001553203,0.0001654069,5,1
-0.0001882196,0.0001840444,5,1
-0.0001935677,0.0001973338,5,1
-0.0001851404,0.0002030061,5,1
-0.0001624512,0.0001973338,5,1
-0.0001083214,0.0001782101,5,1
-9.623623e-06,0.0001448246,5,1
0.0001211631,0.0001012291,5,1
0.0002448189,5.860588e-05,5,1
0.0003208276,2.586868e-05,5,1
0.0003255275,8.203562e-06,5,1
0.0002584324,8.365628e-06,5,1
0.0001467694,2.603075e-05,5,1
2.76514e-05,5.666109e-05,5,1
-5.743289e-05,9.750156e-05,5,1
-8.709085e-05,0.0001378558,5,1
-5.32192e-05,0.000168162,5,1
3.478228e-05,0.0001809652,5,1
0.000150659,0.0001819376,5,1
0.0002618358,0.0001838824,5,1
0.0003431926,0.0001963614,5,1
0.0003929467,0.0002185644,5,1
0.0004255218,0.0002504913,5,1
0.0004569625,0.0002879283,5,1
0.0004924549,0.0003235827,5,1
0.0005290816,0.0003444891,5,1
0.0005525811,0.0003440029,5,1
0.0005496639,0.0003232586,5,1
0.0005302161,0.0002901973,5,1
0.0005287575,0.0002545429,5,1
0.000574622,0.0002196988,5,1
0.0006619753,0.0001827479,5,1
0.0007540284,0.0001430419,5,1
0.0008054032,0.0001018773,5,1
0.0007836864,6.525056e-05,5,1
0.0006770474,3.364782e-05,5,1
0.0005039615,6.096713e-06,5,1
0.0003051073,-2.145439e-05,5,1
0.0001334801,-4.787104e-05,5,1
3.867184e-05,-7.007399e-05,5,1
3.445814e-05,-8.82253e-05,5,1
8.891209e-05,-0.0001037836,5,1
0.000155683,-0.0001209625,5,1
0.0001986303,-0.0001405724,5,1
0.0002107852,-0.0001606685,5,1
0.000202844,-0.0001773612,5,1
0.0001906891,-0.000184168,5,1
0.0001856651,-0.0001783336,5,1
0.0001934442,-0.0001627754,5,1
0.0002141886,-0.0001465688,5,1
0.0002607014,-0.0001391138,5,1
0.0003616681,-0.0001451102,5,1
0.0005365367,-0.0001609926,5,1
0.0007765555,-0.0001724993,5,1
0.001036995,-0.0001640719,5,1
0.001246384,-0.0001292278,5,1
0.001329523,-7.882551e-05,5,1
0.001243142,-2.971972e-05,5,1
0.001005392,1.720949e-06,5,1
0.0006806127,1.241726e-05,5,1
0.0003498373,9.66215e-06,5,1
7.140904e-05,3.989864e-06,5,1
-0.0001310105,3.503668e-06,5,1
-0.0002699005,5.286387e-06,5,1
-0.0003789705,3.665733e-06,5,1
-0.0004982505,-5.409925e-06,5,1
-0.0006436231,-2.275091e-05,5,1
-0.0008017988,-4.689865e-05,5,1
-0.000936475,-7.23429e-05,5,1
-0.001002111,-9.632857e-05,5,1
-0.0009606228,-0.0001130213,5,1
-0.0008100641,-0.0001139937,5,1
-0.0005990551,-9.535618e-05,5,1
-0.0003989045,-5.970181e-05,5,1
-0.0002582318,-1.448558e-05,5,1
-0.000174282,2.894792e-05,5,1
-0.0001167488,5.909208e-05,5,1
-5.64605e-05,6.946425e-05,5,1
2.068259e-05,5.893001e-05,5,1
0.0001098185,3.024445e-05,5,1
0.0001827479,-6.382317e-06,5,1
0.0001976579,-4.317115e-05,5,1
0.0001360731,-7.039812e-05,5,1
1.54965e-05,-8.125649e-05,5,1
-0.0001203142,-7.153257e-05,5,1
-0.0002135018,-4.219875e-05,5,1
-0.0002204706,-1.358292e-06,5,1
-0.0001237176,3.98063e-05,5,1
6.395404e-05,6.865393e-05,5,1
0.0002924662,8.097089e-05,5,1
0.0004880791,7.821578e-05,5,1
0.0005999042,5.99024e-05,5,1
0.0006174073,2.781346e-05,5,1
0.0005665187,-1.075808e-05,5,1
0.0004806241,-4.236082e-05,5,1
0.0003752816,-6.051213e-05,5,1
0.0002493568,-7.056019e-05,5,1
9.490851e-05,-7.688073e-05,5,1
-8.903562e-05,-8.060823e-05,5,1
-0.0002880518,-8.044617e-05,5,1
-0.0004768579,-7.526008e-05,5,1
-0.0006279027,-6.456377e-05,5,1
-0.0007207661,-5.435365e-05,5,1
-0.0007492896,-4.819517e-05,5,1
-0.000720442,-4.511593e-05,5,1
-0.0006601537,-3.733679e-05,5,1
-0.0006044033,-2.242678e-05,5,1
-0.0005736109,-4.275467e-06,5,1
-0.0005612939,1.095867e-05,5,1
-0.0005355255,2.052053e-05,5,1
-0.0004681064,2.619281e-05,5,1
-0.0003446126,3.478228e-05,5,1
-0.0001715269,5.309566e-05,5,1
2.068259e-05,8.518459e-05,5,1
0.0001848548,0.0001286181,5,1
0.000289387,0.0001735102,5,1
0.0003389789,0.0002096508,5,1
0.0003634508,0.0002312055,5,1
0.0003832228,0.0002381743,5,1
0.0004063981,0.0002355812,5,1
0.0004289252,0.0002289366,5,1
0.000435894,0.0002224539,5,1
0.0004073705,0.0002112714,5,1
0.0003294171,0.0001859892,5,1
0.0002080301,0.0001423936,5,1
6.541262e-05,8.210535e-05,5,1
-7.931171e-05,1.533444e-05,5,1
-0.0002144742,-4.981582e-05,5,1
-0.0003374817,-0.0001054042,5,1
-0.0004467137,-0.0001455964,5,1
-0.0005305015,-0.0001689338,5,1
-0.0005692351,-0.000176875,5,1
-0.0005574043,-0.0001687718,5,1
-0.000516888,-0.0001475412,5,1
-0.0004875542,-0.0001178833,5,1
-0.0004976023,-8.854943e-05,5,1
-0.0005429805,-6.926366e-05,5,1
-0.0005930586,-6.586029e-05,5,1
-0.0006201236,-7.526008e-05,5,1
-0.0006175305,-9.584238e-05,5,1
-0.0005880346,-0.0001219349,5,1
-0.0005334187,-0.0001496481,5,1
-0.0004559515,-0.0001707166,5,1
-0.0003642225,-0.0001807646,5,1
-0.0002752487,-0.0001809267,5,1
-0.0002032917,-0.0001721751,5,1
-0.0001538618,-0.0001601823,5,1
-0.0001277692,-0.0001498101,5,1
-0.0001227452,-0.0001460826,5,1
-0.0001289037,-0.0001475412,5,1
-0.0001408965,-0.000144624,5,1
-0.0001606685,-0.0001349001,5,1
-0.0001887058,-0.0001232314,5,1
-0.0002170672,-0.0001165867,5,1
-0.00021415,-0.0001161005,5,1
-0.0001399241,-0.0001167488,5,1
1.403791e-05,-0.0001131834,5,1
0.0002172679,-0.0001031353,5,1
0.0004188772,-8.628052e-05,5,1
0.0005742979,-6.375344e-05,5,1
0.0006501445,-3.863332e-05,5,1
0.0006349103,-1.3027e-05,5,1
0.0005480433,1.144487e-05,5,1
0.0004341113,3.056858e-05,5,1
0.0003508097,4.483033e-05,5,1
0.0003381686,5.504044e-05,5,1
0.0003832228,6.46023e-05,5,1
0.0004324906,7.951231e-05,5,1
0.0004373526,0.0001026876,5,1
0.0003854917,0.0001297526,5,1
0.0002908455,0.0001553589,5,1
0.0001796687,0.0001767515,5,1
8.340187e-05,0.0001880961,5,1
2.76514e-05,0.0001827479,5,1
2.181705e-05,0.0001595726,5,1
6.654708e-05,0.0001310491,5,1
0.0001598967,0.0001094944,5,1
0.000294573,0.0001026876,5,1
0.0004444835,0.0001138702,5,1
0.0005614947,0.0001404489,5,1
0.0006075213,0.0001783722,5,1
0.0005710566,0.0002227781,5,1
0.0004726828,0.0002686426,5,1
0.0003428685,0.000309483,5,1
0.0002015475,0.000336548,5,1
5.61749e-05,0.0003499994,5,1
-9.049421e-05,0.0003579406,5,1
-0.0002347323,0.0003647473,5,1
-0.0003663294,0.000368961,5,1
-0.0004703753,0.0003636129,5,1
-0.0005358497,0.0003438409,5,1
-0.0005698834,0.0003083486,5,1
-0.0005919242,0.0002615117,5,1
-0.0006189891,0.0002075439,5,1
-0.0006564262,0.0001504969,5,1
-0.0006979149,9.377406e-05,5,1
-0.0007272488,3.964424e-05,5,1
-0.0007295177,-1.286493e-05,5,1
-0.0006982391,-6.310517e-05,5,1
-0.0006342233,-0.0001088076,5,1
-0.000544277,-0.0001436516,5,1
-0.0004412035,-0.0001605064,5,1
-0.0003434782,-0.0001598582,5,1
-0.0002705488,-0.0001475412,5,1
-0.0002209568,-0.0001313347,5,1
-0.0001784957,-0.0001173971,5,1
-0.0001379794,-0.0001067007,5,1
-0.0001105903,-9.956988e-05,5,1
-0.0001032974,-9.551824e-05,5,1
-0.0001057284,-9.29252e-05,5,1
-9.535618e-05,-8.725291e-05,5,1
-5.305713e-05,-7.736692e-05,5,1
1.906194e-05,-6.602235e-05,5,1
0.0001009049,-5.986387e-05,5,1
0.0001688103,-6.245691e-05,5,1
0.0002088404,-7.60704e-05,5,1
0.0002260194,-9.924574e-05,5,1
0.0002456293,-0.0001264727,5,1
0.0003057555,-0.0001511067,5,1
0.0004146635,-0.0001660166,5,1
0.0005465847,-0.000166989,5,1
0.000661327,-0.0001548341,5,1
0.0007329599,-0.0001383035,5,1
0.0007734763,-0.0001280934,5,1
0.0008224201,-0.0001292278,5,1
0.0009044252,-0.0001353863,5,1
0.001012199,-0.0001386276,5,1
0.001118838,-0.0001314967,5,1
0.00118885,-0.0001110765,5,1
0.001192254,-7.963584e-05,5,1
0.001115921,-4.706071e-05,5,1
0.0009770306,-2.404744e-05,5,1
0.0008076721,-1.399939e-05,5,1
0.0006379896,-1.643037e-05,5,1
0.0004848378,-2.939559e-05,5,1
0.0003572923,-5.159854e-05,5,1
0.0002581083,-7.444975e-05,5,1
0.0001880961,-9.19528e-05,5,1
0.0001436902,-0.0001020008,5,1
0.000115977,-0.0001031353,5,1
8.615699e-05,-8.952183e-05,5,1
3.494434e-05,-6.132246e-05,5,1
-5.305713e-05,-2.583016e-05,5,1
-0.0001707166,5.286387e-06,5,1
-0.0002932379,2.700314e-05,5,1
-0.0003940425,3.834771e-05,5,1
-0.0004468758,4.72613e-05,5,1
-0.0004287245,6.41161e-05,5,1
-0.000330675,9.63671e-05,5,1
-0.000174444,0.0001378558,5,1
2.207145e-06,0.0001741585,5,1
0.0001624898,0.0001955511,5,1
0.0002829043,0.0001966855,5,1
0.0003597233,0.0001816135,5,1
0.0004044533,0.0001598967,5,1
0.0004200116,0.0001380179,5,1
0.0004065602,0.000120839,5,1
0.0003618301,0.0001112771,5,1
0.0002882525,0.0001077117,5,1
0.0001898788,0.0001049566,5,1
9.037068e-05,0.000103498,5,1
2.538249e-05,0.0001086841,5,1
8.527692e-06,0.0001221355,5,1
1.533444e-05,0.0001368834,5,1
-7.678839e-06,0.0001420695,5,1
-0.0001034594,0.000130887,5,1
-0.0002746004,0.0001038221,5,1
-0.0004907955,6.83298e-05,5,1
-0.0007146077,3.591673e-05,5,1
-0.0009121653,1.274139e-05,5,1
-0.001061427,3.503668e-06,5,1
-0.001144891,9.338019e-06,5,1
-0.001157694,2.781346e-05,5,1
-0.001106644,5.066468e-05,5,1
-0.001003732,6.800567e-05,5,1
-0.0008585216,7.254349e-05,5,1
-0.0006865704,6.119892e-05,5,1
-0.0005151053,3.899597e-05,5,1
-0.0003758912,8.041497e-06,5,1
-0.0002872415,-3.231277e-05,5,1
-0.0002551526,-7.882551e-05,5,1
-0.0002695764,-0.000122259,5,1
-0.000303286,-0.0001554824,5,1
-0.0003251648,-0.000174282,5,1
-0.000315765,-0.0001780095,5,1
-0.0002794623,-0.0001707166,5,1
-0.0002337599,-0.000159534,5,1
-0.0001900023,-0.0001491618,5,1
-0.0001387897,-0.0001399241,5,1
-5.629844e-05,-0.0001292278,5,1
7.140904e-05,-0.0001193418,5,1
0.0002389846,-0.0001139937,5,1
0.0004193634,-0.0001167488,5,1
0.0005765668,-0.0001233935,5,1
0.0006798024,-0.0001292278,5,1
0.0007068674,-0.0001324691,5,1
0.0006430136,-0.0001313347,5,1
0.0004948858,-0.0001251762,5,1
0.0002979764,-0.0001178833,5,1
0.0001038221,-0.0001141558,5,1
-4.284701e-05,-0.0001185315,5,1
-0.0001267968,-0.0001302002,5,1
-0.0001621271,-0.0001436516,5,1
-0.0001791439,-0.0001540238,5,1
-0.0002107467,-0.0001558065,5,1
-0.000261149,-0.0001486757,5,1
-0.0003134961,-0.0001292278,5,1
-0.0003544986,-9.778715e-05,5,1
-0.0003856151,-6.132246e-05,5,1
-0.000410087,-2.46957e-05,5,1
-0.0004207833,8.851824e-06,5,1
-0.000400201,4.158902e-05,5,1
-0.0003334301,7.52986e-05,5,1
-0.0002180396,0.0001128978,5,1
-6.521203e-05,0.0001524417,5,1
9.717743e-05,0.0001830721,5,1
0.000232502,0.0001958752,5,1
0.0003206656,0.0001864754,5,1
0.0003734989,0.0001589243,5,1
0.0004292493,0.0001240803,5,1
0.0005245438,9.21534e-05,5,1
0.0006755888,7.108491e-05,5,1
0.0008598572,6.233338e-05,5,1
0.001019168,6.168512e-05,5,1
0.001088856,6.46023e-05,5,1
0.001046395,6.670914e-05,5,1
0.0009258178,6.314371e-05,5,1
0.0007869278,5.601284e-05,5,1
0.0006751026,5.034055e-05,5,1
0.0006033076,5.050261e-05,5,1
0.0005564707,6.330578e-05,5,1
0.0005047718,8.972242e-05,5,1
0.0004227667,0.000133318,5,1
0.0003007315,0.0001958752,5,1
0.0001526038,0.0002778803,5,1
-1.196227e-06,0.0003662059,5,1
-0.0001459206,0.0004370285,5,1
-0.0002744383,0.0004665244,5,1
-0.0003869116,0.0004438352,5,1
-0.0004877163,0.0003807918,5,1
-0.0005650214,0.0003052694,5,1
-0.0005995413,0.0002453052,5,1
-0.0005860899,0.0002132162,5,1
-0.0005379565,0.0002033302,5,1
-0.0004694029,0.000205275,5,1
-0.0003985804,0.0002043026,5,1
-0.0003423437,0.0001921477,5,1
-0.0003214373,0.0001710792,5,1
-0.0003454229,0.0001517934,5,1
-0.0004091146,0.0001406109,5,1
-0.0004898231,0.0001336421,5,1
-0.0005502735,0.0001229458,5,1
-0.0005512458,0.000101067,5,1
-0.0004773441,6.78436e-05,5,1
-0.0003408851,3.154097e-05,5,1
-0.0001830335,-5.479652e-07,5,1
-5.872941e-05,-2.291298e-05,5,1
-7.192643e-06,-4.05781e-05,5,1
-3.166451e-05,-5.889148e-05,5,1
-0.0001013526,-8.239095e-05,5,1
-0.0001770371,-0.0001131834,5,1
-0.0002373254,-0.0001512687,5,1
-0.0002799486,-0.0001961608,5,1
-0.0003143064,-0.0002457528,5,1
-0.0003423437,-0.0002966413,5,1
-0.000355471,-0.0003378059,5,1
-0.0003415334,-0.0003600088,5,1
-0.0003013411,-0.0003575778,5,1
-0.0002485079,-0.0003371576,5,1
-0.0002032917,-0.0003115513,5,1
-0.0001833576,-0.0002906449,5,1
-0.0002000504,-0.0002778417,5,1
-0.0002519113,-0.000268766,5,1
-0.0003274337,-0.0002567732,5,1
-0.00041268,-0.0002370013,5,1
-0.0004971161,-0.0002120432,5,1
-0.0005768522,-0.0001865989,5,1
-0.0006530228,-0.0001652063,5,1
-0.0007241695,-0.0001489998,5,1
-0.0007755442,-0.0001392759,5,1
-0.000782513,-0.0001365208,5,1
-0.0007347037,-0.0001410586,5,1
-0.0006423265,-0.0001535376,5,1
-0.000524343,-0.0001754164,5,1
-0.000405225,-0.0002026434,5,1
-0.0002953447,-0.0002261429,5,1
-0.0001815749,-0.0002378116,5,1
-4.268495e-05,-0.0002335979,5,1
0.0001180839,-0.0002149604,5,1
0.0002616738,-0.0001846542,5,1
0.0003521062,-0.0001467309,5,1
0.0003955397,-0.0001062146,5,1
0.0004349216,-7.461182e-05,5,1
0.0005070407,-5.338126e-05,5,1
0.0006107626,-3.506788e-05,5,1
0.000718374,-8.813297e-06,5,1
0.0008011895,3.008238e-05,5,1
0.0008431645,7.335383e-05,5,1
0.000837006,0.0001072255,5,1
0.0007747728,0.0001250527,5,1
0.0006657028,0.0001305629,5,1
0.0005381573,0.0001331559,5,1
0.0004256839,0.000138342,5,1
0.0003477304,0.0001435281,5,1
0.0002957075,0.0001461212,5,1
0.000254867,0.0001498487,5,1
0.0002140265,0.0001641104,5,1
0.0001751309,0.0001950649,5,1
0.0001485521,0.0002368777,5,1
0.0001425557,0.00027707,5,1
0.0001566554,0.0003005694,5,1
0.0001767515,0.0003038107,5,1
0.0001913374,0.0002882525,5,1
0.0001955511,0.000259729,5,1
0.0001905271,0.0002290986,5,1
0.0001845306,0.0002031682,5,1
0.0002078681,0.0001835583,5,1
0.0003099692,0.0001658931,5,1
0.0005285954,0.0001519555,5,1
0.0008522401,0.0001417454,5,1
0.001224181,0.0001323456,5,1
0.001563708,0.0001195424,5,1
0.001803079,9.863601e-05,5,1
0.001910043,7.221937e-05,5,1
0.001881681,4.807163e-05,5,1
0.001728691,3.494434e-05,5,1
0.001487699,3.721326e-05,5,1
0.001210891,5.341979e-05,5,1
0.0009499656,7.853991e-05,5,1
0.0007340944,9.993253e-05,5,1
0.0005631154,0.0001098185,5,1
0.0004211461,0.0001072255,5,1
0.0002848491,9.150514e-05,5,1
0.000130725,6.46023e-05,5,1
-5.111234e-05,2.943412e-05,5,1
-0.0002535319,-8.327101e-06,5,1
-0.0004553032,-4.495386e-05,5,1
-0.0006332509,-7.590833e-05,5,1
-0.0007708443,-9.438378e-05,5,1
-0.0008577113,-9.908367e-05,5,1
-0.0008888278,-9.584238e-05,5,1
-0.0008677593,-9.422172e-05,5,1
-0.0007993678,-9.794922e-05,5,1
-0.0006878669,-9.892161e-05,5,1
-0.0005496252,-8.854943e-05,5,1
-0.0004290486,-6.796714e-05,5,1
-0.0003875599,-4.414354e-05,5,1
-0.0004685925,-2.145439e-05,5,1
-0.0006752257,-7.354709e-06,5,1
-0.0009651606,-8.975362e-06,5,1
-0.001271626,-2.583016e-05,5,1
-0.001535955,-5.127441e-05,5,1
-0.001722492,-7.444975e-05,5,1
-0.001805307,-8.660465e-05,5,1
-0.001760577,-8.725291e-05,5,1
-0.001571771,-7.866345e-05,5,1
-0.001248775,-6.407757e-05,5,1
-0.0008512287,-4.706071e-05,5,1
-0.0004700511,-3.344723e-05,5,1
-0.0001840059,-2.955766e-05,5,1
-2.485776e-05,-3.490581e-05,5,1
3.202716e-05,-4.592625e-05,5,1
3.98063e-05,-6.164659e-05,5,1
4.839576e-05,-7.720486e-05,5,1
8.356394e-05,-8.514606e-05,5,1
0.0001560072,-8.628052e-05,5,1
0.0002699391,-8.952183e-05,5,1
0.0004099636,-9.956988e-05,5,1
0.0005355643,-0.0001156143,5,1
0.0006106006,-0.0001314967,5,1
0.0006162729,-0.0001442999,5,1
0.0005509604,-0.0001481895,5,1
0.0004295735,-0.0001391138,5,1
0.0002903593,-0.0001182074,5,1
0.0001820997,-9.373552e-05,5,1
0.0001534141,-7.072225e-05,5,1
0.0002355812,-4.38194e-05,5,1
0.0004237391,-8.489166e-06,5,1
0.0006776956,3.299956e-05,5,1
0.0009269523,7.416415e-05,5,1
0.001103442,0.0001077117,5,1
0.001161461,0.0001281319,5,1
0.001080915,0.0001342904,5,1
0.0008775223,0.0001294284,5,1
0.0006075213,0.0001169494,5,1
0.0003534027,0.0001012291,5,1
0.0001902029,9.037068e-05,5,1
0.000153252,8.79397e-05,5,1
0.0002336365,9.442231e-05,5,1
0.0003987811,0.0001091703,5,1
0.0006059006,0.000130725,5,1
0.0007935724,0.0001553589,5,1
0.0008947013,0.0001801549,5,1
0.0008613158,0.0002068957,5,1
0.0006942263,0.0002342847,5,1
0.0004446456,0.0002509774,5,1
0.0001759412,0.000250005,5,1
-5.483985e-05,0.0002331503,5,1
-0.0002125294,0.0002088404,5,1
-0.0003045825,0.0001835583,5,1
-0.0003707051,0.0001602208,5,1
-0.0004442827,0.000135911,5,1
-0.0005311498,0.0001091703,5,1
-0.0006176926,8.307774e-05,5,1
-0.000688029,6.41161e-05,5,1
-0.0007368106,5.828175e-05,5,1
-0.0007622549,6.83298e-05,5,1
-0.0007684134,8.615699e-05,5,1
-0.0007663065,9.896015e-05,5,1
-0.000775058,9.523264e-05,5,1
-0.0008000161,6.930219e-05,5,1
-0.0008325911,2.732727e-05,5,1
-0.0008543079,-1.707863e-05,5,1
-0.0008560906,-5.500191e-05,5,1
-0.000841991,-8.287715e-05,5,1
-0.000812333,-0.0001021629,5,1
-0.0007559343,-0.0001104282,5,1
-0.0006690673,-0.0001000561,5,1
-0.0005693972,-7.056019e-05,5,1
-0.0004929024,-2.388537e-05,5,1
-0.0004768579,3.397195e-05,5,1
-0.0005319601,9.328786e-05,5,1
-0.000633575,0.0001500107,5,1
-0.0007397278,0.0001934442,5,1
-0.0008108745,0.0002159713,5,1
-0.0008270809,0.0002159713,5,1
-0.000789806,0.0001914995,5,1
-0.0007141214,0.0001445005,5,1
-0.0006189891,8.356394e-05,5,1
-0.0005173742,1.760335e-05,5,1
-0.0004143007,-4.90055e-05,5,1
-0.0003164132,-0.0001117248,5,1
-0.0002310048,-0.000156941,5,1
-0.0001585616,-0.0001775233,5,1
-9.260107e-05,-0.0001786577,5,1
-3.020592e-05,-0.0001736337,5,1
2.943412e-05,-0.0001802784,5,1
8.486046e-05,-0.0002060468,5,1
0.0001325077,-0.0002420253,5,1
0.0001508211,-0.0002689281,5,1
0.0001218114,-0.000276059,5,1
4.288554e-05,-0.0002650386,5,1
-6.569822e-05,-0.0002468872,5,1
-0.0001613168,-0.000233922,5,1
-0.0002068571,-0.0002321393,5,1
-0.0001974573,-0.000241377,5,1
-0.000159534,-0.0002485079,5,1
-0.0001269589,-0.0002399184,5,1
-0.0001086455,-0.0002088019,5,1
-7.882551e-05,-0.0001583996,5,1
-4.923729e-06,-0.0001013526,5,1
0.000110953,-5.613637e-05,5,1
0.0002284504,-3.701266e-05,5,1
0.0002952213,-4.284701e-05,5,1
0.0002814457,-6.423963e-05,5,1
0.0001970097,-8.919769e-05,5,1
8.74535e-05,-0.0001070249,5,1
7.555301e-06,-0.0001128592,5,1
-6.544382e-06,-0.0001058904,5,1
6.119892e-05,-8.935975e-05,5,1
0.0001966855,-6.683268e-05,5,1
0.0003613439,-4.009191e-05,5,1
0.0005195198,-1.124428e-05,5,1
0.0006567892,1.403791e-05,5,1
0.0007712074,3.251336e-05,5,1
0.0008562917,4.72613e-05,5,1
0.000911394,6.136099e-05,5,1
0.0009464002,7.691926e-05,5,1
0.0009747617,8.972242e-05,5,1
0.001011064,9.53947e-05,5,1
0.001070704,9.474644e-05,5,1
0.001160651,9.037068e-05,5,1
0.001279283,8.664318e-05,5,1
0.001408125,9.037068e-05,5,1
0.001516871,0.0001065772,5,1
0.001570353,0.0001315353,5,1
0.001546043,0.0001576278,5,1
0.001443617,0.000175455,5,1
0.001276852,0.0001811273,5,1
0.001072973,0.0001748067,5,1
0.0008553194,0.0001636242,5,1
0.0006425274,0.000155521,5,1
0.0004470765,0.0001589243,5,1
0.0002751252,0.0001791825,5,1
0.0001265113,0.0002119197,5,1
-4.437533e-06,0.0002420638,5,1
-0.0001256624,0.0002602152,5,1
-0.0002454286,0.0002618358,5,1
-0.0003661673,0.0002462775,5,1
-0.0004877163,0.0002179161,5,1
-0.000603755,0.0001811273,5,1
-0.000698077,0.0001433661,5,1
-0.0007609584,0.0001070634,5,1
-0.0007891576,7.67572e-05,5,1
-0.0007682513,5.649903e-05,5,1
-0.0006779809,4.434413e-05,5,1
-0.0005052193,3.283749e-05,5,1
-0.0002535319,7.069105e-06,5,1
5.390598e-05,-3.68506e-05,5,1
0.0003723644,-8.676672e-05,5,1
0.0006477135,-0.0001250141,5,1
0.0008344129,-0.0001407345,5,1
0.0008994011,-0.000134576,5,1
0.0008378163,-0.0001169109,5,1
0.0006814231,-9.730096e-05,5,1
0.0004859722,-8.854943e-05,5,1
0.0003023522,-0.0001008664,5,1
0.0001485521,-0.0001308485,5,1
1.387585e-05,-0.0001674752,5,1
-0.0001227452,-0.0001959987,5,1
-0.0002734659,-0.0002081536,5,1
-0.0004343968,-0.0002052365,5,1
-0.0005852795,-0.0001893541,5,1
-0.0006972667,-0.00016942,5,1
-0.0007531792,-0.000152079,5,1
-0.0007554481,-0.0001378173,5,1
-0.0007246558,-0.0001306864,5,1
-0.000688029,-0.0001295519,5,1
-0.0006719845,-0.0001316588,5,1
-0.0006883531,-0.0001363587,5,1
-0.0007324349,-0.0001451102,5,1
-0.0007933713,-0.0001579134,5,1
-0.0008620871,-0.0001671511,5,1
-0.0009410129,-0.0001673132,5,1
-0.001038414,-0.0001556445,5,1
-0.001148456,-0.0001316588,5,1
-0.001248289,-9.66527e-05,5,1
-0.001303391,-5.613637e-05,5,1
-0.001282971,-1.67545e-05,5,1
-0.001172604,2.035846e-05,5,1
-0.0009755327,5.098881e-05,5,1
-0.0007100698,7.140904e-05,5,1
-0.0004055492,7.90261e-05,5,1
-9.130454e-05,7.821578e-05,5,1
0.0002062474,7.481241e-05,5,1
0.0004666864,7.221937e-05,5,1
0.0006757508,7.059871e-05,5,1
0.0008267959,6.670914e-05,5,1
0.0009183628,5.893001e-05,5,1
0.0009559621,4.807163e-05,5,1
0.0009525587,3.494434e-05,5,1
0.0009253316,2.230325e-05,5,1
0.0008828705,1.387585e-05,5,1
0.0008332785,1.355172e-05,5,1
0.0007961654,2.133085e-05,5,1
0.0007916276,3.575467e-05,5,1
0.0008301992,5.228533e-05,5,1
0.0009055596,6.914012e-05,5,1
0.0009943716,8.437427e-05,5,1
0.001062277,9.863601e-05,5,1
0.001073784,0.000108522,5,1
0.001008633,0.0001164632,5,1
0.0008699053,0.0001232699,5,1
0.0006747784,0.0001302388,5,1
0.0004493454,0.0001375317,5,1
0.0002229401,0.000145635,5,1
1.290346e-05,0.0001539003,5,1
-0.0001775233,0.0001621656,5,1
-0.000353202,0.0001701068,5,1
-0.0005073262,0.0001803169,5,1
-0.0006253097,0.0001918236,5,1
-0.0006875428,0.0002047888,5,1
-0.0006823567,0.0002169437,5,1
-0.0006134789,0.0002242366,5,1
-0.000509433,0.0002247229,5,1
-0.0004159214,0.0002187264,5,1
-0.0003621157,0.000210299,5,1
-0.000348016,0.0002038164,5,1
-0.0003520676,0.0001986303,5,1
-0.0003572537,0.0001957132,5,1
-0.0003507711,0.0001924718,5,1
-0.0003318095,0.0001858272,5,1
-0.0003091203,0.0001741585,5,1
-0.0002867553,0.000153252,5,1
-0.0002632558,0.0001231079,5,1
-0.0002350565,8.761557e-05,5,1
-0.0002003745,5.811968e-05,5,1
-0.0001705545,3.899597e-05,5,1
-0.0001666649,2.943412e-05,5,1
-0.0002006986,1.987227e-05,5,1
-0.0002630937,3.503668e-06,5,1
-0.0003266234,-2.015787e-05,5,1
-0.0003700569,-4.333321e-05,5,1
-0.0004104111,-5.856735e-05,5,1
-0.0004773441,-6.650855e-05,5,1
-0.0005737729,-7.60704e-05,5,1
-0.0006672846,-9.29252e-05,5,1
-0.0007196317,-0.0001162626,5,1
-0.000720442,-0.0001405724,5,1
-0.0006847876,-0.0001605064,5,1
-0.00064103,-0.0001710407,5,1
-0.0006092652,-0.0001684476,5,1
-0.0006019723,-0.0001532135,5,1
-0.0006277406,-0.0001290658,5,1
-0.0006833291,-0.0001016767,5,1
-0.0007484793,-7.380149e-05,5,1
-0.0007896438,-4.090223e-05,5,1
-0.0007697099,-3.465141e-06,5,1
-0.0006695535,3.056858e-05,5,1
-0.0004927403,4.158902e-05,5,1
-0.0002682799,1.825161e-05,5,1
-3.506788e-05,-3.101625e-05,5,1
0.0001649207,-8.968389e-05,5,1
0.000307052,-0.0001452723,5,1
0.000381278,-0.0001938919,5,1
0.0004028327,-0.0002329496,5,1
0.000403643,-0.0002575835,5,1
0.0004055878,-0.0002622834,5,1
0.0004038051,-0.0002499665,5,1
0.0003801436,-0.0002245222,5,1
0.0003256896,-0.0001937298,5,1
0.0002517878,-0.0001658546,5,1
0.0001793446,-0.0001460826,5,1
0.0001239182,-0.0001329553,5,1
9.037068e-05,-0.0001258245,5,1
7.853991e-05,-0.0001183694,5,1
8.79397e-05,-0.0001055663,5,1
0.0001218114,-8.563225e-05,5,1
0.0001871237,-5.69467e-05,5,1
0.0002876042,-2.453363e-05,5,1
0.0004114222,3.341602e-06,5,1
0.0005394538,2.424803e-05,5,1
0.0006550064,3.915804e-05,5,1
0.0007496527,5.439218e-05,5,1
0.000817396,7.319176e-05,5,1
0.0008585607,9.26396e-05,5,1
0.0008827084,0.0001127357,5,1
0.0009036149,0.0001320215,5,1
0.0009334349,0.0001493625,5,1
0.0009721686,0.0001598967,5,1
0.001005068,0.0001615174,5,1
0.001013657,0.0001584381,5,1
0.0009848097,0.0001590864,5,1
0.0009165801,0.0001699448,5,1
0.0008112376,0.0001914995,5,1
0.0006741302,0.0002166196,5,1
0.000514982,0.0002420638,5,1
0.0003546993,0.0002636185,5,1
0.0002166196,0.0002795009,5,1
0.0001127357,0.0002884145,5,1
3.510641e-05,0.0002885766,5,1
-3.458168e-05,0.0002807975,5,1
-0.0001088076,0.0002701012,5,1
-0.0001890299,0.0002619979,5,1
-0.0002617972,0.0002540567,5,1
-0.0003110651,0.000247412,5,1
-0.0003292164,0.0002427121,5,1
-0.0003128478,0.0002388225,5,1
-0.0002737901,0.0002313675,5,1
-0.0002311669,0.0002169437,5,1
-0.000199078,0.0001961994,5,1
-0.0001885437,0.0001696206,5,1
-0.0001963229,0.0001373696,5,1
-0.0002042641,0.0001009049,5,1
-0.0001969711,6.168512e-05,5,1
-0.0001723372,2.181705e-05,5,1
-0.0001384655,-1.399939e-05,5,1
-0.0001101041,-4.80331e-05,5,1
-0.0001015147,-8.255302e-05,5,1
-0.0001167488,-0.0001154523,5,1
-0.0001467309,-0.0001434896,5,1
-0.0001825473,-0.0001656925,5,1
-0.0002144742,-0.0001857886,5,1
-0.0002319772,-0.0002097743,5,1
-0.0002224154,-0.0002366771,5,1
-0.0001760647,-0.0002626076,5,1
-9.551824e-05,-0.0002809209,5,1
-8.651231e-06,-0.0002912931,5,1
4.191315e-05,-0.0002997205,5,1
2.959619e-05,-0.0003146305,5,1
-3.928157e-05,-0.0003373197,5,1
-0.000134576,-0.0003590364,5,1
-0.0002293842,-0.0003687603,5,1
-0.0003062031,-0.0003559572,5,1
-0.0003522297,-0.0003222476,5,1
-0.0003541745,-0.0002747625,5,1
-0.0003050687,-0.0002280877,5,1
-0.0002078295,-0.0001956746,5,1
-7.785312e-05,-0.0001848162,5,1
5.682316e-05,-0.000191623,5,1
0.0001621656,-0.0002021572,5,1
0.000205275,-0.0002047502,5,1
0.0001796687,-0.0001972953,5,1
0.0001128978,-0.0001802784,5,1
5.876794e-05,-0.0001538618,5,1
5.471631e-05,-0.0001185315,5,1
0.0001049566,-7.769106e-05,5,1
0.0001809652,-3.895745e-05,5,1
0.0002347709,-1.156841e-05,5,1
0.0002205092,-1.682422e-06,5,1
0.0001242423,-7.516774e-06,5,1
-2.307504e-05,-1.918548e-05,5,1
-0.0001687718,-2.453363e-05,5,1
-0.0002677937,-1.335113e-05,5,1
-0.0002956689,1.727922e-05,5,1
-0.0002541802,5.487838e-05,5,1
-0.0001613168,7.837785e-05,5,1
-4.155049e-05,7.789165e-05,5,1
8.210535e-05,5.763349e-05,5,1
0.0001869616,2.781346e-05,5,1
0.0002615117,-1.358292e-06,5,1
0.0003015418,-2.323711e-05,5,1
0.0003140208,-3.458168e-05,5,1
0.0003075383,-3.620233e-05,5,1
0.0002897111,-2.712668e-05,5,1
0.000264753,7.485573e-07,5,1
0.0002378501,5.390598e-05,5,1
0.0002128921,0.0001252147,5,1
0.0001898788,0.00019782,5,1
0.0001673517,0.0002483844,5,1
0.0001550348,0.0002616738,5,1
