EMG1,EMG2,class,user
-0.0004609755,-1.918548e-05,5,1
-0.0003844807,1.144487e-05,5,1
-0.000288538,3.218923e-05,5,1
-0.0001666649,4.628891e-05,5,1
-2.923353e-05,6.265751e-05,5,1
0.0001083599,9.361199e-05,5,1
0.0002391467,0.0001453108,5,1
0.0003691231,0.0002171058,5,1
0.0005047718,0.0003010556,5,1
0.0006355586,0.0003796573,5,1
0.0007323117,0.0004323286,5,1
0.0007616456,0.0004430249,5,1
0.0007049226,0.0004081808,5,1
0.0005673291,0.000339141,5,1
0.0003726885,0.0002516257,5,1
0.000158114,0.0001621656,5,1
-4.05781e-05,8.080883e-05,5,1
-0.0002063709,8.203562e-06,5,1
-0.00033813,-5.64605e-05,5,1
-0.000435045,-0.000114804,5,1
-0.0004802613,-0.0001587237,5,1
-0.000452224,-0.000179306,5,1
-0.0003266234,-0.0001797922,5,1
-8.935975e-05,-0.0001716889,5,1
0.000239957,-0.0001645581,5,1
0.000602011,-0.0001656925,5,1
0.0009133389,-0.0001741199,5,1
0.001087397,-0.0001883817,5,1
0.001076539,-0.0002081536,5,1
0.000898915,-0.0002290601,5,1
0.0006298863,-0.0002444563,5,1
0.0003683128,-0.0002460769,5,1
0.0001939304,-0.0002290601,5,1
0.0001542244,-0.0001948643,5,1
0.000239957,-0.0001512687,5,1
0.000401212,-0.000107349,5,1
0.0005835356,-6.780507e-05,5,1
0.0007400909,-3.68506e-05,5,1
0.0008266338,-2.242678e-05,5,1
0.0008107513,-2.907146e-05,5,1
0.0006833679,-5.143648e-05,5,1
0.000467983,-8.158062e-05,5,1
0.0002094887,-0.0001031353,5,1
-5.127441e-05,-0.000107349,5,1
-0.0002830278,-9.017008e-05,5,1
-0.0004710235,-6.375344e-05,5,1
-0.0006126686,-4.252288e-05,5,1
-0.0007126629,-3.328516e-05,5,1
-0.0007812165,-3.539201e-05,5,1
-0.0008293499,-4.398147e-05,5,1
-0.0008664628,-5.386745e-05,5,1
-0.0008938519,-6.06742e-05,5,1
-0.0009058447,-6.164659e-05,5,1
-0.0009001724,-6.099833e-05,5,1
-0.0008813728,-5.889148e-05,5,1
-0.0008586837,-5.305713e-05,5,1
-0.0008317808,-4.187462e-05,5,1
-0.0007868888,-2.566809e-05,5,1
-0.0007068285,-8.489166e-06,5,1
-0.0005946793,6.582909e-06,5,1
-0.0004750752,1.695509e-05,5,1
-0.0003673017,2.441009e-05,5,1
-0.0002742763,2.538249e-05,5,1
-0.000184168,1.64689e-05,5,1
-9.2439e-05,-1.358292e-06,5,1
-6.058186e-06,-2.275091e-05,5,1
6.395404e-05,-3.895745e-05,5,1
0.0001122495,-4.171256e-05,5,1
0.0001480659,-3.085418e-05,5,1
0.0001743205,-1.173047e-05,5,1
0.0001911753,8.041497e-06,5,1
0.0001923098,2.327564e-05,5,1
0.0001694586,3.543054e-05,5,1
0.0001342904,5.228533e-05,5,1
0.0001078737,7.837785e-05,5,1
0.0001070634,0.0001150046,5,1
0.0001422316,0.0001600588,5,1
0.0002198609,0.0002083542,5,1
0.0003334687,0.0002519498,5,1
0.0004551798,0.0002863077,5,1
0.0005477191,0.0003047831,5,1
0.0005911527,0.0003030004,5,1
0.0005961767,0.0002835526,5,1
0.0005909906,0.0002576221,5,1
0.0005987698,0.0002381743,5,1
0.0006131936,0.0002278021,5,1
0.0006083316,0.000225047,5,1
0.0005710566,0.0002213195,5,1
0.0005078511,0.0002132162,5,1
0.0004201737,0.0001957132,5,1
0.0002987867,0.0001689724,5,1
0.0001347766,0.0001378558,5,1
-5.759496e-05,0.0001047945,5,1
-0.0002483458,7.124698e-05,5,1
-0.000412518,4.02925e-05,5,1
-0.0005421702,1.403791e-05,5,1
-0.0006368163,-7.840905e-06,5,1
-0.0006987253,-2.42095e-05,5,1
-0.0007408622,-3.21507e-05,5,1
-0.0007807303,-2.777494e-05,5,1
-0.0008220569,-1.043395e-05,5,1
-0.0008530114,1.711715e-05,5,1
-0.0008504183,4.466826e-05,5,1
-0.0008037436,5.406805e-05,5,1
-0.0007231971,3.202716e-05,5,1
-0.0006254718,-1.99958e-05,5,1
-0.0005178604,-9.033215e-05,5,1
-0.0004005251,-0.0001579134,5,1
-0.0002770314,-0.0002052365,5,1
-0.0001642339,-0.000221605,5,1
-8.757704e-05,-0.0002062088,5,1
-5.743289e-05,-0.0001723372,5,1
-5.986387e-05,-0.0001410586,5,1
-5.127441e-05,-0.0001267968,5,1
1.64689e-05,-0.0001311726,5,1
0.0001543865,-0.0001451102,5,1
0.0003201794,-0.0001575893,5,1
0.0004501558,-0.0001627754,5,1
0.0004981271,-0.0001648822,5,1
0.0004595556,-0.0001712027,5,1
0.0003608578,-0.0001844921,5,1
0.0002396328,-0.0002055606,5,1
0.0001313732,-0.0002303566,5,1
5.56887e-05,-0.0002559629,5,1
1.954813e-05,-0.0002742763,5,1
1.825161e-05,-0.0002823795,5,1
3.964424e-05,-0.0002805968,5,1
6.816773e-05,-0.0002715212,5,1
8.502253e-05,-0.0002588801,5,1
7.659513e-05,-0.000248832,5,1
4.35338e-05,-0.0002446183,5,1
-2.654814e-06,-0.000246401,5,1
-5.176061e-05,-0.0002528836,5,1
-9.308726e-05,-0.0002543422,5,1
-0.0001156143,-0.0002371633,5,1
-0.0001180453,-0.0001921092,5,1
-0.0001139937,-0.0001203142,5,1
-0.0001238797,-3.182657e-05,5,1
-0.0001562927,5.552663e-05,5,1
-0.0002019951,0.0001286181,5,1
-0.0002455907,0.0001782101,5,1
-0.0002754107,0.0001965235,5,1
-0.0002827037,0.0001859892,5,1
-0.0002639041,0.0001573037,5,1
-0.0002292221,0.0001269974,5,1
-0.0001964849,0.0001117633,5,1
-0.0001733096,0.0001231079,5,1
-0.0001465688,0.0001592484,5,1
-9.746302e-05,0.0002122438,5,1
-2.599222e-05,0.0002726942,5,1
5.309566e-05,0.000334117,5,1
0.0001334801,0.0003952156,5,1
0.0002278021,0.0004545315,5,1
0.0003499994,0.0005050959,5,1
0.0004914824,0.0005318367,5,1
0.0006143281,0.0005272989,5,1
0.0006901747,0.0004943996,5,1
0.0007259911,0.0004452938,5,1
0.0007593766,0.0003932708,5,1
0.0008276062,0.0003467581,5,1
0.0009538552,0.0003106175,5,1
0.001141203,0.0002863077,5,1
0.001365826,0.0002709115,5,1
0.001578132,0.0002618358,5,1
0.001700167,0.0002582704,5,1
0.001655599,0.0002587566,5,1
0.00142109,0.0002581083,5,1
0.00104526,0.0002504913,5,1
0.0006284277,0.0002362295,5,1
0.0002760976,0.0002164575,5,1
4.871989e-05,0.0001936063,5,1
-5.532604e-05,0.0001702689,5,1
-8.239095e-05,0.0001466074,5,1
-8.952183e-05,0.0001231079,5,1
-0.0001167488,0.0001004187,5,1
-0.0001749302,7.805372e-05,5,1
-0.0002408908,5.358185e-05,5,1
-0.0002702246,3.267542e-05,5,1
-0.0002277635,1.501031e-05,5,1
-0.0001105903,-3.627206e-06,5,1
5.633696e-05,-2.858527e-05,5,1
0.0002344468,-5.727083e-05,5,1
0.000378685,-8.595638e-05,5,1
0.000450642,-0.0001149661,5,1
0.000428277,-0.0001442999,5,1
0.000324231,-0.000174444,5,1
0.0001728619,-0.0002037779,5,1
8.689758e-06,-0.0002321393,5,1
-0.0001433275,-0.0002605007,5,1
-0.0002757348,-0.0002883759,5,1
-0.0003929081,-0.0003117133,5,1
-0.0005052193,-0.0003264613,5,1
-0.0006194753,-0.0003353749,5,1
-0.0007338934,-0.0003402368,5,1
-0.0008439358,-0.000345585,5,1
-0.0009419852,-0.0003579019,5,1
-0.001021235,-0.0003770257,5,1
-0.001070503,-0.0003938804,5,1
-0.001074555,-0.000402794,5,1
-0.001025125,-0.0004023079,5,1
-0.0009270753,-0.00039777,5,1
-0.0008045539,-0.0003950149,5,1
-0.0006813843,-0.0003948528,5,1
-0.0005684248,-0.0003848048,5,1
-0.000467134,-0.0003519055,5,1
-0.0003831841,-0.0002890242,5,1
-0.0003272716,-0.0001979435,5,1
-0.0002989102,-9.065628e-05,5,1
-0.0002763831,1.97102e-05,5,1
-0.0002342462,0.0001175977,5,1
-0.0001666649,0.0001866375,5,1
-9.162867e-05,0.000220185,5,1
-3.490581e-05,0.0002162954,5,1
-2.291298e-05,0.0001801549,5,1
-5.581224e-05,0.0001240803,5,1
-0.000112373,6.444023e-05,5,1
-0.0001650443,1.338965e-05,5,1
-0.0001972953,-2.031993e-05,5,1
-0.0002058847,-3.344723e-05,5,1
-0.0001925954,-3.101625e-05,5,1
-0.0001650443,-2.356124e-05,5,1
-0.0001267968,-2.226472e-05,5,1
-7.817725e-05,-3.198864e-05,5,1
-2.307504e-05,-5.078821e-05,5,1
2.76514e-05,-7.282909e-05,5,1
6.119892e-05,-8.919769e-05,5,1
6.525056e-05,-9.049421e-05,5,1
3.688912e-05,-7.493595e-05,5,1
-9.461558e-06,-4.155049e-05,5,1
-5.59743e-05,4.313994e-06,5,1
-9.2439e-05,5.61749e-05,5,1
-0.0001203142,0.0001039842,5,1
-0.0001483515,0.0001459591,5,1
-0.0001828714,0.000185503,5,1
-0.0002170672,0.0002234263,5,1
-0.0002412149,0.0002590807,5,1
-0.0002523975,0.0002923041,5,1
-0.0002601766,0.0003219621,5,1
-0.0002788141,0.0003467581,5,1
-0.0003120375,0.0003606957,5,1
-0.0003446126,0.0003574544,5,1
-0.0003593606,0.0003402755,5,1
-0.0003523917,0.0003154794,5,1
-0.0003264613,0.0002892249,5,1
-0.0002890242,0.0002602152,5,1
-0.0002310048,0.000225047,5,1
-0.0001303623,0.0001814514,5,1
1.808955e-05,0.000130725,5,1
0.0001838824,7.951231e-05,5,1
0.0003179104,3.543054e-05,5,1
0.0003811159,6.258778e-06,5,1
0.0003676645,-8.720959e-07,5,1
0.0002961937,9.175954e-06,5,1
0.000207706,2.457216e-05,5,1
0.000135911,3.235129e-05,5,1
9.993253e-05,2.538249e-05,5,1
0.0001012291,6.744974e-06,5,1
0.0001273216,-1.805102e-05,5,1
0.0001584381,-4.074016e-05,5,1
0.0001808031,-5.451572e-05,5,1
0.0001970097,-5.856735e-05,5,1
0.0002302331,-6.0188e-05,5,1
0.0003128864,-7.088431e-05,5,1
0.0004692795,-9.681477e-05,5,1
0.0006964952,-0.000134576,5,1
0.0009619584,-0.0001747682,5,1
0.001216563,-0.0002070192,5,1
0.001416228,-0.0002263049,5,1
0.00154426,-0.000233922,5,1
0.00159758,-0.0002326255,5,1
0.001568246,-0.0002222533,5,1
0.001441511,-0.0001995642,5,1
0.001222884,-0.0001686097,5,1
0.0009425106,-0.0001428413,5,1
0.0006387999,-0.0001360346,5,1
0.0003491891,-0.0001511067,5,1
0.0001090082,-0.0001776853,5,1
-6.213279e-05,-0.0001985918,5,1
-0.0001723372,-0.0002003745,5,1
-0.0002421874,-0.0001786577,5,1
-0.0002925897,-0.0001326312,5,1
-0.0003352128,-6.44017e-05,5,1
-0.000375405,1.825161e-05,5,1
-0.0004155972,0.0001002567,5,1
-0.0004551412,0.0001628139,5,1
-0.0004880404,0.0001905271,5,1
-0.0004940368,0.0001793446,5,1
-0.0004475241,0.0001355869,5,1
-0.0003489884,7.384002e-05,5,1
-0.0002337599,1.079661e-05,5,1
-0.0001384655,-3.928157e-05,5,1
-7.250496e-05,-7.137051e-05,5,1
-2.031993e-05,-8.417367e-05,5,1
3.397195e-05,-8.303922e-05,5,1
8.631905e-05,-7.898758e-05,5,1
0.0001232699,-7.736692e-05,5,1
0.0001425557,-7.898758e-05,5,1
0.0001569795,-8.174268e-05,5,1
0.0001777239,-8.303922e-05,5,1
0.0002137024,-8.482193e-05,5,1
0.0002658874,-8.725291e-05,5,1
0.0003229345,-8.935975e-05,5,1
0.0003670162,-9.000802e-05,5,1
0.0003725265,-8.968389e-05,5,1
0.0003209897,-8.660465e-05,5,1
0.0002224539,-7.931171e-05,5,1
0.000103498,-6.569822e-05,5,1
-1.788895e-05,-4.090223e-05,5,1
-0.0001472171,-5.247859e-06,5,1
-0.0002906449,3.543054e-05,5,1
-0.0004355313,7.886404e-05,5,1
-0.0005549733,0.0001240803,5,1
-0.0006282268,0.0001694586,5,1
-0.000643299,0.000210299,5,1
-0.0006042412,0.000237526,5,1
-0.0005211017,0.0002388225,5,1
-0.0004016596,0.0002128921,5,1
-0.0002645523,0.0001691344,5,1
-0.0001436516,0.0001211631,5,1
-8.40116e-05,7.999851e-05,5,1
-0.0001110765,5.471631e-05,5,1
-0.0002182017,5.050261e-05,5,1
-0.000367788,6.541262e-05,5,1
-0.000512026,9.296373e-05,5,1
-0.0006196374,0.0001222976,5,1
-0.0006818705,0.000143204,5,1
-0.000705532,0.000148228,5,1
-0.0007006701,0.0001386662,5,1
-0.0006815463,0.0001239182,5,1
-0.0006689052,0.0001106288,5,1
-0.0006810602,9.879808e-05,5,1
-0.0007165525,8.323981e-05,5,1
-0.000750262,6.217132e-05,5,1
-0.0007497758,3.55926e-05,5,1
-0.0007009942,1.095867e-05,5,1
-0.0006074825,-6.382317e-06,5,1
-0.0004810716,-1.529591e-05,5,1
-0.0003368335,-1.837515e-05,5,1
-0.0001995642,-1.886135e-05,5,1
-9.827335e-05,-1.740276e-05,5,1
-4.80331e-05,-9.623623e-06,5,1
-4.689865e-05,1.436204e-05,5,1
-8.02841e-05,6.055066e-05,5,1
-0.0001201522,0.0001268354,5,1
-0.0001396,0.0001996027,5,1
-0.0001264727,0.000254867,5,1
-8.190475e-05,0.0002665357,5,1
6.420843e-06,0.0002237505,5,1
0.0001548727,0.000135911,5,1
0.000356482,2.522042e-05,5,1
0.0005608465,-8.093236e-05,5,1
0.0007023296,-0.0001613168,5,1
0.0007412253,-0.000206533,5,1
0.0006848265,-0.0002211189,5,1
0.0005708945,-0.0002206326,5,1
0.0004563143,-0.0002186879,5,1
0.0003871123,-0.0002203085,5,1
0.00038614,-0.0002232257,5,1
0.000440756,-0.0002207947,5,1
0.0005110924,-0.0002045882,5,1
0.0005653843,-0.0001739578,5,1
0.000609466,-0.0001342519,5,1
0.000673644,-9.568031e-05,5,1
0.0007671557,-6.845333e-05,5,1
0.0008639088,-6.083626e-05,5,1
0.0009201455,-7.33153e-05,5,1
0.0008953495,-9.778715e-05,5,1
0.0007720177,-0.0001114006,5,1
0.0005702463,-8.984595e-05,5,1
0.0003448133,-2.566809e-05,5,1
0.0001582761,6.541262e-05,5,1
4.35338e-05,0.0001514693,5,1
3.341602e-06,0.000202844,5,1
2.489629e-05,0.0002055991,5,1
7.821578e-05,0.0001710792,5,1
0.0001294284,0.0001245665,5,1
0.0001545486,9.409818e-05,5,1
0.0001419075,9.442231e-05,5,1
9.182927e-05,0.0001197045,5,1
2.246531e-05,0.000150659,5,1
-4.219875e-05,0.000168162,5,1
-8.141856e-05,0.0001654069,5,1
-9.438378e-05,0.0001519555,5,1
-9.130454e-05,0.0001485521,5,1
-9.438378e-05,0.0001744826,5,1
-0.0001264727,0.0002284504,5,1
-0.0001908126,0.000289549,5,1
-0.0002770314,0.0003315239,5,1
-0.0003708672,0.0003378445,5,1
-0.0004527101,0.0003085106,5,1
-0.0005086227,0.0002602152,5,1
-0.0005340669,0.0002099749,5,1
-0.0005319601,0.0001670276,5,1
-0.0005105674,0.000135749,5,1
-0.0004823681,0.0001148425,5,1
-0.0004463896,0.0001013911,5,1
-0.0003899909,8.972242e-05,5,1
-0.0003130099,7.432621e-05,5,1
-0.0002347323,5.56887e-05,5,1
-0.000186761,3.753739e-05,5,1
-0.0001828714,2.100672e-05,5,1
-0.0002188499,1.112074e-05,5,1
-0.0002658489,1.160693e-05,5,1
-0.0002823795,2.408596e-05,5,1
-0.0002348944,4.499239e-05,5,1
-0.0001204763,6.427817e-05,5,1
3.494434e-05,7.756752e-05,5,1
0.0001910133,8.323981e-05,5,1
0.0003072141,8.372601e-05,5,1
0.0003597233,8.259155e-05,5,1
0.0003532407,7.837785e-05,5,1
0.0003128864,7.108491e-05,5,1
0.0002642668,5.844381e-05,5,1
0.0002256952,3.915804e-05,5,1
0.0002018716,1.565857e-05,5,1
0.0001892305,-9.785688e-06,5,1
0.0001761032,-3.522994e-05,5,1
0.0001539003,-6.197072e-05,5,1
0.0001329939,-9.146661e-05,5,1
0.0001297526,-0.0001203142,5,1
0.0001548727,-0.0001464067,5,1
0.0002055991,-0.0001707166,5,1
0.0002602152,-0.0001909747,5,1
0.0002854973,-0.0002049123,5,1
0.0002555152,-0.0002100984,5,1
0.0001675138,-0.000211557,5,1
4.499239e-05,-0.0002162569,5,1
-8.07703e-05,-0.0002253326,5,1
-0.0001887058,-0.0002306807,5,1
-0.000271035,-0.0002194982,5,1
-0.0003267854,-0.0001921092,5,1
-0.0003596847,-0.0001630995,5,1
-0.0003792946,-0.0001504584,5,1
-0.0003922598,-0.0001645581,5,1
-0.0004016596,-0.0002032917,5,1
-0.0004094387,-0.0002507768,5,1
-0.0004117076,-0.0002921034,5,1
-0.0003997148,-0.0003167374,5,1
-0.0003700569,-0.0003214373,5,1
-0.0003254889,-0.0003112272,5,1
-0.000271197,-0.0002968033,5,1
-0.0002117191,-0.0002869174,5,1
-0.0001512687,-0.0002814071,5,1
-9.503204e-05,-0.0002768693,5,1
-5.159854e-05,-0.0002703867,5,1
-2.84232e-05,-0.0002605007,5,1
-2.939559e-05,-0.0002433218,5,1
-5.176061e-05,-0.0002120432,5,1
-8.952183e-05,-0.0001676373,5,1
-0.0001340898,-0.0001182074,5,1
-0.0001674752,-7.266703e-05,5,1
-0.000159534,-4.025397e-05,5,1
-8.40116e-05,-2.015787e-05,5,1
4.580272e-05,-4.599598e-06,5,1
0.0001842065,1.322759e-05,5,1
0.0002765838,3.753739e-05,5,1
0.0002901973,6.427817e-05,5,1
0.0002266676,8.875003e-05,5,1
0.0001112771,0.0001080358,5,1
-2.145439e-05,0.0001221355,5,1
-0.0001455964,0.0001344524,5,1
-0.0002606628,0.000148228,5,1
-0.0003838324,0.0001633001,5,1
-0.0005209396,0.0001796687,5,1
-0.0006596675,0.0001957132,5,1
-0.0007755442,0.0002090025,5,1
-0.0008385876,0.0002184023,5,1
-0.000822219,0.0002229401,5,1
-0.0007100698,0.000220185,5,1
-0.000516888,0.0002096508,5,1
-0.0002955068,0.0001957132,5,1
-9.924574e-05,0.0001858272,5,1
5.1475e-05,0.0001872858,5,1
0.0001715654,0.0002000889,5,1
0.0002974902,0.0002172679,5,1
0.0004576108,0.0002295848,5,1
0.0006436619,0.0002289366,5,1
0.0008269579,0.0002130541,5,1
0.0009817304,0.0001842065,5,1
0.001100038,0.000148228,5,1
0.001192416,0.0001148425,5,1
0.001279769,8.956036e-05,5,1
0.001399374,8.016057e-05,5,1
0.001585911,8.323981e-05,5,1
0.001837275,9.426025e-05,5,1
0.002096094,0.0001039842,5,1
0.002283443,0.0001043083,5,1
0.002333359,9.344993e-05,5,1
0.002220885,7.221937e-05,5,1
0.001975679,3.948217e-05,5,1
0.001667268,-3.303076e-06,5,1
0.001360802,-4.932962e-05,5,1
0.00108999,-9.66527e-05,5,1
0.0008580745,-0.0001441378,5,1
0.0006485239,-0.0001921092,5,1
0.0004418904,-0.0002321393,5,1
0.0002287745,-0.0002515871,5,1
1.1769e-05,-0.0002426735,5,1
-0.000189192,-0.0002070192,5,1
-0.0003614674,-0.0001587237,5,1
-0.0005034366,-0.0001112386,5,1
-0.0006256338,-7.347736e-05,5,1
-0.0007395657,-5.030202e-05,5,1
-0.0008512287,-3.571614e-05,5,1
-0.0009599745,-1.788895e-05,5,1
-0.001064993,1.193106e-05,5,1
-0.001166932,5.244739e-05,5,1
-0.001256068,9.182927e-05,5,1
-0.001314087,0.0001150046,5,1
-0.001334021,0.000115977,5,1
-0.00133159,9.750156e-05,5,1
-0.001332563,6.914012e-05,5,1
-0.001349255,4.272347e-05,5,1
-0.00136611,2.862379e-05,5,1
-0.001350876,3.429608e-05,5,1
-0.001279405,6.298164e-05,5,1
-0.001146512,0.0001051186,5,1
-0.00097375,0.00013818,5,1
-0.0007907783,0.000143204,5,1
-0.0006172064,0.000118408,5,1
-0.0004664857,7.076078e-05,5,1
-0.0003410472,1.1769e-05,5,1
-0.0002272773,-4.754691e-05,5,1
-0.0001112386,-9.843541e-05,5,1
9.013889e-06,-0.0001391138,5,1
0.0001175977,-0.0001684476,5,1
0.0001973338,-0.0001862748,5,1
0.00024255,-0.0001930815,5,1
0.0002561635,-0.0001950263,5,1
0.000249843,-0.000194216,5,1
0.0002336365,-0.0001901644,5,1
0.0002098128,-0.0001844921,5,1
0.0001751309,-0.000174282,5,1
0.0001299146,-0.0001572651,5,1
8.210535e-05,-0.0001353863,5,1
4.45062e-05,-0.0001128592,5,1
2.635488e-05,-9.227693e-05,5,1
2.505836e-05,-7.380149e-05,5,1
1.9224e-05,-5.808115e-05,5,1
-2.080613e-05,-4.544006e-05,5,1
-0.0001079973,-3.004385e-05,5,1
-0.0002340841,-8.813297e-06,5,1
-0.0003690845,1.517237e-05,5,1
-0.0004758855,3.948217e-05,5,1
-0.0005279084,6.622294e-05,5,1
-0.0005314739,9.701536e-05,5,1
-0.0005138087,0.0001347766,5,1
-0.0005039228,0.0001767515,5,1
-0.0005141329,0.0002166196,5,1
-0.0005379565,0.0002444948,5,1
-0.0005646973,0.0002563256,5,1
-0.0005844692,0.0002532463,5,1
-0.0005857658,0.0002381743,5,1
-0.0005530285,0.000217754,5,1
-0.0004749131,0.0001979821,5,1
-0.0003721637,0.0001838824,5,1
-0.0002869174,0.0001803169,5,1
-0.000253694,0.0001880961,5,1
-0.0002788141,0.0001994406,5,1
-0.0003344025,0.0002067336,5,1
-0.0003775118,0.0002112714,5,1
-0.0003755671,0.00021273,5,1
-0.0003274337,0.0002055991,5,1
-0.000246239,0.000185503,5,1
-0.0001399241,0.0001577899,5,1
-1.918548e-05,0.0001362352,5,1
9.085688e-05,0.000125863,5,1
0.0001529279,0.0001175977,5,1
0.0001443384,9.814982e-05,5,1
8.858796e-05,6.83298e-05,5,1
6.200925e-05,3.478228e-05,5,1
0.0001428799,5.934648e-06,5,1
0.0003543751,-1.448558e-05,5,1
0.0006528996,-2.388537e-05,5,1
0.000965848,-2.339918e-05,5,1
0.001227098,-2.015787e-05,5,1
0.001394836,-1.967167e-05,5,1
0.001458527,-2.372331e-05,5,1
0.001432921,-3.21507e-05,5,1
0.001349781,-4.122636e-05,5,1
0.001234877,-4.787104e-05,5,1
0.001097283,-5.159854e-05,5,1
0.0009379727,-5.516398e-05,5,1
0.0007609973,-6.164659e-05,5,1
0.0005799701,-6.942573e-05,5,1
0.0004130428,-7.65566e-05,5,1
0.0002712356,-8.595638e-05,5,1
0.0001615174,-0.0001002181,5,1
8.178122e-05,-0.0001149661,5,1
2.651694e-05,-0.0001253383,5,1
-7.840905e-06,-0.0001314967,5,1
-2.145439e-05,-0.0001323071,5,1
-2.404744e-05,-0.0001267968,5,1
-2.858527e-05,-0.0001180453,5,1
-4.544006e-05,-0.000112373,5,1
-7.914964e-05,-0.0001117248,5,1
-0.0001224211,-0.0001161005,5,1
-0.0001562927,-0.0001224211,5,1
-0.0001686097,-0.0001292278,5,1
-0.0001621271,-0.0001332795,5,1
-0.0001425172,-0.0001326312,5,1
-0.0001186936,-0.0001269589,5,1
-9.66527e-05,-0.0001125351,5,1
-7.817725e-05,-8.919769e-05,5,1
-6.877746e-05,-6.261898e-05,5,1
-7.60704e-05,-4.187462e-05,5,1
-0.0001010285,-3.134038e-05,5,1
-0.0001407345,-2.84232e-05,5,1
-0.0001849783,-2.7937e-05,5,1
-0.0002235498,-2.485776e-05,5,1
-0.0002501286,-1.140634e-05,5,1
-0.0002652006,1.841368e-05,5,1
-0.0002690902,6.41161e-05,5,1
-0.0002626076,0.0001114392,5,1
-0.0002507768,0.0001449867,5,1
-0.0002412149,0.0001582761,5,1
-0.0002392702,0.0001527658,5,1
-0.0002348944,0.000133318,5,1
-0.0002102605,0.000111115,5,1
-0.0001502963,9.280167e-05,5,1
-6.0188e-05,8.080883e-05,5,1
4.110282e-05,6.962632e-05,5,1
0.0001367214,5.309566e-05,5,1
0.0002258573,2.603075e-05,5,1
0.0003132105,-6.544382e-06,5,1
0.0003978086,-3.506788e-05,5,1
0.0004683071,-5.289507e-05,5,1
0.0005140096,-6.002594e-05,5,1
0.0005154681,-5.59743e-05,5,1
0.0004559901,-4.608832e-05,5,1
0.000341572,-3.766092e-05,5,1
0.0002065715,-3.441962e-05,5,1
9.296373e-05,-3.312309e-05,5,1
3.462021e-05,-2.599222e-05,5,1
4.580272e-05,-9.461558e-06,5,1
0.0001107909,2.052053e-05,5,1
0.0001926339,6.362991e-05,5,1
0.0002461155,0.0001171115,5,1
0.0002420638,0.0001739964,5,1
0.000178048,0.0002224539,5,1
7.011252e-05,0.0002511395,5,1
-5.532604e-05,0.0002576221,5,1
-0.0001759026,0.0002478982,5,1
-0.0002875656,0.0002318537,5,1
-0.0003956632,0.0002162954,5,1
-0.0004985746,0.0002059233,5,1
-0.000576366,0.0001942546,5,1
-0.0006021344,0.0001715654,5,1
-0.0005596732,0.0001349386,5,1
-0.0004603272,9.053275e-05,5,1
-0.0003421817,4.207521e-05,5,1
-0.0002559629,-5.479652e-07,5,1
-0.0002342462,-3.26369e-05,5,1
-0.000278652,-5.386745e-05,5,1
-0.000353202,-6.310517e-05,5,1
-0.0004185144,-6.586029e-05,5,1
-0.0004530343,-6.731888e-05,5,1
-0.0004520619,-7.250496e-05,5,1
-0.0003938804,-8.222889e-05,5,1
-0.0002285739,-9.211487e-05,5,1
7.351589e-05,-0.0001015147,5,1
0.0004848378,-0.0001078352,5,1
0.0009243593,-0.0001057284,5,1
0.001300027,-9.19528e-05,5,1
0.001543774,-6.780507e-05,5,1
0.001617514,-4.252288e-05,5,1
0.001517033,-2.712668e-05,5,1
0.001276204,-2.599222e-05,5,1
0.000948507,-3.231277e-05,5,1
0.0005828873,-3.587821e-05,5,1
0.0002187264,-3.393342e-05,5,1
-0.0001039456,-3.036798e-05,5,1
-0.0003449367,-3.393342e-05,5,1
-0.0004818819,-4.997789e-05,5,1
-0.0005183466,-7.623246e-05,5,1
-0.0004864197,-0.0001089697,5,1
-0.0004261314,-0.0001436516,5,1
-0.0003707051,-0.0001780095,5,1
-0.0003452609,-0.0002063709,5,1
-0.0003570916,-0.0002248464,5,1
-0.0003989045,-0.0002305186,5,1
-0.000444931,-0.0002253326,5,1
-0.0004694029,-0.0002196603,5,1
-0.0004528722,-0.000224036,5,1
-0.0003911253,-0.000238784,5,1
-0.000295993,-0.000253694,5,1
-0.0001882196,-0.0002592042,5,1
-8.158062e-05,-0.0002476975,5,1
1.59827e-05,-0.0002128535,5,1
9.588091e-05,-0.000156941,5,1
0.0001496866,-9.389759e-05,5,1
0.0001667035,-3.976777e-05,5,1
0.0001466074,-2.330684e-06,5,1
9.458438e-05,2.181705e-05,5,1
1.193106e-05,4.02925e-05,5,1
-9.29252e-05,6.103686e-05,5,1
-0.0001977815,8.178122e-05,5,1
-0.0002846485,9.733949e-05,5,1
-0.0003497987,0.0001023635,5,1
-0.0003998769,9.507057e-05,5,1
-0.0004457413,8.372601e-05,5,1
-0.0004839888,7.400208e-05,5,1
-0.0004943609,7.351589e-05,5,1
-0.0004520619,8.46984e-05,5,1
-0.000350609,0.000103498,5,1
-0.0002006986,0.0001218114,5,1
-2.518189e-05,0.0001376938,5,1
0.000148228,0.0001551968,5,1
0.0002965178,0.0001757791,5,1
0.0004034809,0.0001999268,5,1
0.0004757621,0.0002281262,5,1
0.0005409124,0.000257298,5,1
0.0006211348,0.0002799871,5,1
0.0007127018,0.0002911697,5,1
0.0007909794,0.0002911697,5,1
0.0008266338,0.0002867939,5,1
0.0008011895,0.000282256,5,1
0.000708326,0.0002777182,5,1
0.000562143,0.0002731804,5,1
0.0003890571,0.0002710735,5,1
0.0002216436,0.0002691288,5,1
9.31258e-05,0.0002626462,5,1
1.889987e-05,0.0002462775,5,1
1.234753e-06,0.0002234263,5,1
2.522042e-05,0.0001971717,5,1
6.46023e-05,0.0001692965,5,1
8.923623e-05,0.0001417454,5,1
6.687121e-05,0.000121001,5,1
-2.177852e-05,0.0001057669,5,1
-0.0001724993,8.777764e-05,5,1
-0.000350447,6.249545e-05,5,1
-0.0005027883,3.202716e-05,5,1
-0.0005867381,2.693341e-06,5,1
-0.0005906277,-2.177852e-05,5,1
-0.0005332566,-4.284701e-05,5,1
-0.0004459034,-6.48879e-05,5,1
-0.0003638984,-9.2439e-05,5,1
-0.0003070135,-0.0001250141,5,1
-0.0002749245,-0.0001588858,5,1
-0.000261149,-0.0001859507,5,1
-0.0002609869,-0.0002039399,5,1
-0.0002681178,-0.0002125294,5,1
-0.0002700626,-0.0002160948,5,1
-0.0002622834,-0.0002170672,5,1
-0.0002476975,-0.000216419,5,1
-0.0002332737,-0.0002117191,5,1
-0.0002172293,-0.0002011848,5,1
-0.0001963229,-0.000186761,5,1
-0.0001671511,-0.0001703924,5,1
-0.0001342519,-0.0001548341,5,1
-0.0001092938,-0.000147055,5,1
-0.0001081593,-0.0001514308,5,1
-0.0001431655,-0.0001674752,5,1
-0.0002135018,-0.0001898403,5,1
-0.0003086341,-0.000216419,5,1
-0.0004172179,-0.0002415391,5,1
-0.0005196431,-0.000263742,5,1
-0.0005909518,-0.0002814071,5,1
-0.000623689,-0.0002948586,5,1
-0.0006275786,-0.0002985861,5,1
-0.000621096,-0.000290969,5,1
-0.0006168823,-0.0002741142,5,1
-0.0006167202,-0.000253856,5,1
-0.0006113721,-0.0002293842,5,1
-0.0005898174,-0.000201509,5,1
-0.0005356876,-0.0001679614,5,1
-0.0004420138,-0.0001318209,5,1
-0.0003175477,-9.973194e-05,5,1
-0.0001851404,-7.817725e-05,5,1
-6.39155e-05,-6.148453e-05,5,1
3.299956e-05,-3.960571e-05,5,1
0.0001069013,-5.89612e-06,5,1
0.0001676758,3.834771e-05,5,1
0.0002237505,8.712937e-05,5,1
0.0002783665,0.0001352628,5,1
0.000331686,0.0001783722,5,1
0.0003762539,0.0002143507,5,1
0.000401212,0.0002409294,5,1
0.0004031568,0.0002574601,5,1
0.0003960259,0.0002594049,5,1
0.0004034809,0.0002483844,5,1
0.0004462662,0.0002279642,5,1
0.0005229231,0.0002064095,5,1
0.000611735,0.0001911753,5,1
0.0006767232,0.0001833962,5,1
0.000686123,0.0001793446,5,1
0.0006243761,0.0001756171,5,1
0.0004935893,0.0001736723,5,1
0.000311914,0.0001770756,5,1
0.0001164632,0.0001842065,5,1
-4.252288e-05,0.0001918236,5,1
-0.0001238797,0.0001937684,5,1
-0.0001188556,0.0001871237,5,1
-5.662256e-05,0.0001744826,5,1
1.371378e-05,0.0001662173,5,1
5.374392e-05,0.0001649207,5,1
4.871989e-05,0.0001694586,5,1
8.527692e-06,0.0001757791,5,1
-3.879538e-05,0.0001806411,5,1
-6.261898e-05,0.0001793446,5,1
-4.138842e-05,0.0001717275,5,1
1.938607e-05,0.0001613553,5,1
8.826383e-05,0.0001527658,5,1
0.0001253768,0.0001492004,5,1
0.0001094944,0.0001509831,5,1
4.72613e-05,0.0001514693,5,1
-3.004385e-05,0.0001420695,5,1
-8.676672e-05,0.0001198666,5,1
-9.130454e-05,8.875003e-05,5,1
-2.583016e-05,5.811968e-05,5,1
0.000108522,3.543054e-05,5,1
0.0003083486,2.538249e-05,5,1
0.0005627912,2.570662e-05,5,1
0.0008465679,2.959619e-05,5,1
0.001119162,2.878586e-05,5,1
0.001337951,1.727922e-05,5,1
0.001463713,-5.409925e-06,5,1
0.001468738,-3.522994e-05,5,1
0.001353023,-6.359137e-05,5,1
0.001152223,-8.384954e-05,5,1
0.0009131767,-9.19528e-05,5,1
0.0006733199,-9.146661e-05,5,1
0.000453235,-8.984595e-05,5,1
0.0002636185,-9.373552e-05,5,1
0.0001091703,-0.0001094559,5,1
-6.058186e-06,-0.0001368449,5,1
-8.239095e-05,-0.0001702304,5,1
-0.0001199901,-0.0002026434,5,1
-0.0001253383,-0.0002303566,5,1
-0.0001081593,-0.0002476975,5,1
-7.914964e-05,-0.0002485079,5,1
-5.613637e-05,-0.0002332737,5,1
-5.289507e-05,-0.0002079916,5,1
-7.428769e-05,-0.0001807646,5,1
-0.0001195039,-0.0001585616,5,1
-0.0001828714,-0.0001467309,5,1
-0.0002577456,-0.0001451102,5,1
-0.0003376438,-0.000147055,5,1
-0.0004152731,-0.0001467309,5,1
-0.0004830164,-0.0001439758,5,1
-0.0005408737,-0.0001438137,5,1
-0.0005961379,-0.0001515928,5,1
-0.000650754,-0.0001677994,5,1
-0.0006940254,-0.0001869231,5,1
-0.0007084492,-0.0002005366,5,1
-0.0006825188,-0.000199078,5,1
-0.0006228787,-0.0001788198,5,1
-0.0005510838,-0.0001423551,5,1
-0.0004919299,-0.0001011905,5,1
-0.0004583824,-6.310517e-05,5,1
-0.0004442827,-2.907146e-05,5,1
-0.0004303451,5.124321e-06,5,1
-0.0004024699,4.175109e-05,5,1
-0.0003611433,7.432621e-05,5,1
-0.0003154408,9.928428e-05,5,1
-0.0002720074,0.0001174356,5,1
-0.0002361909,0.0001279698,5,1
-0.0002070192,0.0001302388,5,1
-0.000186761,0.0001200286,5,1
-0.0001759026,0.0001025256,5,1
-0.000169258,9.26396e-05,5,1
-0.0001630995,9.652917e-05,5,1
-0.0001504584,0.0001145184,5,1
-0.0001225832,0.0001399627,5,1
-7.590833e-05,0.000165569,5,1
-1.497178e-05,0.0001869616,5,1
5.050261e-05,0.0001961994,5,1
0.0001075496,0.0001965235,5,1
0.000153252,0.0001968476,5,1
0.0001866375,0.0002025199,5,1
0.0002088404,0.0002104611,5,1
0.0002193747,0.0002128921,5,1
0.0002192126,0.0002043026,5,1
0.0002094887,0.0001825859,5,1
0.0001892305,0.0001527658,5,1
0.0001551968,0.0001172735,5,1
0.000105929,7.983644e-05,5,1
4.158902e-05,4.466826e-05,5,1
-3.701266e-05,1.54965e-05,5,1
-0.0001266348,-6.382317e-06,5,1
-0.0002209568,-2.064406e-05,5,1
-0.0003100927,-2.680255e-05,5,1
-0.0003870737,-2.372331e-05,5,1
-0.0004480103,-8.975362e-06,5,1
-0.0004906334,1.371378e-05,5,1
-0.0005164018,3.753739e-05,5,1
-0.0005262878,5.633696e-05,5,1
-0.0005248293,6.541262e-05,5,1
-0.0005181845,6.849186e-05,5,1
-0.0005134846,6.897806e-05,5,1
-0.0005185087,7.140904e-05,5,1
-0.0005288809,7.52986e-05,5,1
-0.0005262878,7.740546e-05,5,1
-0.0004929024,7.610894e-05,5,1
-0.0004167317,7.465034e-05,5,1
-0.0002987481,7.740546e-05,5,1
-0.0001431655,8.405014e-05,5,1
4.158902e-05,9.26396e-05,5,1
0.0002318537,9.912221e-05,5,1
0.0003947294,9.847395e-05,5,1
0.0005050959,8.680524e-05,5,1
0.000547395,6.444023e-05,5,1
0.0005216266,3.364782e-05,5,1
0.0004380009,2.623614e-07,5,1
0.0003237448,-3.393342e-05,5,1
0.0002221298,-7.347736e-05,5,1
0.0001825859,-0.0001199901,5,1
0.0002389846,-0.0001621271,5,1
0.000388895,-0.0001796301,5,1
0.0005947181,-0.0001618029,5,1
0.0007977861,-0.0001188556,5,1
0.0009455899,-7.493595e-05,5,1
0.001007499,-5.419158e-05,5,1
0.0009874027,-6.278104e-05,5,1
0.0009117182,-9.017008e-05,5,1
0.0008199891,-0.0001170729,5,1
0.0007468975,-0.0001279313,5,1
0.0007078398,-0.0001180453,5,1
0.0006987641,-8.854943e-05,5,1
0.0006982779,-4.673658e-05,5,1
0.0006841783,4.313994e-06,5,1
0.0006392861,6.136099e-05,5,1
0.0005519328,0.0001150046,5,1
0.0004242253,0.0001522796,5,1
0.0002840388,0.0001626518,5,1
0.0001636242,0.0001480659,5,1
7.935024e-05,0.0001120874,5,1
2.732727e-05,6.055066e-05,5,1
-2.654814e-06,3.341602e-06,5,1
-1.99958e-05,-4.819517e-05,5,1
-3.036798e-05,-8.514606e-05,5,1
-3.571614e-05,-0.0001065387,5,1
-3.425755e-05,-0.0001141558,5,1
-1.918548e-05,-0.0001139937,5,1
1.047248e-05,-0.0001084835,5,1
4.483033e-05,-9.973194e-05,5,1
6.800567e-05,-9.19528e-05,5,1
6.314371e-05,-8.806324e-05,5,1
2.165498e-05,-8.174268e-05,5,1
-4.203669e-05,-6.083626e-05,5,1
-0.000107349,-2.388537e-05,5,1
-0.0001572651,1.517237e-05,5,1
-0.0001896782,3.915804e-05,5,1
-0.0002194982,4.35338e-05,5,1
-0.0002614731,4.288554e-05,5,1
-0.0003190063,4.888196e-05,5,1
-0.0003848048,6.346784e-05,5,1
-0.0004538446,7.659513e-05,5,1
-0.0005264499,7.708133e-05,5,1
-0.0005933828,5.779555e-05,5,1
-0.0006303337,2.262738e-05,5,1
-0.0006163961,-2.145439e-05,5,1
-0.0005502735,-6.44017e-05,5,1
-0.0004520619,-0.0001020008,5,1
-0.0003517435,-0.0001318209,5,1
-0.0002741142,-0.0001499722,5,1
-0.0002185258,-0.0001546721,5,1
-0.0001658546,-0.0001472171,5,1
-9.422172e-05,-0.0001279313,5,1
-5.57199e-06,-0.0001000561,5,1
7.221937e-05,-6.829127e-05,5,1
0.0001067393,-4.317115e-05,5,1
9.701536e-05,-3.279896e-05,5,1
6.865393e-05,-3.506788e-05,5,1
4.515445e-05,-3.992984e-05,5,1
3.105477e-05,-3.68506e-05,5,1
9.013889e-06,-1.318906e-05,5,1
-3.782299e-05,4.126489e-05,5,1
-0.0001233935,0.0001292664,5,1
-0.0002499665,0.0002380122,5,1
-0.0004045768,0.000341572,5,1
-0.00056648,0.0004138531,5,1
-0.0007102319,0.0004456179,5,1
-0.0008116848,0.0004423766,5,1
-0.0008622491,0.0004099636,5,1
-0.0008700282,0.0003525924,5,1
-0.0008505805,0.0002752873,5,1
-0.0008149261,0.0001880961,5,1
-0.0007697099,0.0001017153,5,1
-0.0007112043,2.797553e-05,5,1
-0.0006387612,-2.404744e-05,5,1
-0.0005564319,-5.419158e-05,5,1
-0.00046211,-7.218083e-05,5,1
-0.0003502849,-8.692878e-05,5,1
-0.000226467,-0.0001036215,5,1
-0.0001144799,-0.0001182074,5,1
-4.80331e-05,-0.000127121,5,1
-3.911951e-05,-0.0001319829,5,1
-6.845333e-05,-0.0001342519,5,1
-0.0001039456,-0.0001360346,5,1
-0.0001225832,-0.0001397621,5,1
-0.0001167488,-0.0001457585,5,1
-7.801519e-05,-0.0001515928,5,1
1.355172e-05,-0.00015451,5,1
0.0001775618,-0.0001572651,5,1
0.0004080188,-0.0001627754,5,1
0.0006872575,-0.0001720131,5,1
0.0009950198,-0.0001825473,5,1
0.001314613,-0.0001895161,5,1
0.001611517,-0.0001888679,5,1
0.001840841,-0.0001781716,5,1
0.001967414,-0.0001632615,5,1
0.001993345,-0.0001489998,5,1
0.001959635,-0.0001394379,5,1
0.001912798,-0.0001391138,5,1
0.001868392,-0.0001462447,5,1
0.001815072,-0.0001540238,5,1
0.001727557,-0.0001600202,5,1
0.00158348,-0.0001661787,5,1
0.001367122,-0.0001762268,5,1
0.00107508,-0.0001961608,5,1
0.0007177258,-0.0002219292,5,1
0.000329255,-0.0002407288,5,1
-3.830919e-05,-0.0002327876,5,1
-0.000343154,-0.0001844921,5,1
-0.0005732867,-0.0001010285,5,1
-0.0007434553,-8.651231e-06,5,1
-0.0008737558,6.233338e-05,5,1
-0.0009732639,9.766362e-05,5,1
-0.001042628,9.928428e-05,5,1
-0.001081199,8.291568e-05,5,1
-0.001091409,6.703327e-05,5,1
-0.001067748,6.265751e-05,5,1
-0.001000329,7.20573e-05,5,1
-0.0008974173,9.069481e-05,5,1
-0.0007842957,0.0001158149,5,1
-0.0006794395,0.0001480659,5,1
-0.0005961379,0.0001850168,5,1
-0.0005457356,0.0002211574,5,1
-0.0005316359,0.0002547049,5,1
-0.0005377944,0.0002861456,5,1
-0.0005439529,0.0003140208,5,1
-0.0005460597,0.0003344411,5,1
-0.0005538389,0.0003436788,5,1
-0.0005724764,0.0003370341,5,1
-0.0005907898,0.0003124002,5,1
-0.0005959758,0.0002725321,5,1
-0.000571504,0.0002279642,5,1
-0.0004971161,0.0001968476,5,1
-0.0003595226,0.0002013854,5,1
-0.000171851,0.0002511395,5,1
3.18651e-05,0.0003321722,5,1
0.0002153231,0.0004122325,5,1
0.000351458,0.0004608521,5,1
0.0004287631,0.000463121,5,1
0.0004448076,0.0004224426,5,1
0.0004047775,0.0003628026,5,1
0.0003161277,0.0003120761,5,1
0.0001940925,0.0002867939,5,1
6.103686e-05,0.000287118,5,1
-6.44017e-05,0.0002973281,5,1
-0.0001723372,0.0002947351,5,1
-0.0002627696,0.0002676702,5,1
-0.0003408851,0.0002182402,5,1
-0.0004113835,0.0001535762,5,1
-0.0004737787,8.210535e-05,5,1
-0.0005191569,1.144487e-05,5,1
-0.000541846,-5.354332e-05,5,1
-0.000539253,-0.0001104282,5,1
-0.000514295,-0.0001515928,5,1
-0.0004715097,-0.0001771992,5,1
-0.0004228902,-0.0001911368,5,1
-0.0003898288,-0.000201671,5,1
-0.0003830221,-0.0002212809,5,1
-0.0004008493,-0.0002549905,5,1
-0.0004308313,-0.000300855,5,1
-0.0004541688,-0.0003517435,5,1
-0.0004512515,-0.0003950149,5,1
-0.0004172179,-0.0004180282,5,1
-0.0003587123,-0.000419973,5,1
-0.0002895104,-0.0004117076,5,1
-0.0002230636,-0.000402632,5,1
-0.0001716889,-0.0003906392,5,1
-0.0001376552,-0.0003692465,5,1
-0.000127121,-0.00033813,5,1
-0.0001501342,-0.0003036101,5,1
-0.0002125294,-0.0002689281,5,1
-0.0003040963,-0.0002334358,5,1
-0.0004013355,-0.0001901644,5,1
-0.000477182,-0.0001290658,5,1
-0.0005128364,-5.030202e-05,5,1
-0.0004990608,2.846173e-05,5,1
-0.0004363416,8.46984e-05,5,1
-0.0003206269,0.0001047945,5,1
-0.0001412206,8.939829e-05,5,1
0.0001114392,4.434413e-05,5,1
0.000423415,-2.015787e-05,5,1
0.0007533802,-9.227693e-05,5,1
0.00104915,-0.0001618029,5,1
0.001265183,-0.0002143121,5,1
0.00137555,-0.0002391081,5,1
0.001378791,-0.0002353806,5,1
0.001298245,-0.0002102605,5,1
0.001169078,-0.0001759026,5,1
0.00101933,-0.0001441378,5,1
0.0008755776,-0.0001217728,5,1
0.0007624559,-0.0001101041,5,1
0.0006990883,-0.0001054042,5,1
0.0006867713,-9.875954e-05,5,1
0.0007037881,-8.222889e-05,5,1
0.0007229118,-5.613637e-05,5,1
0.0007292324,-2.501983e-05,5,1
0.000718374,1.014835e-05,5,1
0.0006822334,4.855783e-05,5,1
0.000621783,8.534666e-05,5,1
0.0005469088,0.0001106288,5,1
0.0004762483,0.0001192183,5,1
0.0004336251,0.0001167873,5,1
0.0004276287,0.0001130598,5,1
0.0004399457,0.0001151667,5,1
0.0004344354,0.0001237561,5,1
0.0003845193,0.0001339663,5,1
0.0002880904,0.000140773,5,1
0.0001639484,0.0001430419,5,1
3.915804e-05,0.0001422316,5,1
-6.634648e-05,0.0001423936,5,1
-0.0001472171,0.0001445005,5,1
-0.0002000504,0.0001474177,5,1
-0.0002130156,0.0001464453,5,1
-0.0001804405,0.0001406109,5,1
-0.0001186936,0.0001315353,5,1
-6.180866e-05,0.0001226217,5,1
-4.041603e-05,0.0001193804,5,1
-6.667062e-05,0.0001248906,5,1
-0.0001361966,0.0001367214,5,1
-0.000238946,0.0001508211,5,1
-0.0003650328,0.0001616794,5,1
-0.0005104054,0.0001676758,5,1
-0.0006763602,0.0001688103,5,1
-0.0008593319,0.0001623277,5,1
-0.001042142,0.0001498487,5,1
-0.001188325,0.0001321835,5,1
-0.001265468,0.0001138702,5,1
-0.001277136,9.750156e-05,5,1
-0.001253961,8.46984e-05,5,1
-0.001220576,7.594687e-05,5,1
-0.001182166,7.30297e-05,5,1
-0.001130305,7.416415e-05,5,1
-0.001064182,7.416415e-05,5,1
-0.0009957909,6.849186e-05,5,1
-0.0009406887,5.94162e-05,5,1
-0.0009076274,5.325772e-05,5,1
-0.0008834797,5.001642e-05,5,1
-0.0008411807,4.320967e-05,5,1
-0.0007432932,2.76514e-05,5,1
-0.0005546492,2.207145e-06,5,1
-0.0002626076,-2.615429e-05,5,1
0.0001033359,-5.240886e-05,5,1
0.0004799758,-7.688073e-05,5,1
0.0008133444,-9.908367e-05,5,1
0.001081077,-0.0001154523,5,1
0.001280255,-0.000119828,5,1
0.001427735,-0.0001126972,5,1
0.001557874,-9.843541e-05,5,1
0.001719129,-8.547019e-05,5,1
0.00196709,-7.785312e-05,5,1
0.002338059,-7.266703e-05,5,1
0.002812913,-6.715681e-05,5,1
0.003300571,-6.099833e-05,5,1
0.003674459,-5.581224e-05,5,1
0.003811405,-5.240886e-05,5,1
0.00363297,-5.629844e-05,5,1
0.003161356,-6.39155e-05,5,1
0.002511956,-7.007399e-05,5,1
0.001831765,-7.18567e-05,5,1
0.001245735,-6.861539e-05,5,1
0.0008068618,-6.099833e-05,5,1
0.0004968306,-5.208474e-05,5,1
0.0002628082,-4.689865e-05,5,1
5.260946e-05,-4.884343e-05,5,1
-0.0001608306,-5.581224e-05,5,1
-0.0003823738,-6.359137e-05,5,1
-0.0006047274,-6.796714e-05,5,1
-0.0008108745,-6.667062e-05,5,1
-0.0009878498,-5.986387e-05,5,1
-0.001123985,-4.85193e-05,5,1
-0.001212634,-3.506788e-05,5,1
-0.001258823,-1.886135e-05,5,1
-0.001272923,4.244267e-07,5,1
-0.001269519,1.841368e-05,5,1
-0.001259309,3.299956e-05,5,1
-0.001249423,4.82337e-05,5,1
-0.001245534,6.362991e-05,5,1
-0.001247478,7.853991e-05,5,1
-0.001252178,9.247754e-05,5,1
-0.001257851,0.0001041462,5,1
-0.00126255,0.0001119254,5,1
-0.001261902,0.0001151667,5,1
-0.001251044,0.0001065772,5,1
-0.001227382,8.372601e-05,5,1
-0.001196752,5.536457e-05,5,1
-0.001169687,3.364782e-05,5,1
-0.001150077,2.894792e-05,5,1
-0.001139705,4.385793e-05,5,1
-0.001138733,7.367795e-05,5,1
-0.001140677,0.0001096565,5,1
-0.001134033,0.000138342,5,1
-0.001104861,0.0001516314,5,1
-0.001043438,0.0001470936,5,1
-0.0009471713,0.0001363972,5,1
-0.0008269189,0.0001305629,5,1
-0.0007074767,0.0001328318,5,1
-0.0006147755,0.0001365593,5,1
-0.0005531906,0.0001351007,5,1
-0.0005074882,0.0001257009,5,1
-0.0004609755,0.0001116012,5,1
-0.0004024699,0.0001025256,5,1
-0.0003321336,0.0001020394,5,1
-0.000263742,0.0001098185,5,1
-0.0002053985,0.0001231079,5,1
-0.0001558065,0.000138342,5,1
-0.0001075111,0.0001548727,5,1
-4.90055e-05,0.0001670276,5,1
1.857574e-05,0.0001717275,5,1
8.46984e-05,0.0001637863,5,1
0.0001401247,0.0001398006,5,1
0.0001746447,0.0001017153,5,1
0.0001842065,5.406805e-05,5,1
0.000175455,4.313994e-06,5,1
0.0001652449,-3.798505e-05,5,1
0.0001714034,-6.423963e-05,5,1
0.0001999268,-7.363943e-05,5,1
0.000244981,-7.461182e-05,5,1
0.0002910076,-7.704279e-05,5,1
0.0003174242,-8.465986e-05,5,1
0.0003078624,-9.892161e-05,5,1
0.0002590807,-0.000117235,5,1
0.0001757791,-0.0001374932,5,1
6.978839e-05,-0.0001546721,5,1
-4.05781e-05,-0.0001697442,5,1
-0.0001384655,-0.000184168,5,1
-0.0002162569,-0.0002026434,5,1
-0.0002825416,-0.0002250084,5,1
-0.0003535262,-0.0002483458,5,1
-0.0004365036,-0.0002674695,5,1
-0.0005249913,-0.0002754107,5,1
-0.0006048895,-0.0002707109,5,1
-0.0006567503,-0.0002588801,5,1
-0.0006614503,-0.0002501286,5,1
-0.0006048895,-0.0002499665,5,1
-0.000487068,-0.0002569353,5,1
-0.0003204649,-0.0002655248,5,1
-0.0001195039,-0.0002676316,5,1
0.0001018773,-0.0002569353,5,1
0.0003209897,-0.0002337599,5,1
0.000517575,-0.0002076674,5,1
0.0006814231,-0.0001885437,5,1
0.0008091307,-0.0001752544,5,1
0.0008959978,-0.0001663408,5,1
0.0009323005,-0.0001613168,5,1
0.0009152836,-0.0001621271,5,1
0.000859533,-0.0001650443,5,1
0.0007844968,-0.0001588858,5,1
0.0007105949,-0.0001381414,5,1
0.0006595443,-0.0001011905,5,1
0.0006499824,-4.981582e-05,5,1
0.0006828817,6.420843e-06,5,1
0.0007475458,5.325772e-05,5,1
0.0008276062,8.291568e-05,5,1
0.0009100975,9.960841e-05,5,1
0.0009862683,0.0001093323,5,1
0.001031971,0.0001143563,5,1
0.001017061,0.0001175977,5,1
0.0009305178,0.0001239182,5,1
0.0007948689,0.0001373696,5,1
0.0006584098,0.0001587623,5,1
0.0005653843,0.0001850168,5,1
0.0005350781,0.0002120818,5,1
0.0005530673,0.0002420638,5,1
0.0005875872,0.0002786906,5,1
0.0006039558,0.000321638,5,1
0.0005785116,0.0003611819,5,1
0.0004992616,0.0003897054,5,1
0.0003642611,0.0004068843,5,1
0.0001827479,0.0004151496,5,1
-2.356124e-05,0.0004187151,5,1
-0.0002219292,0.0004164462,5,1
-0.0003747568,0.0004073705,5,1
-0.0004551412,0.0003916502,5,1
-0.0004619479,0.0003681507,5,1
-0.000432452,0.000339141,5,1
-0.0004097628,0.0003073762,5,1
-0.0004202971,0.000274639,5,1
-0.0004617858,0.0002401191,5,1
-0.0005102433,0.0002012234,5,1
-0.0005295291,0.0001542244,5,1
-0.0004852853,9.831188e-05,5,1
-0.000350609,3.510641e-05,5,1
-0.0001267968,-2.680255e-05,5,1
0.0001347766,-7.412562e-05,5,1
0.000349027,-9.713889e-05,5,1
0.000453235,-9.584238e-05,5,1
0.0004392974,-7.947377e-05,5,1
0.0003548613,-6.278104e-05,5,1
0.0002650771,-5.840528e-05,5,1
0.0002054371,-7.088431e-05,5,1
0.0001739964,-9.29252e-05,5,1
0.0001513072,-0.0001126972,5,1
0.0001227837,-0.0001133454,5,1
8.615699e-05,-8.174268e-05,5,1
4.936815e-05,-2.0482e-05,5,1
2.732727e-05,5.828175e-05,5,1
3.13789e-05,0.000130887,5,1
6.379197e-05,0.0001735102,5,1
0.0001182459,0.000170431,5,1
0.000177886,0.0001252147,5,1
0.0002287745,5.1475e-05,5,1
0.0002679943,-3.360929e-05,5,1
0.0002910076,-0.0001115627,5,1
0.0002905214,-0.0001661787,5,1
0.0002636185,-0.0001934057,5,1
0.0002039785,-0.0001987538,5,1
0.0001038221,-0.000191785,5,1
-4.106429e-05,-0.0001857886,5,1
-0.0002220912,-0.0001904885,5,1
-0.0004165696,-0.0002105846,5,1
-0.0005901415,-0.0002478596,5,1
-0.0007082871,-0.0003027998,5,1
-0.000750424,-0.0003726499,5,1
-0.0007116905,-0.0004471999,5,1
-0.0006073205,-0.000514295,5,1
-0.0004692408,-0.0005625904,5,1
-0.0003408851,-0.0005826865,5,1
-0.0002575835,-0.0005719902,5,1
-0.0002199844,-0.0005397392,5,1
-0.0001984297,-0.0004946851,5,1
-0.0001493239,-0.0004403932,5,1
-4.673658e-05,-0.0003731361,5,1
0.0001064152,-0.0002893484,5,1
0.0002785285,-0.0001904885,5,1
0.0004253598,-8.303922e-05,5,1
0.0005141716,3.154097e-05,5,1
0.0005313505,0.0001509831,5,1
0.000477869,0.0002665357,5,1
0.0003666921,0.0003692851,5,1
0.0002255332,0.0004572867,5,1
8.615699e-05,0.0005384815,5,1
-3.409549e-05,0.0006136798,5,1
-0.0001334415,0.0006723474,5,1
-0.0002198223,0.00069844,5,1
-0.0002982619,0.0006799645,5,1
-0.0003755671,0.0006153004,5,1
-0.0004549791,0.0005135234,5,1
-0.0005321222,0.0003926226,5,1
-0.0005875485,0.0002759355,5,1
-0.0005950035,0.0001866375,5,1
-0.0005484907,0.0001354248,5,1
-0.0004713477,0.0001163011,5,1
-0.0004042526,0.0001107909,5,1
-0.0003689224,0.0001039842,5,1
-0.0003695707,9.037068e-05,5,1
-0.0003896668,7.173317e-05,5,1
-0.0004053871,4.742337e-05,5,1
-0.0003917736,2.181705e-05,5,1
-0.0003413713,-2.238346e-07,5,1
-0.0002639041,-1.594417e-05,5,1
-0.0001775233,-2.907146e-05,5,1
-9.940781e-05,-4.511593e-05,5,1
-3.895745e-05,-6.731888e-05,5,1
3.827799e-06,-9.454585e-05,5,1
2.927205e-05,-0.0001212866,5,1
2.81376e-05,-0.0001412206,5,1
-1.529591e-05,-0.0001467309,5,1
-0.0001099421,-0.0001368449,5,1
-0.0002444563,-0.000117235,5,1
-0.0003865875,-9.794922e-05,5,1
-0.0004982505,-8.498399e-05,5,1
-0.0005599973,-8.012204e-05,5,1
-0.0005693972,-8.07703e-05,5,1
-0.0005384427,-8.158062e-05,5,1
-0.0004784786,-7.688073e-05,5,1
-0.0003933943,-6.407757e-05,5,1
-0.0002874036,-4.608832e-05,5,1
-0.0001674752,-2.7937e-05,5,1
-4.041603e-05,-8.975362e-06,5,1
8.664318e-05,1.695509e-05,5,1
0.0001991165,5.19612e-05,5,1
0.00027707,9.150514e-05,5,1
0.0003059176,0.0001266733,5,1
0.0002926282,0.0001454729,5,1
0.0002628082,0.0001404489,5,1
0.0002412535,0.0001120874,5,1
0.0002422259,6.897806e-05,5,1
0.0002696149,1.954813e-05,5,1
0.0003200173,-3.085418e-05,5,1
0.0003874365,-8.158062e-05,5,1
0.0004600418,-0.0001342519,5,1
0.0005204921,-0.0001904885,5,1
0.0005517708,-0.0002454286,5,1
0.0005475571,-0.0002948586,5,1
0.0005144958,-0.0003284061,5,1
0.0004632831,-0.0003413713,5,1
0.0004021844,-0.0003308371,5,1
0.000331848,-0.000303448,5,1
0.000249843,-0.0002726556,5,1
0.0001634622,-0.0002522354,5,1
8.437427e-05,-0.0002483458,5,1
2.878586e-05,-0.0002596904,5,1
5.286387e-06,-0.0002770314,5,1
8.689758e-06,-0.0002865932,5,1
2.197911e-05,-0.0002758969,5,1
3.056858e-05,-0.0002345703,5,1
2.489629e-05,-0.0001611547,5,1
1.234753e-06,-6.132246e-05,5,1
-3.766092e-05,4.758544e-05,5,1
-8.498399e-05,0.0001469315,5,1
-0.0001305243,0.0002211574,5,1
-0.0001682856,0.000259891,5,1
-0.0001956746,0.0002657254,5,1
-0.0002136638,0.0002496809,5,1
-0.0002235498,0.0002224539,5,1
-0.0002271153,0.0001947408,5,1
-0.000231329,0.0001683241,5,1
-0.0002449425,0.0001394765,5,1
-0.0002778417,0.0001081979,5,1
-0.0003345645,7.708133e-05,5,1
-0.0004055492,4.645098e-05,5,1
-0.0004744269,2.246531e-05,5,1
-0.0005215878,1.1769e-05,5,1
-0.0005272602,1.64689e-05,5,1
-0.00047232,3.478228e-05,5,1
-0.0003475298,5.730935e-05,5,1
-0.0001621271,7.67572e-05,5,1
3.899597e-05,8.988449e-05,5,1
0.0001934442,0.0001000946,5,1
0.0002545429,0.0001112771,5,1
0.0002094887,0.0001266733,5,1
8.356394e-05,0.0001503349,5,1
-6.780507e-05,0.0001809652,5,1
-0.0001836818,0.0002075439,5,1
-0.0002143121,0.0002179161,5,1
-0.0001430034,0.0002094887,5,1
2.855407e-06,0.0001866375,5,1
0.0001662173,0.0001584381,5,1
0.0002885766,0.0001352628,5,1
0.000341572,0.0001218114,5,1
0.0003324963,0.0001203528,5,1
0.0002965178,0.000123432,5,1
0.0002756114,0.0001268354,5,1
0.0003023522,0.0001300767,5,1
0.0003833848,0.0001376938,5,1
0.0005007202,0.0001537382,5,1
0.0006107626,0.000178048,5,1
0.0006600305,0.0002068957,5,1
0.0006148142,0.000235095,5,1
0.000487917,0.0002584324,5,1
0.0003485408,0.0002752873,5,1
0.0002731804,0.0002816078,5,1
0.0002955454,0.0002743149,5,1
0.0004008879,0.0002516257,5,1
0.0005538776,0.0002169437,5,1
0.0007154569,0.0001782101,5,1
0.0008332785,0.0001410971,5,1
0.0008532125,0.0001094944,5,1
0.0007465734,8.550872e-05,5,1
0.0005242196,6.589881e-05,5,1
0.0002286124,4.483033e-05,5,1
-8.239095e-05,1.59827e-05,5,1
-0.0003572537,-2.42095e-05,5,1
-0.0005580526,-7.153257e-05,5,1
-0.0006578848,-0.0001169109,5,1
-0.0006398956,-0.0001553203,5,1
-0.0005100812,-0.0001874093,5,1
-0.0003086341,-0.0002138259,5,1
-0.000107349,-0.0002357047,5,1
3.445814e-05,-0.0002527216,5,1
8.956036e-05,-0.0002647144,5,1
6.946425e-05,-0.0002728177,5,1
-2.978945e-06,-0.0002822175,5,1
-9.811128e-05,-0.0002948586,5,1
-0.0001898403,-0.0003037722,5,1
-0.0002608248,-0.0003021515,5,1
-0.0003053928,-0.0002854588,5,1
-0.0003201407,-0.0002590421,5,1
-0.0003076617,-0.0002324634,5,1
-0.0002857829,-0.0002109087,5,1
-0.0002778417,-0.0001938919,5,1
-0.0002906449,-0.0001796301,5,1
-0.0003076617,-0.0001682856,5,1
-0.0002924276,-0.0001637477,5,1
-0.0002206326,-0.0001687718,5,1
-0.0001036215,-0.0001804405,5,1
2.230325e-05,-0.000189192,5,1
0.0001237561,-0.0001853024,5,1
0.0001840444,-0.0001712027,5,1
0.000210299,-0.000156941,5,1
0.0002352571,-0.0001498101,5,1
0.0003111037,-0.0001498101,5,1
0.0004756001,-0.0001473791,5,1
0.0007141604,-0.000137169,5,1
0.0009643894,-0.0001152902,5,1
0.001169564,-8.595638e-05,5,1
0.001309265,-5.467778e-05,5,1
0.001403749,-2.583016e-05,5,1
0.001488672,-5.479652e-07,5,1
0.001580239,2.214118e-05,5,1
0.001662244,4.35338e-05,5,1
0.001706164,6.541262e-05,5,1
0.001694333,8.74535e-05,5,1
0.001619621,0.0001022015,5,1
0.001484458,0.0001041462,5,1
0.001296462,9.944634e-05,5,1
0.001069084,9.766362e-05,5,1
0.000817396,0.0001026876,5,1
0.0005495019,0.0001145184,5,1
0.0002657254,0.0001268354,5,1
-3.393342e-05,0.0001325077,5,1
-0.0003457471,0.0001286181,5,1
-0.0006501057,0.0001166253,5,1
-0.0009225374,0.0001000946,5,1
-0.001139543,8.42122e-05,5,1
-0.001291236,7.610894e-05,5,1
-0.001382803,7.967438e-05,5,1
-0.001423805,9.393612e-05,5,1
-0.001426236,0.000113384,5,1
-0.001404358,0.0001338042,5,1
-0.001369027,0.0001508211,5,1
-0.00132608,0.0001598967,5,1
-0.001283943,0.0001569795,5,1
-0.001250071,0.0001430419,5,1
-0.001225275,0.0001224596,5,1
-0.001207448,0.0001004187,5,1
-0.001189135,8.291568e-05,5,1
-0.001164015,7.546067e-05,5,1
-0.001127064,8.356394e-05,5,1
-0.001080389,0.0001093323,5,1
-0.001029987,0.0001490383,5,1
-0.0009859049,0.0001902029,5,1
-0.0009565711,0.0002143507,5,1
-0.0009442542,0.0002125679,5,1
-0.0009453886,0.0001851789,5,1
-0.000951223,0.0001427178,5,1
-0.0009573814,0.0001023635,5,1
-0.0009580297,7.643307e-05,5,1
-0.0009508989,6.751948e-05,5,1
-0.0009346923,7.400208e-05,5,1
-0.0009074653,9.004655e-05,5,1
-0.0008685697,0.0001103047,5,1
-0.0008215707,0.0001273216,5,1
-0.0007755442,0.000135749,5,1
-0.0007325969,0.000135749,5,1
-0.0006804119,0.0001302388,5,1
-0.0006081308,0.0001203528,5,1
-0.0005251534,0.0001081979,5,1
-0.0004567618,9.134307e-05,5,1
-0.0004232143,6.638502e-05,5,1
-0.0004319658,2.781346e-05,5,1
-0.0004763717,-1.886135e-05,5,1
-0.0005295291,-6.326724e-05,5,1
-0.000559187,-9.843541e-05,5,1
-0.0005436288,-0.00012469,5,1
-0.0004779923,-0.0001462447,5,1
-0.0003687603,-0.000164396,5,1
-0.0002327876,-0.000176875,5,1
-8.692878e-05,-0.000184168,5,1
5.52025e-05,-0.0001851404,5,1
0.0001902029,-0.0001812508,5,1
0.0003209897,-0.0001783336,5,1
0.000448211,-0.0001827094,5,1
0.0005657084,-0.0001995642,5,1
0.0006652166,-0.0002277635,5,1
0.0007433321,-0.0002580697,5,1
0.000809941,-0.0002767073,5,1
0.0008854635,-0.0002775176,5,1
0.0009849718,-0.0002622834,5,1
0.001118676,-0.0002366771,5,1
0.001282038,-0.0002084778,5,1
0.001459338,-0.0001830335,5,1
0.001618324,-0.0001613168,5,1
0.001717508,-0.0001439758,5,1
0.001719129,-0.0001263107,5,1
0.001610059,-0.0001029732,5,1
0.001415742,-7.60704e-05,5,1
0.001185609,-4.738484e-05,5,1
0.0009687652,-1.643037e-05,5,1
0.0008002172,2.003433e-05,5,1
0.0006955228,5.860588e-05,5,1
0.0006469032,8.777764e-05,5,1
0.0006289139,0.0001039842,5,1
0.0006023352,0.0001052807,5,1
0.0005499881,9.604298e-05,5,1
0.0004788414,8.080883e-05,5,1
0.0004028327,6.298164e-05,5,1
0.0003295791,4.72613e-05,5,1
0.0002564877,4.191315e-05,5,1
0.0001777239,5.325772e-05,5,1
9.26396e-05,8.016057e-05,5,1
8.689758e-06,0.0001141943,5,1
-5.808115e-05,0.0001449867,5,1
-9.422172e-05,0.0001652449,5,1
-9.2439e-05,0.0001720516,5,1
-6.099833e-05,0.000170593,5,1
-1.805102e-05,0.0001654069,5,1
2.311357e-05,0.000160707,5,1
6.427817e-05,0.0001603829,5,1
0.0001151667,0.0001641104,5,1
0.0001895547,0.0001683241,5,1
0.0002898731,0.0001671896,5,1
0.0004068843,0.0001547106,5,1
0.0005187094,0.0001346145,5,1
0.0006007145,0.0001116012,5,1
0.0006358828,8.79397e-05,5,1
0.0006243761,6.427817e-05,5,1
0.0005785116,3.802358e-05,5,1
0.0005128751,1.322759e-05,5,1
0.0004465904,-4.599598e-06,5,1
0.0004020224,-1.318906e-05,5,1
0.0003910019,-1.318906e-05,5,1
0.0003999155,-8.813297e-06,5,1
0.0003897054,-5.734056e-06,5,1
0.0003260137,-4.923729e-06,5,1
0.0001939304,-1.682422e-06,5,1
9.175954e-06,6.90704e-06,5,1
-0.0001982676,3.202716e-05,5,1
-0.0003969597,8.291568e-05,5,1
-0.0005574043,0.0001573037,5,1
-0.0006645294,0.0002383363,5,1
-0.0007136352,0.0002976523,5,1
-0.000705532,0.0003153174,5,1
-0.0006569124,0.0002877662,5,1
-0.0005967862,0.000225047,5,1
-0.0005523803,0.0001461212,5,1
-0.0005387668,6.962632e-05,5,1
-0.0005509217,8.851824e-06,5,1
-0.0005791211,-3.069211e-05,5,1
-0.0006243373,-5.354332e-05,5,1
-0.0006813843,-6.634648e-05,5,1
-0.000742807,-7.526008e-05,5,1
-0.0007975851,-8.141856e-05,5,1
-0.000834536,-8.871149e-05,5,1
-0.0008429634,-0.0001021629,5,1
-0.0008240017,-0.0001191798,5,1
-0.0007932093,-0.0001344139,5,1
-0.0007677651,-0.0001404103,5,1
-0.0007564205,-0.0001374932,5,1
-0.0007557723,-0.0001287416,5,1
-0.0007513965,-0.0001211246,5,1
-0.0007225489,-0.0001193418,5,1
-0.0006395715,-0.0001230693,5,1
-0.0004650271,-0.0001233935,5,1
-0.0001791439,-0.00010978,5,1
0.0001772377,-7.769106e-05,5,1
0.0005141716,-3.976777e-05,5,1
0.0007464114,-1.173047e-05,5,1
0.0008399231,-7.678839e-06,5,1
0.0008113996,-2.907146e-05,5,1
0.0007097846,-6.974985e-05,5,1
0.0005900182,-0.0001233935,5,1
0.0004864584,-0.0001814128,5,1
0.0004115842,-0.0002382978,5,1
0.0003675024,-0.0002854588,5,1
0.0003493511,-0.0003138202,5,1
0.0003512959,-0.0003198166,5,1
0.0003696093,-0.0003027998,5,1
0.0003950536,-0.0002658489,5,1
0.0004222805,-0.0002138259,5,1
0.0004509661,-0.0001566169,5,1
0.0004786793,-0.0001007043,5,1
0.0004884033,-5.176061e-05,5,1
0.0004650658,-1.545797e-05,5,1
0.0004063981,5.124321e-06,5,1
0.0003164518,9.013889e-06,5,1
0.0002046267,4.244267e-07,5,1
8.016057e-05,-9.461558e-06,5,1
-4.317115e-05,-7.840905e-06,5,1
-0.0001412206,1.241726e-05,5,1
-0.0001875713,4.920609e-05,5,1
-0.000159534,9.182927e-05,5,1
-5.370539e-05,0.0001287802,5,1
0.0001114392,0.0001493625,5,1
0.0002918179,0.00015309,5,1
0.0004344354,0.000145635,5,1
0.0005073649,0.0001338042,5,1
0.0005073649,0.0001206769,5,1
0.0004451317,0.0001091703,5,1
0.0003370341,0.0001017153,5,1
0.000210299,0.0001005808,5,1
9.717743e-05,0.0001049566,5,1
1.776542e-05,0.000113546,5,1
-2.696461e-05,0.0001269974,5,1
-4.932962e-05,0.0001427178,5,1
-6.456377e-05,0.0001553589,5,1
-7.688073e-05,0.000163138,5,1
-8.239095e-05,0.0001645966,5,1
-8.02841e-05,0.0001621656,5,1
-7.914964e-05,0.0001594105,5,1
-9.568031e-05,0.0001547106,5,1
-0.0001381414,0.0001493625,5,1
-0.0001985918,0.0001440143,5,1
-0.0002595283,0.000140773,5,1
-0.0003073376,0.0001404489,5,1
-0.0003410472,0.000138342,5,1
-0.0003697327,0.0001281319,5,1
-0.0004010113,0.0001077117,5,1
-0.0004358554,7.951231e-05,5,1
-0.0004648651,5.439218e-05,5,1
-0.0004758855,3.802358e-05,5,1
-0.0004749131,2.829966e-05,5,1
-0.0004862577,2.133085e-05,5,1
-0.0005274223,1.403791e-05,5,1
-0.0005899795,2.207145e-06,5,1
-0.0006479988,-9.785688e-06,5,1
-0.0006846256,-1.399939e-05,5,1
-0.0007009942,-8.975362e-06,5,1
-0.0007100698,4.151929e-06,5,1
-0.000730328,1.906194e-05,5,1
-0.0007711684,2.570662e-05,5,1
-0.0008228673,1.663096e-05,5,1
-0.0008601423,-7.678839e-06,5,1
-0.000856901,-4.268495e-05,5,1
-0.0007987196,-7.947377e-05,5,1
-0.0006870566,-0.0001084835,5,1
-0.0005386047,-0.000122259,5,1
-0.0003755671,-0.0001235555,5,1
-0.0002157707,-0.0001209625,5,1
-7.33153e-05,-0.0001190177,5,1
4.337174e-05,-0.0001190177,5,1
0.0001244044,-0.0001214487,5,1
0.0001590864,-0.0001267968,5,1
0.0001401247,-0.0001327933,5,1
7.870197e-05,-0.0001358725,5,1
7.23117e-06,-0.0001376552,5,1
-2.809907e-05,-0.0001417068,5,1
9.175954e-06,-0.0001481895,5,1
0.0001237561,-0.0001559686,5,1
0.0002986247,-0.0001566169,5,1
0.0004997478,-0.000147055,5,1
0.0006911471,-0.0001224211,5,1
0.0008368439,-8.109443e-05,5,1
0.0009107458,-2.777494e-05,5,1
0.0009078286,2.76514e-05,5,1
0.0008428403,7.335383e-05,5,1
0.0007370116,0.0001012291,5,1
0.0006073592,0.0001107909,5,1
0.0004649037,0.0001093323,5,1
0.0003219621,0.0001046324,5,1
0.0001871237,0.000101067,5,1
7.870197e-05,9.879808e-05,5,1
2.311357e-05,9.588091e-05,5,1
4.499239e-05,9.426025e-05,5,1
0.0001508211,9.847395e-05,5,1
0.0003161277,0.0001124116,5,1
0.0004906721,0.0001373696,5,1
0.0006203245,0.0001668655,5,1
0.0006692683,0.0001902029,5,1
0.0006332897,0.0001983062,5,1
0.0005433434,0.0001871237,5,1
0.000443187,0.000160707,5,1
0.0003616681,0.0001271595,5,1
0.0003013798,9.231547e-05,5,1
0.0002415777,6.427817e-05,5,1
0.0001574657,4.628891e-05,5,1
3.802358e-05,3.769945e-05,5,1
-0.0001044318,3.526847e-05,5,1
-0.0002395943,3.348575e-05,5,1
-0.0003311612,3.235129e-05,5,1
-0.0003546606,3.13789e-05,5,1
-0.0003042584,3.218923e-05,5,1
-0.0001880575,3.299956e-05,5,1
-2.0482e-05,3.299956e-05,5,1
0.0001735102,3.251336e-05,5,1
0.0003600474,3.13789e-05,5,1
0.0005041235,3.105477e-05,5,1
0.0005832114,3.073064e-05,5,1
0.0005960147,3.267542e-05,5,1
0.0005592257,3.299956e-05,5,1
0.0004955341,3.024445e-05,5,1
0.0004243874,2.39239e-05,5,1
0.0003571303,1.744129e-05,5,1
0.0002979764,1.338965e-05,5,1
0.0002419018,1.419998e-05,5,1
0.0001757791,2.214118e-05,5,1
9.26396e-05,3.60788e-05,5,1
7.069105e-06,5.115087e-05,5,1
-6.180866e-05,6.168512e-05,5,1
-0.0001026491,6.427817e-05,5,1
-0.0001274451,5.909208e-05,5,1
-0.0001687718,5.034055e-05,5,1
-0.0002588801,3.802358e-05,5,1
-0.000402794,1.841368e-05,5,1
-0.0005826865,-8.002969e-06,5,1
-0.0007677651,-3.798505e-05,5,1
-0.0009309648,-5.986387e-05,5,1
-0.001054783,-6.44017e-05,5,1
-0.001133222,-4.997789e-05,5,1
-0.001176332,-2.777494e-05,5,1
-0.001188649,-1.367526e-05,5,1
-0.00116207,-1.950961e-05,5,1
-0.00106872,-4.754691e-05,5,1
-0.0008925553,-9.130454e-05,5,1
-0.0006562641,-0.0001357104,5,1
-0.0004185144,-0.0001684476,5,1
-0.0002358668,-0.0001844921,5,1
-0.0001170729,-0.0001849783,5,1
-2.647842e-05,-0.0001797922,5,1
7.448828e-05,-0.0001783336,5,1
0.0002023578,-0.0001836818,5,1
0.0003477304,-0.0002019951,5,1
0.0004709002,-0.0002277635,5,1
0.0005310264,-0.0002494803,5,1
0.0005117406,-0.0002501286,5,1
0.0004273046,-0.0002232257,5,1
0.0003128864,-0.0001775233,5,1
0.0002070577,-0.0001337657,5,1
0.0001380179,-0.0001081593,5,1
0.0001164632,-0.0001041077,5,1
0.0001391524,-0.0001107524,5,1
0.00019782,-0.000117235,5,1
0.0002916559,-0.0001173971,5,1
0.0004305459,-0.0001118868,5,1
0.0006219451,-0.0001024871,5,1
0.0008433265,-9.000802e-05,5,1
0.001042019,-7.282909e-05,5,1
0.001160489,-5.289507e-05,5,1
0.001174588,-3.409549e-05,5,1
0.001094528,-1.821308e-05,5,1
0.0009502898,-3.303076e-06,5,1
0.0007741245,1.582063e-05,5,1
0.0005995801,4.126489e-05,5,1
0.0004519385,6.849186e-05,5,1
0.0003315239,9.280167e-05,5,1
0.000222616,0.0001127357,5,1
0.0001116012,0.0001278078,5,1
-1.196227e-06,0.0001398006,5,1
-9.843541e-05,0.000145635,5,1
-0.0001632615,0.000145635,5,1
-0.0001904885,0.0001430419,5,1
-0.0001924333,0.0001428799,5,1
-0.000189192,0.0001479039,5,1
-0.0001969711,0.000155683,5,1
-0.00021415,0.0001628139,5,1
-0.0002256567,0.0001689724,5,1
-0.0002201465,0.0001762653,5,1
-0.000209126,0.0001816135,5,1
-0.0002151224,0.0001822617,5,1
-0.0002515871,0.0001756171,5,1
-0.0003081479,0.0001620036,5,1
-0.0003622777,0.0001449867,5,1
-0.0003982562,0.0001247285,5,1
-0.0004180282,0.0001067393,5,1
-0.0004339106,9.490851e-05,5,1
-0.0004593548,9.701536e-05,5,1
-0.0004985746,0.0001221355,5,1
-0.0005449253,0.0001650828,5,1
-0.0005907898,0.000207706,5,1
-0.0006296854,0.0002312055,5,1
-0.0006552918,0.0002313675,5,1
-0.0006595054,0.000217592,5,1
-0.0006387612,0.0002064095,5,1
-0.0005954896,0.0002090025,5,1
-0.0005379565,0.0002232643,5,1
-0.0004781544,0.0002344468,5,1
-0.0004253211,0.0002284504,5,1
-0.0003805911,0.0002034923,5,1
-0.0003358611,0.0001662173,5,1
-0.0002843243,0.0001257009,5,1
-0.0002272773,9.199134e-05,5,1
-0.0001797922,6.914012e-05,5,1
-0.0001596961,5.633696e-05,5,1
-0.0001741199,4.483033e-05,5,1
-0.0002099363,2.748934e-05,5,1
-0.0002480217,2.855407e-06,5,1
-0.0002708729,-2.46957e-05,5,1
-0.0002699005,-4.916756e-05,5,1
-0.0002451045,-6.780507e-05,5,1
-0.0002110708,-8.158062e-05,5,1
-0.0001818991,-9.114248e-05,5,1
-0.0001627754,-9.600444e-05,5,1
-0.0001524032,-9.875954e-05,5,1
-0.0001415448,-9.778715e-05,5,1
-0.0001217728,-9.389759e-05,5,1
-8.82253e-05,-9.389759e-05,5,1
-4.155049e-05,-0.000104756,5,1
1.436204e-05,-0.0001255003,5,1
6.897806e-05,-0.0001468929,5,1
0.0001075496,-0.0001647201,5,1
0.0001192183,-0.0001783336,5,1
0.0001065772,-0.0001938919,5,1
8.372601e-05,-0.0002154466,5,1
6.508849e-05,-0.0002433218,5,1
5.179914e-05,-0.0002744383,5,1
3.575467e-05,-0.000303286,5,1
1.355172e-05,-0.0003235441,5,1
-3.14101e-06,-0.0003318095,5,1
9.66215e-06,-0.0003313232,5,1
7.286763e-05,-0.000328244,5,1
0.0001863134,-0.0003246786,5,1
0.0003239069,-0.0003165753,5,1
0.0004504799,-0.0002992343,5,1
0.0005478812,-0.0002690902,5,1
0.0006195141,-0.0002272773,5,1
0.0006760749,-0.0001827094,5,1
0.0007229118,-0.0001431655,5,1
0.0007593766,-0.0001130213,5,1
0.0007786624,-9.065628e-05,5,1
0.0007812555,-7.461182e-05,5,1
0.0007835244,-6.294311e-05,5,1
0.0008026481,-5.111234e-05,5,1
0.0008485126,-3.911951e-05,5,1
0.0009157698,-2.696461e-05,5,1
0.0009799477,-1.562004e-05,5,1
0.001005068,-8.165035e-06,5,1
0.0009629308,-6.220252e-06,5,1
0.0008485126,-7.030578e-06,5,1
0.0006806127,-4.923729e-06,5,1
0.0004846757,3.827799e-06,5,1
0.0002858215,2.003433e-05,5,1
0.0001077117,4.223728e-05,5,1
-2.826114e-05,6.800567e-05,5,1
-0.0001083214,9.474644e-05,5,1
-0.0001373311,0.0001206769,5,1
-0.0001365208,0.0001453108,5,1
-0.0001248521,0.0001701068,5,1
-0.0001161005,0.0001976579,5,1
-0.0001199901,0.0002342847,5,1
-0.0001415448,0.0002877662,5,1
-0.0001721751,0.0003585888,5,1
-0.0001984297,0.0004292493,5,1
-0.0002133397,0.0004747897,5,1
-0.0002185258,0.0004759242,5,1
-0.0002159328,0.0004373526,5,1
-0.0002018331,0.0003778746,5,1
-0.0001712027,0.0003172622,5,1
-0.0001316588,0.0002689667,5,1
-0.0001065387,0.0002427121,5,1
-0.0001235555,0.0002370398,5,1
-0.0001964849,0.0002412535,5,1
-0.0003186821,0.0002467637,5,1
-0.0004585445,0.0002469258,5,1
-0.0005773384,0.0002372019,5,1
-0.0006476747,0.0002132162,5,1
-0.0006625847,0.0001762653,5,1
-0.0006405439,0.000130887,5,1
-0.0006149375,8.518459e-05,5,1
-0.0006039171,4.612685e-05,5,1
-0.0006078067,1.695509e-05,5,1
-0.0006180168,-3.858999e-07,5,1
-0.0006266062,-1.221667e-05,5,1
-0.0006306578,-2.372331e-05,5,1
-0.0006295234,-3.976777e-05,5,1
-0.0006244993,-6.099833e-05,5,1
-0.0006159099,-8.303922e-05,5,1
-0.0005985689,-0.0001076731,5,1
-0.0005598353,-0.0001376552,5,1
-0.0004810716,-0.0001703924,5,1
-0.00035304,-0.0001994021,5,1
-0.0001838438,-0.0002237119,5,1
8.365628e-06,-0.0002454286,5,1
0.0002013854,-0.0002642282,5,1
0.0003762539,-0.0002765452,5,1
0.0005159543,-0.000278652,5,1
0.000602011,-0.0002715212,5,1
0.0006305345,-0.0002580697,5,1
0.0006230795,-0.0002379736,5,1
0.0006115729,-0.0002083157,5,1
0.0006222692,-0.0001661787,5,1
0.0006749405,-0.0001110765,5,1
0.0007686144,-4.90055e-05,5,1
0.0008804395,8.689758e-06,5,1
0.000975572,5.050261e-05,5,1
0.001018033,6.589881e-05,5,1
0.0009763823,5.585077e-05,5,1
0.0008336026,2.992031e-05,5,1
0.0005987698,-2.238346e-07,5,1
0.0003146691,-2.664048e-05,5,1
3.802358e-05,-4.80331e-05,5,1
-0.0001802784,-6.731888e-05,5,1
-0.0002987481,-8.530812e-05,5,1
-0.0003015032,-0.0001003802,5,1
-0.0002110708,-0.0001071869,5,1
-7.218083e-05,-0.0001067007,5,1
6.525056e-05,-0.0001002181,5,1
0.0001602208,-9.049421e-05,5,1
0.0001880961,-7.833932e-05,5,1
0.0001542244,-6.731888e-05,5,1
8.923623e-05,-6.213279e-05,5,1
3.218923e-05,-6.553616e-05,5,1
8.203562e-06,-7.088431e-05,5,1
1.371378e-05,-7.137051e-05,5,1
2.230325e-05,-6.44017e-05,5,1
1.014835e-05,-4.625038e-05,5,1
-2.680255e-05,-1.383732e-05,5,1
-7.995997e-05,2.992031e-05,5,1
-0.0001287416,7.983644e-05,5,1
-0.0001606685,0.000125863,5,1
-0.0001731475,0.0001547106,5,1
-0.00016942,0.0001569795,5,1
-0.0001577513,0.000138342,5,1
-0.0001465688,0.0001070634,5,1
-0.0001407345,7.724339e-05,5,1
-0.0001302002,5.536457e-05,5,1
-0.0001002181,4.191315e-05,5,1
-5.500191e-05,3.526847e-05,5,1
-1.367526e-05,3.478228e-05,5,1
1.306552e-05,4.110282e-05,5,1
2.538249e-05,5.439218e-05,5,1
2.570662e-05,7.286763e-05,5,1
1.64689e-05,9.523264e-05,5,1
-2.238346e-07,0.0001164632,5,1
-2.210265e-05,0.0001338042,5,1
-4.80331e-05,0.0001504969,5,1
-7.898758e-05,0.0001668655,5,1
-0.0001186936,0.0001816135,5,1
-0.0001665028,0.0001919856,5,1
-0.0002185258,0.0001945787,5,1
-0.0002692523,0.0001931201,5,1
-0.0003126857,0.0001895547,5,1
-0.0003462333,0.0001885823,5,1
-0.000367788,0.0001893926,5,1
-0.0003817256,0.0001889064,5,1
-0.000397608,0.0001880961,5,1
-0.0004235384,0.0001900409,5,1
-0.0004583824,0.0001955511,5,1
-0.0004982505,0.0002025199,5,1
-0.0005348772,0.0002041406,5,1
-0.0005578905,0.0001940925,5,1
-0.0005617801,0.0001722137,5,1
-0.0005475183,0.000140773,5,1
-0.0005136467,0.0001041462,5,1
-0.0004600031,6.719535e-05,5,1
-0.0003956632,3.429608e-05,5,1
-0.000335699,5.286387e-06,5,1
-0.0002901587,-2.194059e-05,5,1
-0.0002535319,-4.80331e-05,5,1
-0.0002117191,-7.104638e-05,5,1
-0.0001428413,-8.919769e-05,5,1
-4.025397e-05,-0.0001007043,5,1
7.772959e-05,-0.0001055663,5,1
0.000180479,-0.000104918,5,1
0.0002477361,-0.0001050801,5,1
0.0002809595,-0.000117235,5,1
0.0002916559,-0.0001433275,5,1
0.000294573,-0.0001776853,5,1
0.0002953834,-0.0002123673,5,1
0.000294573,-0.0002376495,5,1
0.0002842008,-0.0002483458,5,1
0.0002634565,-0.0002478596,5,1
0.0002386605,-0.0002379736,5,1
0.0002219677,-0.0002204706,5,1
0.0002180782,-0.0002011848,5,1
0.0002211574,-0.0001833576,5,1
0.0002229401,-0.0001671511,5,1
0.0002172679,-0.0001496481,5,1
0.0001945787,-0.0001316588,5,1
0.0001461212,-0.0001185315,5,1
7.173317e-05,-0.0001118868,5,1
-1.643037e-05,-0.000112373,5,1
-9.892161e-05,-0.0001164247,5,1
-0.000159372,-0.0001256624,5,1
-0.0001872472,-0.000142031,5,1
-0.0001827094,-0.0001621271,5,1
-0.000161965,-0.0001784957,5,1
-0.0001536997,-0.0001814128,5,1
-0.0001746061,-0.0001665028,5,1
-0.000221443,-0.000137169,5,1
-0.0002697385,-0.0001002181,5,1
-0.0002997205,-6.569822e-05,5,1
-0.0002987481,-4.203669e-05,5,1
-0.0002640662,-2.939559e-05,5,1
-0.0002062088,-2.372331e-05,5,1
-0.0001412206,-2.113026e-05,5,1
-8.563225e-05,-1.902341e-05,5,1
-4.219875e-05,-2.161646e-05,5,1
-2.81688e-06,-2.988179e-05,5,1
4.936815e-05,-3.976777e-05,5,1
0.0001281319,-4.90055e-05,5,1
0.0002389846,-5.824322e-05,5,1
0.0003762539,-6.537409e-05,5,1
0.0005235714,-6.618442e-05,5,1
0.0006550064,-5.629844e-05,5,1
0.0007428459,-3.393342e-05,5,1
0.000772828,-4.437533e-06,5,1
0.0007365254,2.667901e-05,5,1
0.0006329655,5.601284e-05,5,1
0.000478031,8.534666e-05,5,1
0.0003054314,0.0001120874,5,1
0.000153252,0.0001336421,5,1
3.656499e-05,0.0001483901,5,1
-5.532604e-05,0.0001563313,5,1
-0.0001433275,0.0001608691,5,1
-0.0002308428,0.0001652449,5,1
-0.0003018274,0.0001738343,5,1
-0.0003353749,0.0001876099,5,1
-0.0003144685,0.000205275,5,1
-0.0002300324,0.0002240746,5,1
-8.82253e-05,0.0002396328,5,1
7.870197e-05,0.000250005,5,1
0.0002266676,0.0002579462,5,1
0.000324231,0.0002665357,5,1
0.0003658818,0.0002743149,5,1
0.0003741471,0.0002751252,5,1
0.0003707437,0.0002641047,5,1
0.0003631267,0.0002417397,5,1
0.0003448133,0.0002125679,5,1
0.000319369,0.0001856651,5,1
0.0003075383,0.0001652449,5,1
0.0003295791,0.0001522796,5,1
0.0003926226,0.0001423936,5,1
0.0004974789,0.0001316974,5,1
0.000636531,0.000113384,5,1
0.0007827141,8.729144e-05,5,1
0.000896322,5.876794e-05,5,1
0.0009412141,3.769945e-05,5,1
0.0009062079,2.667901e-05,5,1
0.0008083204,2.197911e-05,5,1
0.0006765611,1.711715e-05,5,1
0.0005376711,4.962256e-06,5,1
0.0004039671,-1.464765e-05,5,1
0.0002786906,-3.701266e-05,5,1
0.0001639484,-5.856735e-05,5,1
6.541262e-05,-8.109443e-05,5,1
-6.058186e-06,-0.0001044318,5,1
-3.928157e-05,-0.0001279313,5,1
-3.555408e-05,-0.0001499722,5,1
-1.682422e-06,-0.0001663408,5,1
4.709924e-05,-0.000174282,5,1
8.453633e-05,-0.0001736337,5,1
8.664318e-05,-0.0001695821,5,1
3.753739e-05,-0.0001676373,5,1
-6.180866e-05,-0.0001682856,5,1
-0.0001878955,-0.0001684476,5,1
-0.0003134961,-0.0001656925,5,1
-0.0004217557,-0.0001603444,5,1
-0.0005108916,-0.0001536997,5,1
-0.0005860899,-0.0001459206,5,1
-0.0006463782,-0.0001363587,5,1
-0.0006852738,-0.0001237176,5,1
-0.0007027769,-0.0001081593,5,1
-0.0007078009,-9.000802e-05,5,1
-0.0006992114,-6.699475e-05,5,1
-0.0006736051,-3.895745e-05,5,1
-0.0006327647,-7.678839e-06,5,1
-0.0005881967,2.39239e-05,5,1
-0.0005518941,5.439218e-05,5,1
-0.0005313118,8.259155e-05,5,1
-0.0005240189,0.0001062531,5,1
-0.00052175,0.0001216493,5,1
-0.000519319,0.0001268354,5,1
-0.000509595,0.0001268354,5,1
-0.0004828543,0.0001227837,5,1
-0.0004339106,0.0001167873,5,1
-0.0003681121,0.0001145184,5,1
-0.0003086341,0.0001232699,5,1
-0.0002789762,0.0001428799,5,1
-0.000288538,0.0001688103,5,1
-0.0003209511,0.000192796,5,1
-0.0003569296,0.0002033302,5,1
-0.0003810773,0.0001958752,5,1
-0.0003851289,0.0001699448,5,1
-0.0003715154,0.0001349386,5,1
-0.0003476919,0.0001056048,5,1
-0.0003198166,8.664318e-05,5,1
-0.0002932379,7.319176e-05,5,1
-0.0002720074,6.281957e-05,5,1
-0.0002622834,5.795762e-05,5,1
-0.000268766,6.055066e-05,5,1
-0.0002875656,6.654708e-05,5,1
-0.0003011791,6.930219e-05,5,1
-0.0002938862,6.735741e-05,5,1
-0.0002608248,6.217132e-05,5,1
-0.0002118811,5.682316e-05,5,1
-0.0001661787,4.839576e-05,5,1
-0.000137007,3.526847e-05,5,1
-0.000127283,1.906194e-05,5,1
-0.0001269589,1.720949e-06,5,1
-0.0001279313,-1.043395e-05,5,1
-0.0001289037,-1.513384e-05,5,1
-0.0001324691,-9.461558e-06,5,1
-0.0001418689,2.693341e-06,5,1
-0.0001493239,1.484824e-05,5,1
-0.0001465688,2.035846e-05,5,1
-0.0001293899,1.64689e-05,5,1
-0.0001050801,4.313994e-06,5,1
-8.563225e-05,-1.448558e-05,5,1
-8.125649e-05,-3.944364e-05,5,1
-9.017008e-05,-6.472583e-05,5,1
-9.616651e-05,-8.255302e-05,5,1
-8.125649e-05,-8.190475e-05,5,1
-3.441962e-05,-6.148453e-05,5,1
4.45062e-05,-2.907146e-05,5,1
0.0001315353,2.369211e-06,5,1
0.0001947408,1.727922e-05,5,1
0.0002124059,3.989864e-06,5,1
0.0001859892,-3.749886e-05,5,1
0.000143204,-9.503204e-05,5,1
0.0001167873,-0.0001506204,5,1
0.0001219734,-0.0001911368,5,1
0.0001524417,-0.0002128535,5,1
0.0001859892,-0.0002191741,5,1
0.0002059233,-0.0002201465,5,1
0.00021273,-0.000223874,5,1
0.0002203471,-0.0002319772,5,1
0.0002451431,-0.0002400805,5,1
0.0002939248,-0.0002434839,5,1
0.0003576164,-0.0002358668,5,1
0.0004217943,-0.0002118811,5,1
0.0004798138,-0.0001720131,5,1
0.000534754,-0.0001276072,5,1
0.0005984457,-8.952183e-05,5,1
0.0006723474,-6.051213e-05,5,1
0.0007402529,-4.219875e-05,5,1
0.0007833623,-3.766092e-05,5,1
0.0007906552,-4.268495e-05,5,1
0.0007635903,-5.046408e-05,5,1
0.0007075156,-5.678463e-05,5,1
0.0006349103,-5.613637e-05,5,1
0.0005527431,-4.738484e-05,5,1
0.0004568005,-3.393342e-05,5,1
0.0003428685,-2.210265e-05,5,1
0.0002187264,-1.950961e-05,5,1
0.0001096565,-2.809907e-05,5,1
3.850978e-05,-3.960571e-05,5,1
2.278944e-05,-4.689865e-05,5,1
6.622294e-05,-5.208474e-05,5,1
0.0001477418,-5.64605e-05,5,1
0.0002380122,-5.986387e-05,5,1
0.0003171001,-5.727083e-05,5,1
0.000381278,-4.398147e-05,5,1
0.0004360561,-1.707863e-05,5,1
0.0004948858,2.230325e-05,5,1
0.0005705704,6.703327e-05,5,1
0.0006669993,0.0001106288,5,1
0.0007734763,0.0001466074,5,1
0.0008580745,0.0001712413,5,1
0.0008831946,0.0001835583,5,1
0.0008327923,0.0001863134,5,1
0.0007191843,0.0001812893,5,1
0.0005759185,0.0001699448,5,1
0.0004302217,0.0001569795,5,1
0.0003007315,0.000145797,5,1
0.0002115956,0.0001389903,5,1
0.0001926339,0.0001399627,5,1
0.0002535705,0.0001521176,5,1
0.0003670162,0.0001702689,5,1
0.0004775448,0.0001876099,5,1
0.0005284334,0.0001984683,5,1
0.0004820827,0.0001989545,5,1
0.0003339549,0.0001893926,5,1
0.0001117633,0.0001759412,5,1
-0.0001412206,0.000168,5,1
-0.0003833462,0.0001720516,5,1
-0.0005830107,0.0001835583,5,1
-0.0007306521,0.0001918236,5,1
-0.0008366429,0.0001863134,5,1
-0.0009121653,0.0001616794,5,1
-0.0009666192,0.0001185701,5,1
-0.0009977358,6.314371e-05,5,1
-0.0009998425,6.420843e-06,5,1
-0.0009726156,-4.025397e-05,5,1
-0.0009246443,-6.991193e-05,5,1
-0.0008674352,-8.206682e-05,5,1
-0.0008086055,-7.850138e-05,5,1
-0.0007515585,-6.375344e-05,5,1
-0.0007034251,-4.041603e-05,5,1
-0.000668257,-9.461558e-06,5,1
-0.000643299,2.522042e-05,5,1
-0.0006248235,5.94162e-05,5,1
-0.0006058619,8.696731e-05,5,1
-0.0005847933,0.0001025256,5,1
-0.0005616181,0.0001065772,5,1
-0.0005280706,0.0001054428,5,1
-0.0004778303,0.0001020394,5,1
-0.0004194868,9.831188e-05,5,1
-0.0003741085,9.458438e-05,5,1
-0.0003540124,9.377406e-05,5,1
-0.0003609812,9.620504e-05,5,1
-0.0003932322,9.53947e-05,5,1
-0.0004386105,8.275361e-05,5,1
-0.0004831784,5.050261e-05,5,1
-0.0005157535,2.855407e-06,5,1
-0.0005339049,-4.819517e-05,5,1
-0.0005382806,-9.2439e-05,5,1
-0.0005340669,-0.000122097,5,1
-0.0005379565,-0.0001332795,5,1
-0.0005606457,-0.0001277692,5,1
-0.0005945173,-0.0001114006,5,1
-0.0006163961,-9.211487e-05,5,1
-0.0006055377,-7.574627e-05,5,1
-0.0005512458,-6.472583e-05,5,1
-0.0004624341,-5.743289e-05,5,1
-0.0003593606,-4.657452e-05,5,1
-0.000263742,-3.069211e-05,5,1
-0.0001823853,-1.3027e-05,5,1
-0.000107349,4.244267e-07,5,1
-2.680255e-05,8.041497e-06,5,1
7.384002e-05,9.986281e-06,5,1
0.0002065715,2.531276e-06,5,1
0.0003671783,-1.562004e-05,5,1
0.0005460985,-4.155049e-05,5,1
0.0007204809,-6.81292e-05,5,1
0.0008665019,-8.887356e-05,5,1
0.0009812443,-0.0001018388,5,1
0.00108448,-0.0001083214,5,1
0.001204246,-0.0001094559,5,1
0.00135205,-0.0001081593,5,1
0.00152465,-0.0001045939,5,1
0.001715564,-9.940781e-05,5,1
0.001911339,-9.584238e-05,5,1
0.002074864,-9.405965e-05,5,1
0.002155735,-9.438378e-05,5,1
0.002117487,-9.584238e-05,5,1
0.001957204,-0.0001003802,5,1
0.001702112,-0.0001084835,5,1
0.001391919,-0.0001195039,5,1
0.001067301,-0.0001295519,5,1
0.0007562974,-0.0001314967,5,1
0.0004720346,-0.0001209625,5,1
0.0002221298,-9.260107e-05,5,1
8.041497e-06,-4.787104e-05,5,1
-0.0001736337,6.096713e-06,5,1
-0.0003350507,5.633696e-05,5,1
-0.0004857715,9.458438e-05,5,1
-0.0006277406,0.0001192183,5,1
-0.0007590136,0.0001294284,5,1
-0.0008687317,0.0001271595,5,1
-0.0009458748,0.0001141943,5,1
-0.0009805568,9.620504e-05,5,1
-0.0009813671,8.097089e-05,5,1
-0.0009667812,7.173317e-05,5,1
-0.0009505748,6.589881e-05,5,1
-0.0009332337,6.330578e-05,5,1
-0.0009094102,6.687121e-05,5,1
-0.0008724593,7.351589e-05,5,1
-0.000814602,7.853991e-05,5,1
-0.0007321107,7.821578e-05,5,1
-0.000631144,7.027458e-05,5,1
-0.0005283947,6.168512e-05,5,1
-0.0004468758,5.828175e-05,5,1
-0.0003995528,6.930219e-05,5,1
-0.0003791325,9.68533e-05,5,1
-0.0003640605,0.000133318,5,1
-0.0003378059,0.0001628139,5,1
-0.0002971275,0.000173024,5,1
-0.0002434839,0.0001636242,5,1
-0.0001789819,0.0001417454,5,1
-0.0001070249,0.0001150046,5,1
-3.393342e-05,8.242948e-05,5,1
2.359977e-05,4.483033e-05,5,1
5.358185e-05,6.582909e-06,5,1
6.055066e-05,-2.7937e-05,5,1
6.962632e-05,-5.629844e-05,5,1
0.0001088461,-7.931171e-05,5,1
0.0001833962,-9.584238e-05,5,1
0.0002760976,-0.0001055663,5,1
0.0003602095,-0.0001120489,5,1
0.0004154738,-0.0001216107,5,1
0.0004371906,-0.0001405724,5,1
0.0004245494,-0.0001626133,5,1
0.0003717161,-0.0001731475,5,1
0.0002691288,-0.0001652063,5,1
0.0001200286,-0.0001394379,5,1
-5.872941e-05,-0.0001041077,5,1
-0.0002327876,-6.667062e-05,5,1
-0.0003666535,-3.360929e-05,5,1
-0.0004387725,-1.189254e-05,5,1
-0.000444769,-9.947754e-06,5,1
-0.0003948528,-2.388537e-05,5,1
-0.0003146305,-4.770897e-05,5,1
-0.0002384598,-6.926366e-05,5,1
-0.0001955125,-7.931171e-05,5,1
-0.0001914609,-7.736692e-05,5,1
-0.0002138259,-6.893953e-05,5,1
-0.0002472114,-5.921561e-05,5,1
-0.0002856209,-5.581224e-05,5,1
-0.0003292164,-6.148453e-05,5,1
-0.0003783222,-7.153257e-05,5,1
-0.0004292107,-7.056019e-05,5,1
-0.0004731304,-4.722278e-05,5,1
-0.0005029504,-2.330684e-06,5,1
-0.0005136467,4.920609e-05,5,1
-0.0005018159,8.79397e-05,5,1
-0.0004617858,0.0001000946,5,1
-0.0003940425,8.518459e-05,5,1
-0.0003049066,5.374392e-05,5,1
-0.0002029675,2.214118e-05,5,1
-0.0001013526,3.017472e-06,5,1
-1.578211e-05,9.106227e-07,5,1
4.547859e-05,1.12828e-05,5,1
9.717743e-05,2.538249e-05,5,1
0.0001657311,3.575467e-05,5,1
0.0002723701,3.753739e-05,5,1
0.0004169324,2.894792e-05,5,1
0.0005789978,8.203562e-06,5,1
0.0007250187,-2.275091e-05,5,1
0.0008193408,-5.678463e-05,5,1
0.0008417058,-8.222889e-05,5,1
0.0007958413,-9.681477e-05,5,1
0.0007041123,-9.973194e-05,5,1
0.0006012007,-9.632857e-05,5,1
0.0005159543,-8.741498e-05,5,1
0.0004626348,-7.23429e-05,5,1
0.000443349,-4.722278e-05,5,1
0.0004397836,-1.075808e-05,5,1
0.0004264942,3.397195e-05,5,1
0.0003884089,8.016057e-05,5,1
0.0003274723,0.0001226217,5,1
0.0002553532,0.000158114,5,1
0.0001887444,0.000190365,5,1
0.000130725,0.0002227781,5,1
8.242948e-05,0.0002535705,5,1
4.013043e-05,0.0002780424,5,1
3.341602e-06,0.0002869559,5,1
-2.664048e-05,0.0002718839,5,1
-5.419158e-05,0.0002381743,5,1
-8.709085e-05,0.0001949028,5,1
-0.0001339277,0.0001509831,5,1
-0.0001935677,0.0001161391,5,1
-0.0002549905,9.280167e-05,5,1
-0.000303286,7.772959e-05,5,1
-0.0003251648,6.768154e-05,5,1
-0.0003147926,5.730935e-05,5,1
-0.0002763831,4.385793e-05,5,1
-0.0002303566,2.894792e-05,5,1
-0.0002034537,1.484824e-05,5,1
-0.0002130156,4.638125e-06,5,1
-0.000258718,-1.358292e-06,5,1
-0.000320789,-3.14101e-06,5,1
-0.0003762153,-1.358292e-06,5,1
-0.0004097628,-6.176923e-08,5,1
-0.000419973,-1.034161e-06,5,1
-0.0004121938,-4.113403e-06,5,1
-0.0003984183,-9.623623e-06,5,1
-0.0003895047,-1.67545e-05,5,1
-0.0003872358,-2.194059e-05,5,1
-0.000377836,-2.275091e-05,5,1
-0.0003335922,-2.145439e-05,5,1
-0.0002290601,-2.09682e-05,5,1
-6.569822e-05,-2.307504e-05,5,1
0.0001222976,-2.388537e-05,5,1
0.0002850112,-1.983374e-05,5,1
0.0003875985,-1.578211e-05,5,1
0.000428277,-1.464765e-05,5,1
0.0004286011,-1.740276e-05,5,1
0.0004179048,-2.583016e-05,5,1
0.0004177427,-3.863332e-05,5,1
0.0004386491,-5.419158e-05,5,1
0.0004773828,-6.81292e-05,5,1
0.0005242196,-7.574627e-05,5,1
0.0005733255,-7.33153e-05,5,1
0.0006187038,-6.261898e-05,5,1
0.0006517651,-5.013995e-05,5,1
0.0006584098,-4.074016e-05,5,1
0.0006247002,-3.863332e-05,5,1
0.0005519328,-4.544006e-05,5,1
0.0004563143,-6.342931e-05,5,1
0.0003668542,-9.146661e-05,5,1
0.0003075383,-0.0001280934,5,1
0.0002791768,-0.0001690959,5,1
0.0002723701,-0.0002122053,5,1
0.0002628082,-0.0002540181,5,1
0.000227478,-0.0002878898,5,1
0.0001626518,-0.0003023136,5,1
7.983644e-05,-0.0002964792,5,1
3.503668e-06,-0.0002742763,5,1
-4.965376e-05,-0.0002423494,5,1
-7.60704e-05,-0.0002029675,5,1
-8.174268e-05,-0.0001580754,5,1
-7.752899e-05,-0.0001117248,5,1
-7.850138e-05,-7.153257e-05,5,1
-0.0001000561,-4.527799e-05,5,1
-0.000152079,-3.571614e-05,5,1
-0.0002279256,-3.668853e-05,5,1
-0.0002997205,-4.138842e-05,5,1
-0.0003285682,-3.830919e-05,5,1
-0.0002852967,-1.853722e-05,5,1
-0.000174282,2.052053e-05,5,1
-2.988179e-05,7.513654e-05,5,1
9.733949e-05,0.0001336421,5,1
0.0001650828,0.0001850168,5,1
0.0001603829,0.000225047,5,1
9.63671e-05,0.0002529222,5,1
1.883015e-06,0.0002704253,5,1
-9.519411e-05,0.0002786906,5,1
-0.0001731475,0.0002778803,5,1
-0.0002194982,0.0002707494,5,1
-0.0002274394,0.0002600531,5,1
-0.0001945401,0.0002517878,5,1
-0.0001349001,0.0002485465,5,1
-7.088431e-05,0.0002517878,5,1
-2.7937e-05,0.0002603772,5,1
-1.643037e-05,0.0002712356,5,1
-2.615429e-05,0.0002812837,5,1
-3.506788e-05,0.0002872801,5,1
-2.696461e-05,0.0002882525,5,1
2.207145e-06,0.0002856594,5,1
5.19612e-05,0.0002793389,5,1
0.0001154908,0.0002694529,5,1
0.000173024,0.0002543808,5,1
0.000200251,0.0002336365,5,1
0.0001761032,0.0002078681,5,1
0.0001020394,0.0001814514,5,1
4.313994e-06,0.0001550348,5,1
-8.07703e-05,0.0001304008,5,1
-0.0001293899,0.0001107909,5,1
-0.0001327933,9.782569e-05,5,1
-0.0001037836,8.502253e-05,5,1
-6.650855e-05,6.606088e-05,5,1
-5.159854e-05,3.316162e-05,5,1
-8.725291e-05,-1.853722e-05,5,1
-0.0001716889,-8.368748e-05,5,1
-0.0002812451,-0.0001447861,5,1
-0.0003893426,-0.0001838438,5,1
-0.0004815578,-0.0001956746,5,1
-0.0005554595,-0.000186761,5,1
-0.0006116962,-0.0001674752,5,1
-0.0006548056,-0.0001501342,5,1
-0.0006915944,-0.0001400862,5,1
-0.0007296797,-0.0001431655,5,1
-0.0007693857,-0.000159534,5,1
-0.0008006644,-0.0001846542,5,1
-0.0008150881,-0.0002107467,5,1
-0.0008013126,-0.0002254946,5,1
-0.0007509103,-0.0002241981,5,1
-0.0006669604,-0.0002052365,5,1
-0.0005677765,-0.000176875,5,1
-0.0004729683,-0.0001480274,5,1
-0.000395339,-0.0001258245,5,1
-0.000333106,-0.0001131834,5,1
-0.0002749245,-0.0001083214,5,1
-0.0002092881,-0.0001039456,5,1
-0.0001280934,-9.762509e-05,5,1
-2.291298e-05,-9.000802e-05,5,1
0.0001077117,-8.287715e-05,5,1
0.0002662116,-7.785312e-05,5,1
0.0004498317,-7.444975e-05,5,1
0.0006485239,-6.893953e-05,5,1
0.0008506195,-5.710876e-05,5,1
0.001047691,-4.155049e-05,5,1
0.001228718,-2.84232e-05,5,1
0.00137555,-2.42095e-05,5,1
0.001471817,-3.231277e-05,5,1
0.001505689,-4.981582e-05,5,1
0.001474896,-6.942573e-05,5,1
0.001388191,-8.709085e-05,5,1
0.001253839,-0.0001008664,5,1
0.001077511,-0.000104918,5,1
0.0008674743,-9.908367e-05,5,1
0.0006460929,-8.579432e-05,5,1
0.0004415663,-6.731888e-05,5,1
0.0002749631,-4.155049e-05,5,1
0.0001475797,-8.813297e-06,5,1
4.402e-05,2.408596e-05,5,1
-5.095028e-05,5.163707e-05,5,1
-0.0001418689,7.043665e-05,5,1
-0.0002219292,7.886404e-05,5,1
-0.0002757348,7.562274e-05,5,1
-0.0002955068,6.589881e-05,5,1
-0.0002854588,5.844381e-05,5,1
-0.0002598524,5.56887e-05,5,1
-0.0002276015,5.682316e-05,5,1
-0.0002013469,6.152305e-05,5,1
-0.0001914609,7.221937e-05,5,1
-0.0002021572,8.680524e-05,5,1
-0.0002274394,0.0001007429,5,1
-0.0002530457,0.0001096565,5,1
-0.0002655248,0.000113546,5,1
-0.0002582318,0.0001179218,5,1
-0.0002358668,0.0001278078,5,1
-0.0002130156,0.0001425557,5,1
-0.0002057227,0.0001600588,5,1
-0.0002144742,0.000177886,5,1
-0.0002326255,0.0001950649,5,1
-0.0002501286,0.0002081922,5,1
-0.0002647144,0.0002115956,5,1
-0.0002809209,0.0002017096,5,1
-0.0003055549,0.0001811273,5,1
-0.0003421817,0.0001563313,5,1
-0.0003938804,0.000135911,5,1
-0.0004541688,0.000121001,5,1
-0.000514295,0.0001086841,5,1
-0.0005632387,9.361199e-05,5,1
-0.0005856037,7.562274e-05,5,1
-0.0005724764,5.406805e-05,5,1
-0.0005249913,3.510641e-05,5,1
-0.0004549791,2.214118e-05,5,1
-0.0003801049,1.808955e-05,5,1
-0.000315765,1.695509e-05,5,1
-0.0002771934,1.452411e-05,5,1
-0.0002742763,9.338019e-06,5,1
-0.0003144685,1.883015e-06,5,1
-0.0003925839,-8.327101e-06,5,1
-0.0004773441,-1.853722e-05,5,1
-0.0005340669,-2.647842e-05,5,1
-0.0005408737,-3.312309e-05,5,1
-0.0004909576,-4.365734e-05,5,1
-0.0003859393,-6.083626e-05,5,1
-0.0002429977,-8.093236e-05,5,1
-8.984595e-05,-9.924574e-05,5,1
4.580272e-05,-0.0001143178,5,1
0.0001548727,-0.0001263107,5,1
0.0002453052,-0.0001386276,5,1
0.0003261758,-0.000151917,5,1
0.0003976466,-0.0001650443,5,1
0.0004546936,-0.0001770371,5,1
0.0004914824,-0.0001869231,5,1
0.0005110924,-0.0001961608,5,1
0.0005204921,-0.0002021572,5,1
0.0005276231,-0.0002078295,5,1
0.0005319988,-0.0002152845,5,1
0.0005170888,-0.0002271153,5,1
0.0004642555,-0.0002446183,5,1
0.0003671783,-0.0002629317,5,1
0.000237526,-0.0002731418,5,1
9.944634e-05,-0.0002703867,5,1
-1.821308e-05,-0.0002551526,5,1
-9.519411e-05,-0.0002347323,5,1
-0.0001141558,-0.0002156086,5,1
-6.537409e-05,-0.0001998883,5,1
4.158902e-05,-0.0001854645,5,1
0.0001731861,-0.0001660166,5,1
0.0002877662,-0.0001349001,5,1
0.0003571303,-9.114248e-05,5,1
0.0003744712,-4.122636e-05,5,1
0.0003475684,9.338019e-06,5,1
0.0002887387,6.022653e-05,5,1
0.0002239125,0.0001088461,5,1
0.0001788584,0.0001537382,5,1
0.0001678379,0.000192796,5,1
0.0001882582,0.0002289366,5,1
0.0002290986,0.0002624841,5,1
0.0002788527,0.0002848491,5,1
0.0003235827,0.0002877662,5,1
0.0003556717,0.0002663737,5,1
0.0003790091,0.0002245608,5,1
0.0003987811,0.0001761032,5,1
0.0004138531,0.0001396385,5,1
0.0004187151,0.0001266733,5,1
0.0004039671,0.0001318594,5,1
0.0003707437,0.0001410971,5,1
0.0003258516,0.0001422316,5,1
0.0002782044,0.0001354248,5,1
0.0002417397,0.0001222976,5,1
0.0002214815,0.0001064152,5,1
0.0002085163,9.328786e-05,5,1
0.0001846927,8.534666e-05,5,1
0.0001363972,7.983644e-05,5,1
5.795762e-05,7.124698e-05,5,1
-4.608832e-05,5.811968e-05,5,1
-0.0001611547,4.77475e-05,5,1
-0.0002729798,4.855783e-05,5,1
-0.0003664914,6.78436e-05,5,1
-0.0004363416,0.000101067,5,1
-0.0004847991,0.0001365593,5,1
-0.0005270981,0.0001603829,5,1
-0.000574097,0.000168,5,1
-0.0006232028,0.0001620036,5,1
-0.000665826,0.0001500107,5,1
-0.0006948357,0.0001385041,5,1
-0.0007026148,0.0001316974,5,1
-0.0006817085,0.000130725,5,1
-0.0006269303,0.00013818,5,1
-0.0005446012,0.0001543865,5,1
-0.0004530343,0.0001764274,5,1
-0.0003767015,0.000195389,5,1
-0.0003348887,0.000200251,5,1
-0.0003272716,0.0001835583,5,1
-0.0003386162,0.0001453108,5,1
-0.0003494746,9.31258e-05,5,1
-0.000335537,3.786152e-05,5,1
-0.0002831898,-1.140634e-05,5,1
-0.0001870851,-5.354332e-05,5,1
-4.965376e-05,-8.660465e-05,5,1
0.0001172735,-0.0001041077,5,1
0.0002905214,-0.0001071869,5,1
0.0004391353,-0.0001026491,5,1
0.0005328091,-0.0001008664,5,1
0.0005535535,-0.0001096179,5,1
0.0005065545,-0.0001298761,5,1
0.0004211461,-0.0001572651,5,1
0.0003324963,-0.0001854645,5,1
0.0002615117,-0.0002110708,5,1
0.0002109473,-0.0002319772,5,1
0.0001795066,-0.0002475355,5,1
0.0001611932,-0.000258718,5,1
0.000143204,-0.0002653627,5,1
0.0001070634,-0.0002622834,5,1
4.612685e-05,-0.0002447804,5,1
-3.393342e-05,-0.0002086398,5,1
-0.0001204763,-0.0001608306,5,1
-0.0001989159,-0.0001180453,5,1
-0.0002627696,-9.049421e-05,5,1
-0.0003134961,-8.044617e-05,5,1
-0.0003549848,-8.336335e-05,5,1
-0.0003791325,-9.017008e-05,5,1
-0.0003616295,-9.324933e-05,5,1
-0.0002872415,-9.179074e-05,5,1
-0.0001762268,-8.433573e-05,5,1
-6.81292e-05,-6.893953e-05,5,1
3.665733e-06,-4.641245e-05,5,1
2.39239e-05,-2.534396e-05,5,1
-2.978945e-06,-1.173047e-05,5,1
-5.532604e-05,-6.220252e-06,5,1
-0.0001110765,-5.247859e-06,5,1
-0.0001624512,-5.409925e-06,5,1
-0.0002135018,-3.303076e-06,5,1
-0.0002588801,9.106227e-07,5,1
-0.0002877277,6.744974e-06,5,1
-0.0002882139,9.500085e-06,5,1
-0.0002535319,9.824215e-06,5,1
-0.0001849783,8.203562e-06,5,1
-8.660465e-05,3.179537e-06,5,1
4.418206e-05,-1.358292e-06,5,1
0.0002161334,4.244267e-07,5,1
0.0004269804,1.54965e-05,5,1
0.000646417,4.645098e-05,5,1
0.0008318199,8.518459e-05,5,1
0.0009603378,0.0001201907,5,1
0.001033105,0.0001446626,5,1
0.001069408,0.0001603829,5,1
0.001087235,0.0001723757,5,1
0.001101497,0.000187934,5,1
0.001119648,0.0002088404,5,1
0.001153196,0.0002347709,5,1
0.001221263,0.0002631324,5,1
0.001343785,0.0002892249,5,1
0.00151833,0.0003077003,5,1
0.001707298,0.0003120761,5,1
0.001854292,0.0003012177,5,1
0.001902101,0.0002773941,5,1
0.00180081,0.0002495189,5,1
0.001521085,0.000222616,5,1
0.001073622,0.0001992786,5,1
0.0005216266,0.0001767515,5,1
-3.701266e-05,0.000150659,5,1
-0.0005014918,0.000113384,5,1
-0.0008058504,6.589881e-05,5,1
-0.0009403646,1.760335e-05,5,1
-0.000941499,-1.837515e-05,5,1
-0.0008658146,-3.231277e-05,5,1
-0.0007732753,-2.728874e-05,5,1
-0.0007099077,-1.432352e-05,5,1
-0.0007034251,-5.734056e-06,5,1
-0.0007591756,-6.706447e-06,5,1
-0.0008633836,-1.805102e-05,5,1
-0.0009883359,-3.68506e-05,5,1
-0.001104051,-5.581224e-05,5,1
-0.001181032,-6.780507e-05,5,1
-0.001203721,-6.81292e-05,5,1
-0.001170497,-5.500191e-05,5,1
-0.001099837,-2.566809e-05,5,1
-0.001018156,1.338965e-05,5,1
-0.0009478196,4.839576e-05,5,1
-0.000894176,6.735741e-05,5,1
-0.0008522011,6.654708e-05,5,1
-0.0008086055,4.82337e-05,5,1
-0.0007492896,1.484824e-05,5,1
-0.0006702017,-2.761287e-05,5,1
-0.0005663179,-7.023606e-05,5,1
-0.0004415277,-0.0001037836,5,1
-0.0003073376,-0.0001274451,5,1
-0.0001848162,-0.0001464067,5,1
-9.098041e-05,-0.000166827,5,1
-3.766092e-05,-0.0001914609,5,1
-3.004385e-05,-0.0002211189,5,1
-6.748094e-05,-0.0002515871,5,1
-0.0001434896,-0.0002794623,5,1
-0.0002588801,-0.0002995585,5,1
-0.0004170558,-0.0003084721,5,1
-0.0006021344,-0.0003065273,5,1
-0.0007771649,-0.0002917793,5,1
-0.0009019551,-0.0002666592,5,1
-0.0009369612,-0.0002358668,5,1
-0.0008637077,-0.0002063709,5,1
-0.0006919185,-0.0001885437,5,1
-0.0004567618,-0.0001844921,5,1
-0.0002078295,-0.0001888679,5,1
5.448452e-06,-0.0001898403,5,1
0.0001529279,-0.0001713648,5,1
0.0002271538,-0.0001298761,5,1
0.0002401191,-7.363943e-05,5,1
0.0002179161,-2.0482e-05,5,1
0.0001902029,1.533444e-05,5,1
0.0001749688,2.927205e-05,5,1
0.0001741585,2.76514e-05,5,1
0.0001819376,2.34377e-05,5,1
0.0001971717,2.748934e-05,5,1
0.0002232643,4.061663e-05,5,1
0.0002561635,5.957827e-05,5,1
0.0002905214,8.113296e-05,5,1
0.0003282826,0.0001041462,5,1
0.0003811159,0.000123432,5,1
0.0004441593,0.0001398006,5,1
0.0005029891,0.000158114,5,1
0.00053994,0.0001830721,5,1
0.0005402642,0.0002119197,5,1
0.000500234,0.0002372019,5,1
0.0004273046,0.0002525981,5,1
0.0003286068,0.0002568118,5,1
0.0002137024,0.0002508154,5,1
0.0001022015,0.0002380122,5,1
2.214118e-05,0.0002187264,5,1
2.207145e-06,0.0001979821,5,1
5.423012e-05,0.0001845306,5,1
0.0001636242,0.0001908512,5,1
0.0002853353,0.0002211574,5,1
0.0003773884,0.0002645909,5,1
0.0004149876,0.0003018659,5,1
0.0003957018,0.000319207,5,1
0.000331848,0.0003099692,5,1
0.0002410915,0.0002783665,5,1
0.0001422316,0.000237526,5,1
4.839576e-05,0.0002017096,5,1
-3.182657e-05,0.0001819376,5,1
-9.081835e-05,0.0001777239,5,1
-0.0001203142,0.000180479,5,1
-0.0001165867,0.0001791825,5,1
-8.239095e-05,0.0001671896,5,1
-2.826114e-05,0.0001490383,5,1
3.429608e-05,0.0001261871,5,1
8.810177e-05,9.993253e-05,5,1
0.0001188942,7.140904e-05,5,1
0.0001166253,4.418206e-05,5,1
8.599492e-05,2.39239e-05,5,1
3.834771e-05,8.365628e-06,5,1
-1.318906e-05,-8.975362e-06,5,1
-5.046408e-05,-3.247483e-05,5,1
-6.81292e-05,-5.856735e-05,5,1
-7.266703e-05,-8.271508e-05,5,1
-7.704279e-05,-0.0001029732,5,1
-9.454585e-05,-0.0001175591,5,1
-0.0001266348,-0.000129714,5,1
-0.0001655305,-0.0001454344,5,1
-0.0001995642,-0.0001666649,5,1
-0.0002222533,-0.0001888679,5,1
-0.0002331117,-0.0002078295,5,1
-0.0002287359,-0.000221443,5,1
-0.0002112329,-0.0002300324,5,1
-0.0001870851,-0.0002327876,5,1
-0.000166989,-0.0002241981,5,1
-0.0001618029,-0.0002037779,5,1
-0.0001762268,-0.0001799543,5,1
-0.000199078,-0.0001624512,5,1
-0.000204102,-0.000159534,5,1
-0.0001661787,-0.0001760647,5,1
-7.542214e-05,-0.000209126,5,1
6.346784e-05,-0.0002467252,5,1
0.000230071,-0.000278652,5,1
0.000393595,-0.0003000446,5,1
0.0005242196,-0.0003118754,5,1
0.0006007145,-0.0003126857,5,1
0.000616597,-0.0002998826,5,1
0.00057446,-0.0002741142,5,1
0.0004895377,-0.0002400805,5,1
0.0003835469,-0.0002047502,5,1
0.0002825802,-0.0001734716,5,1
0.000202682,-0.0001442999,5,1
0.0001406109,-0.0001105903,5,1
8.550872e-05,-7.23429e-05,5,1
2.910999e-05,-3.587821e-05,5,1
-2.631635e-05,-9.785688e-06,5,1
-6.39155e-05,2.04508e-06,5,1
-6.245691e-05,1.234753e-06,5,1
-1.788895e-05,-6.058186e-06,5,1
4.888196e-05,-5.89612e-06,5,1
0.0001002567,9.986281e-06,5,1
0.0001047945,4.126489e-05,5,1
5.374392e-05,8.210535e-05,5,1
-2.84232e-05,0.0001156529,5,1
-9.940781e-05,0.0001297526,5,1
-0.0001238797,0.0001200286,5,1
-9.227693e-05,9.377406e-05,5,1
-2.307504e-05,6.395404e-05,5,1
4.969229e-05,3.769945e-05,5,1
9.31258e-05,1.776542e-05,5,1
9.296373e-05,4.313994e-06,5,1
5.601284e-05,-5.247859e-06,5,1
8.041497e-06,-1.027188e-05,5,1
-2.161646e-05,-9.785688e-06,5,1
-1.416145e-05,-2.330684e-06,5,1
2.748934e-05,1.387585e-05,5,1
8.518459e-05,3.883391e-05,5,1
0.0001368834,7.108491e-05,5,1
0.0001694586,0.0001064152,5,1
0.0001817755,0.0001402868,5,1
0.000185341,0.0001678379,5,1
0.0001981441,0.0001887444,5,1
0.0002303951,0.0002041406,5,1
0.0002735045,0.0002154851,5,1
0.0003114278,0.0002240746,5,1
0.0003310377,0.0002282883,5,1
0.0003229345,0.0002294227,5,1
0.000287118,0.0002297469,5,1
0.0002388225,0.0002354192,5,1
0.0001970097,0.0002472499,5,1
0.0001710792,0.0002605393,5,1
0.000165569,0.0002670219,5,1
0.0001803169,0.0002626462,5,1
0.0002049509,0.0002467637,5,1
0.000230071,0.000225209,5,1
0.0002470879,0.0002017096,5,1
0.0002490327,0.0001762653,5,1
0.0002219677,0.0001475797,5,1
0.0001514693,0.0001190562,5,1
3.251336e-05,9.604298e-05,5,1
-0.0001214487,8.145709e-05,5,1
-0.0002929138,7.367795e-05,5,1
-0.0004585445,6.768154e-05,5,1
-0.0005920863,5.601284e-05,5,1
-0.0006771705,3.478228e-05,5,1
-0.0007112043,5.610517e-06,5,1
-0.0007029389,-2.437157e-05,5,1
-0.0006604778,-5.435365e-05,5,1
-0.0005881967,-8.222889e-05,5,1
-0.0004882024,-0.0001086455,5,1
-0.0003708672,-0.0001357104,5,1
-0.000258718,-0.000159372,5,1
-0.0001778474,-0.0001739578,5,1
-0.0001426792,-0.0001799543,5,1
-0.0001493239,-0.0001807646,5,1
-0.0001836818,-0.0001810887,5,1
-0.0002306807,-0.0001846542,5,1
-0.0002682799,-0.0001945401,5,1
-0.000276221,-0.0002055606,5,1
-0.0002421874,-0.0002076674,5,1
-0.0001663408,-0.0001947022,5,1
-6.180866e-05,-0.000166827,5,1
6.492643e-05,-0.0001300382,5,1
0.000210137,-9.681477e-05,5,1
0.0003637749,-7.493595e-05,5,1
0.0005065545,-6.683268e-05,5,1
0.0006281036,-6.748094e-05,5,1
0.0007245325,-7.526008e-05,5,1
0.0008031343,-8.433573e-05,5,1
0.0008684467,-9.227693e-05,5,1
0.0009191732,-9.584238e-05,5,1
0.0009493173,-9.616651e-05,5,1
0.0009504518,-9.859748e-05,5,1
0.000923873,-0.0001029732,5,1
0.000876712,-0.000104918,5,1
0.0008118858,-9.811128e-05,5,1
0.0007271256,-8.287715e-05,5,1
0.0006238899,-6.278104e-05,5,1
0.0005029891,-4.041603e-05,5,1
0.0003681507,-2.339918e-05,5,1
0.0002231022,-1.140634e-05,5,1
7.400208e-05,-1.682422e-06,5,1
-6.845333e-05,9.013889e-06,5,1
-0.000189192,2.408596e-05,5,1
-0.0002805968,4.191315e-05,5,1
-0.0003446126,6.168512e-05,5,1
-0.0003864254,7.90261e-05,5,1
-0.000402632,9.280167e-05,5,1
-0.0003898288,9.912221e-05,5,1
-0.0003535262,9.814982e-05,5,1
-0.0003040963,9.377406e-05,5,1
-0.0002559629,8.712937e-05,5,1
-0.0002280877,8.194328e-05,5,1
-0.0002337599,7.935024e-05,5,1
-0.0002768693,8.534666e-05,5,1
-0.0003493125,0.000101067,5,1
-0.0004462276,0.0001232699,5,1
-0.000571342,0.0001469315,5,1
-0.0007269246,0.0001689724,5,1
-0.000904224,0.0001863134,5,1
-0.001084441,0.0001981441,5,1
-0.001235648,0.0002054371,5,1
-0.001321866,0.0002138645,5,1
-0.001312467,0.0002292607,5,1
-0.001192376,0.0002504913,5,1
-0.0009718052,0.0002739907,5,1
-0.0006878669,0.000289549,5,1
-0.0004023079,0.000289549,5,1
-0.0001762268,0.0002728562,5,1
-4.236082e-05,0.0002393087,5,1
3.017472e-06,0.0001932822,5,1
-9.623623e-06,0.0001404489,5,1
-4.025397e-05,8.956036e-05,5,1
-6.553616e-05,4.790957e-05,5,1
-7.590833e-05,1.501031e-05,5,1
-7.250496e-05,-1.237873e-05,5,1
-6.715681e-05,-3.425755e-05,5,1
-7.493595e-05,-4.754691e-05,5,1
-9.875954e-05,-5.062615e-05,5,1
-0.0001216107,-4.38194e-05,5,1
-0.0001195039,-3.053005e-05,5,1
-8.336335e-05,-1.513384e-05,5,1
-1.853722e-05,-8.720959e-07,5,1
5.585077e-05,7.555301e-06,5,1
0.0001240803,9.175954e-06,5,1
0.0001819376,6.096713e-06,5,1
0.0002321778,1.002961e-07,5,1
0.000272208,-6.544382e-06,5,1
0.0002992729,-1.707863e-05,5,1
0.0003114278,-3.749886e-05,5,1
0.0003057555,-6.586029e-05,5,1
0.0002814457,-9.762509e-05,5,1
0.0002525981,-0.0001293899,5,1
0.0002384984,-0.0001546721,5,1
0.0002454672,-0.0001674752,5,1
0.0002615117,-0.0001656925,5,1
0.0002728562,-0.0001554824,5,1
0.0002720459,-0.0001439758,5,1
0.0002537325,-0.0001336036,5,1
0.0002085163,-0.0001284175,5,1
0.0001265113,-0.0001290658,5,1
1.1769e-05,-0.0001352242,5,1
-0.00010978,-0.0001436516,5,1
-0.0002031296,-0.0001506204,5,1
-0.0002480217,-0.0001551583,5,1
-0.0002522354,-0.0001613168,5,1
-0.0002455907,-0.0001712027,5,1
-0.0002653627,-0.0001869231,5,1
-0.0003379679,-0.0002026434,5,1
-0.000462272,-0.0002110708,5,1
-0.0005984068,-0.0002028055,5,1
-0.0006971046,-0.0001752544,5,1
-0.0007288694,-0.0001376552,5,1
-0.0006990494,-9.989401e-05,5,1
-0.0006348715,-6.796714e-05,5,1
-0.0005630766,-4.236082e-05,5,1
-0.0004959816,-2.388537e-05,5,1
-0.00042759,-1.043395e-05,5,1
-0.0003463953,2.623614e-07,5,1
-0.0002455907,6.420843e-06,5,1
-0.0001165867,1.047248e-05,5,1
4.466826e-05,1.64689e-05,5,1
0.0002307193,2.327564e-05,5,1
0.0004130428,2.667901e-05,5,1
0.0005482053,2.457216e-05,5,1
0.0006026593,1.760335e-05,5,1
0.0005728393,7.23117e-06,5,1
0.0004909963,-4.923729e-06,5,1
0.0004057499,-1.416145e-05,5,1
0.0003571303,-1.578211e-05,5,1
0.0003589129,-4.761664e-06,5,1
0.000408505,1.64689e-05,5,1
0.0004906721,4.434413e-05,5,1
0.0005833735,7.140904e-05,5,1
0.0006738061,9.118101e-05,5,1
0.0007632662,0.0001031738,5,1
0.0008665019,0.0001130598,5,1
0.000992751,0.0001195424,5,1
0.001134558,0.0001205148,5,1
0.001271342,0.0001154908,5,1
0.001365826,0.0001107909,5,1
0.001380898,0.0001125736,5,1
0.001297272,0.0001213252,5,1
0.001119324,0.0001316974,5,1
0.0008747673,0.0001419075,5,1
0.0006060627,0.0001563313,5,1
0.0003542131,0.0001809652,5,1
0.0001467694,0.0002167816,5,1
-7.030578e-06,0.0002561635,5,1
-0.0001169109,0.0002869559,5,1
-0.0002010227,0.000299597,5,1
-0.0002715212,0.0002892249,5,1
-0.000335699,0.0002579462,5,1
-0.0003990665,0.000217592,5,1
-0.0004638926,0.0001785342,5,1
-0.0005253154,0.0001464453,5,1
-0.0005749074,0.0001200286,5,1
-0.00061121,9.782569e-05,5,1
-0.0006329267,7.837785e-05,5,1
-0.0006403818,6.055066e-05,5,1
-0.00062612,4.547859e-05,5,1
-0.000576366,3.024445e-05,5,1
-0.0004809095,1.306552e-05,5,1
-0.0003452609,-9.137427e-06,5,1
-0.0001848162,-3.733679e-05,5,1
-2.161646e-05,-7.153257e-05,5,1
0.000113384,-0.000104918,5,1
0.0001932822,-0.0001225832,5,1
0.0002083542,-0.000112211,5,1
0.000170431,-7.444975e-05,5,1
0.0001041462,-2.777494e-05,5,1
3.121684e-05,5.448452e-06,5,1
-3.425755e-05,8.203562e-06,5,1
-7.995997e-05,-2.129233e-05,5,1
-9.049421e-05,-6.683268e-05,5,1
-5.986387e-05,-0.0001120489,5,1
3.017472e-06,-0.0001451102,5,1
7.092284e-05,-0.0001624512,5,1
0.0001099806,-0.0001681235,5,1
9.53947e-05,-0.0001682856,5,1
2.684107e-05,-0.0001697442,5,1
-7.23429e-05,-0.0001737958,5,1
-0.0001679614,-0.0001809267,5,1
-0.0002347323,-0.0001875713,5,1
-0.0002585559,-0.0001885437,5,1
-0.0002381357,-0.0001831956,5,1
-0.0001883817,-0.0001747682,5,1
-0.0001353863,-0.0001663408,5,1
-0.0001094559,-0.0001608306,5,1
-0.0001310105,-0.0001566169,5,1
-0.0002055606,-0.000151917,5,1
-0.0003219235,-0.0001430034,5,1
-0.0004577342,-0.00012469,5,1
-0.0005860899,-8.984595e-05,5,1
-0.0006774947,-3.490581e-05,5,1
-0.0007061802,3.429608e-05,5,1
-0.0006590193,0.0001000946,5,1
-0.000539253,0.0001469315,5,1
-0.0003676259,0.0001615174,5,1
-0.0001827094,0.0001459591,5,1
-1.594417e-05,0.0001119254,5,1
0.0001177597,7.659513e-05,5,1
0.0002196988,5.406805e-05,5,1
0.0003004074,4.661304e-05,5,1
0.0003665301,5.001642e-05,5,1
0.0004172565,5.925414e-05,5,1
0.0004495075,6.881599e-05,5,1
0.0004649037,7.691926e-05,5,1
0.0004627969,8.437427e-05,5,1
0.0004469145,9.085688e-05,5,1
0.0004290873,9.53947e-05,5,1
0.0004271425,9.944634e-05,5,1
0.0004597176,0.0001038221,5,1
0.0005232473,0.0001094944,5,1
0.0006000663,0.000118408,5,1
0.0006619753,0.0001316974,5,1
0.0006823955,0.000145797,5,1
0.0006433378,0.0001568175,5,1
0.0005418848,0.0001600588,5,1
0.0003931088,0.0001550348,5,1
0.0002255332,0.0001436902,5,1
6.541262e-05,0.000128456,5,1
-7.18567e-05,0.0001117633,5,1
-0.0001801163,9.652917e-05,5,1
-0.0002621213,8.453633e-05,5,1
-0.0003237062,7.886404e-05,5,1
-0.0003692465,7.90261e-05,5,1
-0.00039777,8.145709e-05,5,1
-0.0004044147,8.453633e-05,5,1
-0.0003846427,8.567078e-05,5,1
-0.0003399127,8.113296e-05,5,1
-0.0002804347,6.589881e-05,5,1
-0.0002253326,3.899597e-05,5,1
-0.0001938919,5.772582e-06,5,1
-0.000191623,-2.177852e-05,5,1
-0.0002083157,-3.458168e-05,5,1
-0.0002306807,-3.198864e-05,5,1
-0.0002504527,-2.339918e-05,5,1
-0.0002684419,-1.756482e-05,5,1
-0.0002827037,-1.821308e-05,5,1
-0.0002828657,-2.485776e-05,5,1
-0.0002545043,-3.928157e-05,5,1
-0.0001972953,-6.116039e-05,5,1
-0.0001219349,-8.676672e-05,5,1
-4.333321e-05,-0.0001118868,5,1
2.39239e-05,-0.0001289037,5,1
7.335383e-05,-0.0001290658,5,1
9.523264e-05,-0.0001118868,5,1
8.097089e-05,-8.255302e-05,5,1
2.927205e-05,-5.22468e-05,5,1
-5.402952e-05,-3.182657e-05,5,1
-0.0001506204,-2.566809e-05,5,1
-0.0002318152,-3.587821e-05,5,1
-0.0002734659,-5.710876e-05,5,1
-0.0002616352,-8.303922e-05,5,1
-0.0002032917,-0.0001039456,5,1
-0.0001088076,-0.0001144799,5,1
1.22552e-05,-0.000117235,5,1
0.0001472556,-0.0001169109,5,1
0.0002785285,-0.0001141558,5,1
0.0003854917,-0.0001143178,5,1
0.0004553419,-0.0001212866,5,1
0.0004819206,-0.0001292278,5,1
0.0004725208,-0.0001316588,5,1
0.0004391353,-0.0001284175,5,1
0.0003910019,-0.0001232314,5,1
0.0003344411,-0.0001173971,5,1
0.0002660495,-0.0001130213,5,1
0.0001846927,-0.0001130213,5,1
9.134307e-05,-0.0001177212,5,1
-8.002969e-06,-0.0001227452,5,1
-0.0001028112,-0.000122259,5,1
-0.000184168,-0.0001115627,5,1
-0.0002507768,-9.065628e-05,5,1
-0.000313334,-6.472583e-05,5,1
-0.0003796187,-3.587821e-05,5,1
-0.000449955,-3.627206e-06,5,1
-0.0005167259,3.218923e-05,5,1
-0.0005684248,6.995045e-05,5,1
-0.0006001896,0.0001033359,5,1
-0.0006074825,0.0001248906,5,1
-0.0005857658,0.0001273216,5,1
-0.0005332566,0.0001104668,5,1
-0.0004554653,8.42122e-05,5,1
-0.0003611433,6.103686e-05,5,1
-0.0002561249,4.531652e-05,5,1
-0.0001399241,4.013043e-05,5,1
-1.286493e-05,4.661304e-05,5,1
0.0001252147,6.395404e-05,5,1
0.000262322,8.567078e-05,5,1
0.0003730126,0.0001078737,5,1
0.0004268184,0.0001266733,5,1
0.0004154738,0.0001372076,5,1
0.0003571303,0.0001362352,5,1
0.0002778803,0.000128456,5,1
0.0002020337,0.0001214872,5,1
0.0001459591,0.0001179218,5,1
0.0001187321,0.0001206769,5,1
0.0001175977,0.0001349386,5,1
0.0001297526,0.0001621656,5,1
0.000148228,0.0001944166,5,1
0.0001812893,0.0002167816,5,1
0.0002475741,0.0002146748,5,1
0.0003642611,0.0001848548,5,1
0.00052503,0.0001355869,5,1
0.0006890402,7.708133e-05,5,1
0.0007969757,1.825161e-05,5,1
0.0008031343,-3.782299e-05,5,1
0.0006947125,-8.773911e-05,5,1
0.0004968306,-0.0001344139,5,1
0.0002538946,-0.0001794681,5,1
3.827799e-06,-0.0002169052,5,1
-0.0002280877,-0.0002361909,5,1
-0.0004214316,-0.0002300324,5,1
-0.0005580526,-0.000204102,5,1
-0.0006334129,-0.0001682856,5,1
-0.0006599916,-0.0001313347,5,1
-0.000668257,-9.373552e-05,5,1
-0.0006888393,-4.916756e-05,5,1
-0.0007306521,2.623614e-07,5,1
-0.0007763545,5.131294e-05,5,1
-0.0008016367,9.782569e-05,5,1
-0.000789968,0.0001344524,5,1
-0.0007385933,0.0001558451,5,1
-0.0006572366,0.000168162,5,1
-0.000554001,0.0001772377,5,1
-0.0004313175,0.0001876099,5,1
-0.0003006929,0.0001968476,5,1
-0.0001720131,0.0001986303,5,1
-4.641245e-05,0.0001863134,5,1
7.983644e-05,0.0001574657,5,1
0.0002111094,0.0001179218,5,1
0.000356644,7.465034e-05,5,1
0.0005214646,3.397195e-05,5,1
0.0007005468,-1.844488e-06,5,1
0.0008789809,-3.587821e-05,5,1
0.001038129,-6.618442e-05,5,1
0.001160003,-9.227693e-05,5,1
0.001244115,-0.0001143178,5,1
0.001302134,-0.0001353863,5,1
0.001342488,-0.0001551583,5,1
0.001360316,-0.0001702304,5,1
0.001336978,-0.000176713,5,1
0.00124687,-0.0001737958,5,1
0.001076377,-0.0001648822,5,1
0.0008441369,-0.0001524032,5,1
0.0005890459,-0.0001391138,5,1
0.0003504856,-0.0001256624,5,1
0.0001514693,-0.0001126972,5,1
1.558884e-06,-9.940781e-05,5,1
-0.0001070249,-8.757704e-05,5,1
-0.0001927574,-7.785312e-05,5,1
-0.000271197,-7.363943e-05,5,1
-0.000345585,-7.55842e-05,5,1
-0.0004108973,-7.817725e-05,5,1
-0.000457248,-7.590833e-05,5,1
-0.000482206,-6.699475e-05,5,1
-0.0004946851,-4.868137e-05,5,1
-0.0005081365,-2.437157e-05,5,1
-0.0005283947,-1.844488e-06,5,1
-0.0005514079,1.582063e-05,5,1
-0.0005750695,2.651694e-05,5,1
-0.0005993792,3.13789e-05,5,1
-0.000621258,3.591673e-05,5,1
-0.0006347094,4.35338e-05,5,1
-0.0006288751,5.633696e-05,5,1
-0.0005911139,6.914012e-05,5,1
-0.000514457,7.594687e-05,5,1
-0.0004065215,7.610894e-05,5,1
-0.0002797865,7.57848e-05,5,1
-0.00015451,8.340187e-05,5,1
-4.90055e-05,0.0001009049,5,1
2.100672e-05,0.0001271595,5,1
5.325772e-05,0.0001584381,5,1
4.72613e-05,0.0001906891,5,1
3.665733e-06,0.0002182402,5,1
-7.55842e-05,0.0002386605,5,1
-0.000179306,0.0002501671,5,1
-0.0002773555,0.0002537325,5,1
-0.0003350507,0.0002483844,5,1
-0.0003311612,0.0002380122,5,1
-0.0002669833,0.0002260194,5,1
-0.0001658546,0.0002133783,5,1
-5.240886e-05,0.0001957132,5,1
5.649903e-05,0.0001722137,5,1
0.0001501728,0.0001477418,5,1
0.0002221298,0.0001276457,5,1
0.0002743149,0.0001174356,5,1
0.0003111037,0.0001158149,5,1
0.0003299033,0.0001190562,5,1
0.0003180725,0.0001221355,5,1
0.0002699391,0.0001216493,5,1
0.0001936063,0.0001130598,5,1
0.0001018773,9.620504e-05,5,1
9.175954e-06,7.335383e-05,5,1
-7.736692e-05,4.72613e-05,5,1
-0.0001504584,1.97102e-05,5,1
-0.0002117191,-1.270286e-05,5,1
-0.0002699005,-5.354332e-05,5,1
-0.0003298647,-9.973194e-05,5,1
-0.0003925839,-0.0001431655,5,1
-0.0004561135,-0.0001757406,5,1
-0.0005164018,-0.0001948643,5,1
-0.0005668041,-0.0002028055,5,1
-0.0006052136,-0.0002031296,5,1
-0.0006347094,-0.0002034537,5,1
-0.0006625847,-0.0002062088,5,1
-0.0006899738,-0.0002023193,5,1
-0.0007073147,-0.000174444,5,1
-0.0007061802,-0.0001128592,5,1
-0.0006844635,-2.599222e-05,5,1
-0.0006463782,6.152305e-05,5,1
-0.0005995413,0.0001253768,5,1
-0.0005447632,0.0001527658,5,1
-0.0004747511,0.0001501728,5,1
-0.0003783222,0.0001331559,5,1
-0.0002609869,0.0001156529,5,1
-0.0001389517,9.993253e-05,5,1
-2.858527e-05,8.405014e-05,5,1
5.99024e-05,6.152305e-05,5,1
0.0001378558,3.056858e-05,5,1
0.0002265056,-5.57199e-06,5,1
0.000339303,-4.187462e-05,5,1
0.0004760863,-7.363943e-05,5,1
0.0006175694,-9.843541e-05,5,1
0.0007373357,-0.0001162626,5,1
0.0008245269,-0.0001274451,5,1
0.0008872462,-0.0001339277,5,1
0.0009470484,-0.0001376552,5,1
0.001017547,-0.0001399241,5,1
0.001096797,-0.0001396,5,1
0.001161461,-0.000134576,5,1
0.001190795,-0.0001269589,5,1
0.001180423,-0.0001211246,5,1
0.001144606,-0.0001212866,5,1
0.001107655,-0.0001285796,5,1
0.00108059,-0.0001374932,5,1
0.001056119,-0.0001425172,5,1
0.001010254,-0.0001405724,5,1
0.0009214421,-0.0001350622,5,1
0.0007809313,-0.0001251762,5,1
0.0006003904,-0.0001130213,5,1
0.0004114222,-0.0001010285,5,1
0.0002508154,-9.29252e-05,5,1
0.0001453108,-8.303922e-05,5,1
9.426025e-05,-6.504996e-05,5,1
7.594687e-05,-3.749886e-05,5,1
7.076078e-05,-6.220252e-06,5,1
7.610894e-05,2.230325e-05,5,1
9.101894e-05,4.239934e-05,5,1
0.000106091,5.56887e-05,5,1
0.0001023635,6.314371e-05,5,1
6.055066e-05,6.557468e-05,5,1
-2.907146e-05,6.654708e-05,5,1
-0.0001588858,7.124698e-05,5,1
-0.0003040963,8.129502e-05,5,1
-0.0004390967,9.344993e-05,5,1
-0.0005480045,9.896015e-05,5,1
-0.0006275786,9.426025e-05,5,1
-0.0006804119,8.178122e-05,5,1
-0.0007090974,6.427817e-05,5,1
-0.0007189835,4.936815e-05,5,1
-0.0007227109,4.77475e-05,5,1
-0.000737783,6.41161e-05,5,1
-0.0007779752,8.923623e-05,5,1
-0.0008428013,0.0001119254,5,1
-0.0009124894,0.0001253768,5,1
-0.000951223,0.0001300767,5,1
-0.0009241581,0.000128294,5,1
-0.0008209225,0.0001260251,5,1
-0.0006596675,0.0001244044,5,1
-0.0004860956,0.0001224596,5,1
-0.000353202,0.000118408,5,1
-0.0002906449,0.0001091703,5,1
-0.0002908069,9.069481e-05,5,1
-0.0003199787,6.119892e-05,5,1
-0.0003386162,2.619281e-05,5,1
-0.0003248407,-9.947754e-06,5,1
-0.0002747625,-4.43056e-05,5,1
-0.0001950263,-7.412562e-05,5,1
-9.778715e-05,-9.616651e-05,5,1
4.244267e-07,-0.0001128592,5,1
7.870197e-05,-0.0001219349,5,1
0.0001245665,-0.0001253383,5,1
0.0001401247,-0.0001178833,5,1
0.0001454729,-9.827335e-05,5,1
0.0001566554,-6.731888e-05,5,1
0.0001835583,-2.42095e-05,5,1
0.0002271538,2.327564e-05,5,1
0.0002932765,6.119892e-05,5,1
0.0003859779,8.210535e-05,5,1
0.000492779,8.323981e-05,5,1
0.0005935837,7.059871e-05,5,1
0.0006720233,5.034055e-05,5,1
0.0007222636,2.862379e-05,5,1
0.0007451148,7.879432e-06,5,1
0.0007394425,-7.678839e-06,5,1
0.0007007089,-1.740276e-05,5,1
0.0006336138,-2.372331e-05,5,1
0.0005514466,-3.053005e-05,5,1
0.0004624728,-4.252288e-05,5,1
0.0003700955,-6.083626e-05,5,1
0.0002786906,-8.141856e-05,5,1
0.0001867996,-9.875954e-05,5,1
9.199134e-05,-0.0001089697,5,1
-1.682422e-06,-0.0001092938,5,1
-8.125649e-05,-0.0001005423,5,1
-0.0001326312,-8.968389e-05,5,1
-0.0001462447,-8.579432e-05,5,1
-0.0001206384,-8.82253e-05,5,1
-7.428769e-05,-9.357346e-05,5,1
-4.284701e-05,-9.794922e-05,5,1
-5.937768e-05,-9.859748e-05,5,1
-0.0001331174,-9.405965e-05,5,1
-0.0002455907,-8.660465e-05,5,1
-0.0003614674,-7.995997e-05,5,1
-0.0004564377,-7.23429e-05,5,1
-0.0005191569,-6.0188e-05,5,1
-0.0005522182,-3.992984e-05,5,1
-0.0005603215,-1.788895e-05,5,1
-0.000549301,-2.978945e-06,5,1
-0.0005274223,9.106227e-07,5,1
-0.0005045711,-5.479652e-07,5,1
-0.0004927403,-8.720959e-07,5,1
-0.0004976023,3.503668e-06,5,1
-0.0005068399,1.12828e-05,5,1
-0.0004995471,1.9224e-05,5,1
-0.0004635685,2.327564e-05,5,1
-0.0003984183,1.938607e-05,5,1
-0.0003044204,7.393236e-06,5,1
-0.0001806025,-5.57199e-06,5,1
-3.198864e-05,-1.010982e-05,5,1
0.0001271595,-1.844488e-06,5,1
0.0002760976,1.663096e-05,5,1
0.0003960259,3.964424e-05,5,1
0.0004715484,6.298164e-05,5,1
0.0004882411,8.891209e-05,5,1
0.0004418904,0.0001226217,5,1
0.0003509718,0.000165569,5,1
0.0002472499,0.0002088404,5,1
0.0001636242,0.0002402811,5,1
0.0001177597,0.0002525981,5,1
0.000101067,0.0002444948,5,1
8.956036e-05,0.0002213195,5,1
6.492643e-05,0.0001887444,5,1
2.586868e-05,0.0001537382,5,1
-1.707863e-05,0.0001224596,5,1
-5.775702e-05,9.960841e-05,5,1
-9.568031e-05,8.534666e-05,5,1
-0.0001344139,7.837785e-05,5,1
-0.0001754164,7.400208e-05,5,1
-0.0002229016,7.043665e-05,5,1
-0.0002925897,6.946425e-05,5,1
-0.0003861013,7.367795e-05,5,1
-0.000484475,8.388807e-05,5,1
-0.0005536768,9.750156e-05,5,1
-0.0005621043,0.0001127357,5,1
-0.0004922541,0.0001276457,5,1
-0.0003608192,0.0001402868,5,1
-0.0002105846,0.0001488763,5,1
-8.919769e-05,0.0001504969,5,1
-2.388537e-05,0.0001419075,5,1
-1.335113e-05,0.0001198666,5,1
-3.231277e-05,8.712937e-05,5,1
-5.111234e-05,5.131294e-05,5,1
-5.192267e-05,2.473423e-05,5,1
-3.344723e-05,8.041497e-06,5,1
1.396819e-06,-3.789272e-06,5,1
4.871989e-05,-1.545797e-05,5,1
0.0001078737,-3.231277e-05,5,1
0.0001769136,-5.516398e-05,5,1
0.0002563256,-8.141856e-05,5,1
0.0003386548,-0.0001091317,5,1
0.0004196875,-0.0001352242,5,1
0.0004968306,-0.0001556445,5,1
0.0005683015,-0.0001648822,5,1
0.0006352345,-0.0001613168,5,1
0.0007055709,-0.000149486,5,1
0.0007853071,-0.0001331174,5,1
0.0008653674,-0.000117235,5,1
0.0009327867,-0.0001092938,5,1
0.0009775168,-0.0001089697,5,1
0.001002151,-0.0001151281,5,1
0.001015116,-0.0001250141,5,1
0.001016737,-0.0001319829,5,1
0.001004258,-0.0001284175,5,1
0.0009690893,-0.0001143178,5,1
0.0008917841,-9.454585e-05,5,1
0.0007537043,-7.736692e-05,5,1
0.0005533914,-6.375344e-05,5,1
0.0003109416,-5.240886e-05,5,1
7.059871e-05,-4.511593e-05,5,1
-0.0001240417,-4.495386e-05,5,1
-0.000253694,-5.451572e-05,5,1
-0.0003168994,-7.363943e-05,5,1
-0.0003214373,-9.308726e-05,5,1
-0.0002818933,-0.0001031353,5,1
-0.0002180396,-9.956988e-05,5,1
-0.0001530514,-8.709085e-05,5,1
-0.0001099421,-7.218083e-05,5,1
-0.0001002181,-6.002594e-05,5,1
-0.0001235555,-5.078821e-05,5,1
-0.0001684476,-4.284701e-05,5,1
-0.000221605,-3.053005e-05,5,1
-0.0002737901,-1.270286e-05,5,1
-0.0003173856,3.503668e-06,5,1
-0.0003509331,1.59827e-05,5,1
-0.0003812394,2.943412e-05,5,1
-0.000417542,4.855783e-05,5,1
-0.0004624341,7.805372e-05,5,1
-0.0005147812,0.000118408,5,1
-0.0005697213,0.0001636242,5,1
-0.0006173685,0.0002043026,5,1
-0.000653347,0.0002331503,5,1
-0.0006771705,0.0002478982,5,1
-0.0006964564,0.0002504913,5,1
-0.0007160662,0.0002436845,5,1
-0.000737783,0.000234933,5,1
-0.000757555,0.0002266676,5,1
-0.0007688995,0.0002216436,5,1
-0.0007632272,0.000217592,5,1
-0.0007270867,0.0002094887,5,1
-0.0006462161,0.00019782,5,1
-0.0005198052,0.0001908512,5,1
-0.0003648708,0.0001913374,5,1
-0.0002138259,0.0001936063,5,1
-9.551824e-05,0.0001914995,5,1
-1.886135e-05,0.0001858272,5,1
3.13789e-05,0.0001803169,5,1
7.562274e-05,0.0001769136,5,1
0.0001232699,0.0001725378,5,1
0.0001718896,0.0001610312,5,1
0.000215161,0.0001399627,5,1
0.0002527602,0.0001214872,5,1
0.0002869559,0.0001161391,5,1
0.0003065659,0.0001265113,5,1
0.0002929524,0.0001446626,5,1
0.0002402811,0.0001610312,5,1
0.0001569795,0.0001699448,5,1
6.152305e-05,0.0001642725,5,1
-2.129233e-05,0.0001376938,5,1
-7.428769e-05,9.069481e-05,5,1
-8.741498e-05,2.76514e-05,5,1
-5.791909e-05,-4.317115e-05,5,1
1.776542e-05,-0.0001126972,5,1
0.0001436902,-0.000166989,5,1
0.0003136967,-0.0001998883,5,1
0.000507689,-0.0002118811,5,1
0.0006945504,-0.0002104225,5,1
0.000842192,-0.0002036158,5,1
0.0009374866,-0.0001982676,5,1
0.0009791374,-0.0001961608,5,1
0.0009718445,-0.0001940539,5,1
0.0009264661,-0.0001878955,5,1
0.0008499712,-0.0001778474,5,1
0.0007488423,-0.0001666649,5,1
0.0006349103,-0.0001600202,5,1
0.0005167646,-0.0001621271,5,1
0.0004025085,-0.0001737958,5,1
0.0002981384,-0.0001904885,5,1
0.0002081922,-0.0002063709,5,1
0.0001346145,-0.0002149604,5,1
7.351589e-05,-0.0002144742,5,1
1.565857e-05,-0.0002079916,5,1
-5.159854e-05,-0.0002031296,5,1
-0.0001342519,-0.0002019951,5,1
-0.0002250084,-0.0002062088,5,1
-0.0003134961,-0.0002151224,5,1
-0.0003895047,-0.0002219292,5,1
-0.0004425001,-0.0002229016,5,1
-0.0004669719,-0.0002191741,5,1
-0.0004614617,-0.0002175534,5,1
-0.0004331002,-0.0002212809,5,1
-0.0003993907,-0.0002272773,5,1
-0.0003814014,-0.0002287359,5,1
-0.000395339,-0.0002146363,5,1
-0.0004382863,-0.0001729855,5,1
-0.0004938748,-0.0001021629,5,1
-0.0005377944,-1.237873e-05,5,1
-0.0005520562,7.367795e-05,5,1
-0.0005290429,0.0001295905,5,1
-0.0004747511,0.0001464453,5,1
-0.0004023079,0.0001344524,5,1
-0.0003203028,0.0001124116,5,1
-0.0002332737,9.717743e-05,5,1
-0.0001387897,9.507057e-05,5,1
-4.041603e-05,0.0001017153,5,1
4.904402e-05,0.0001096565,5,1
0.0001098185,0.0001119254,5,1
0.0001247285,0.0001116012,5,1
9.507057e-05,0.0001153287,5,1
3.883391e-05,0.0001242423,5,1
-2.258885e-05,0.0001321835,5,1
-8.02841e-05,0.0001329939,5,1
-0.0001308485,0.0001265113,5,1
-0.0001702304,0.0001190562,5,1
-0.0001864369,0.0001154908,5,1
-0.0001676373,0.0001180839,5,1
-0.0001112386,0.0001244044,5,1
-2.696461e-05,0.0001331559,5,1
6.492643e-05,0.0001469315,5,1
0.0001446626,0.0001678379,5,1
0.0002015475,0.0001968476,5,1
0.000222616,0.0002316917,5,1
0.0001965235,0.0002628082,5,1
0.0001260251,0.0002799871,5,1
2.797553e-05,0.0002762596,5,1
-6.731888e-05,0.000249843,5,1
-0.0001361966,0.0002054371,5,1
-0.0001647201,0.0001500107,5,1
-0.0001533756,9.199134e-05,5,1
-0.0001114006,4.158902e-05,5,1
-4.106429e-05,1.883015e-06,5,1
5.61749e-05,-2.388537e-05,5,1
0.0001722137,-3.63644e-05,5,1
0.0002940868,-3.928157e-05,5,1
0.0004054258,-3.814712e-05,5,1
0.0004858102,-3.555408e-05,5,1
0.0005208163,-3.182657e-05,5,1
0.0005130371,-2.680255e-05,5,1
0.0004725208,-2.064406e-05,5,1
0.0004119083,-1.335113e-05,5,1
0.0003435168,-8.975362e-06,5,1
0.0002793389,-1.075808e-05,5,1
0.0002362295,-2.275091e-05,5,1
0.0002331503,-4.155049e-05,5,1
0.0002848491,-6.423963e-05,5,1
0.0003846814,-8.579432e-05,5,1
0.000500234,-0.0001021629,5,1
0.000586939,-0.0001101041,5,1
0.0006054144,-0.00010978,5,1
0.0005379952,-0.000107349,5,1
0.0004005638,-0.0001120489,5,1
0.0002263435,-0.0001267968,5,1
4.953022e-05,-0.0001525652,5,1
-9.827335e-05,-0.0001856265,5,1
-0.0001932436,-0.0002225774,5,1
-0.0002344082,-0.0002559629,5,1
-0.0002481838,-0.0002788141,5,1
-0.0002733039,-0.0002893484,5,1
-0.0003339163,-0.000288538,5,1
-0.0004313175,-0.0002799486,5,1
-0.0005455735,-0.0002635799,5,1
-0.0006442713,-0.0002373254,5,1
-0.0006951598,-0.0001989159,5,1
-0.0006927288,-0.0001549962,5,1
-0.0006543194,-0.0001115627,5,1
-0.000603593,-7.720486e-05,5,1
-0.0005574043,-5.483985e-05,5,1
-0.0005248293,-4.138842e-05,5,1
-0.0005078124,-3.344723e-05,5,1
-0.0005050572,-2.129233e-05,5,1
-0.0005099192,8.365628e-06,5,1
-0.0005211017,5.844381e-05,5,1
-0.0005434667,0.0001198666,5,1
-0.0005800935,0.0001718896,5,1
-0.0006191512,0.0001987924,5,1
-0.0006279027,0.0001992786,5,1
-0.0005656697,0.0001767515,5,1
-0.0004170558,0.0001402868,5,1
-0.0002026434,9.766362e-05,5,1
3.60788e-05,5.552663e-05,5,1
0.0002493568,1.54965e-05,5,1
0.0003971604,-2.177852e-05,5,1
0.0004619866,-5.451572e-05,5,1
0.0004490213,-8.125649e-05,5,1
0.0003820883,-0.0001041077,5,1
0.0002948972,-0.0001230693,5,1
0.0002182402,-0.0001311726,5,1
0.0001660552,-0.0001156143,5,1
0.0001454729,-7.072225e-05,5,1
0.0001576278,-8.327101e-06,5,1
0.000200251,5.341979e-05,5,1
0.0002618358,0.0001038221,5,1
0.0003180725,0.0001420695,5,1
0.000349027,0.0001735102,5,1
0.0003427064,0.0002057612,5,1
0.0003067279,0.0002428742,5,1
0.0002619979,0.0002804733,5,1
0.0002286124,0.0003122381,5,1
0.0002143507,0.0003303894,5,1
0.0002098128,0.0003324963,5,1
0.0001981441,0.0003214759,5,1
0.0001623277,0.0003002453,5,1
0.0001069013,0.0002718839,5,1
5.585077e-05,0.0002380122,5,1
3.786152e-05,0.000202682,5,1
6.119892e-05,0.000175455,5,1
0.0001116012,0.0001613553,5,1
0.0001644345,0.000160545,5,1
0.0001983062,0.000160707,5,1
0.0002057612,0.0001495245,5,1
0.0001876099,0.0001271595,5,1
0.0001454729,0.0001020394,5,1
8.567078e-05,7.789165e-05,5,1
2.732727e-05,5.974033e-05,5,1
-2.238346e-07,4.985435e-05,5,1
3.105477e-05,4.693717e-05,5,1
0.0001286181,4.337174e-05,5,1
0.0002642668,3.332369e-05,5,1
0.0003843572,1.54965e-05,5,1
0.0004378388,-8.002969e-06,5,1
0.000401212,-3.198864e-05,5,1
0.0002795009,-4.349527e-05,5,1
0.0001013911,-3.976777e-05,5,1
-9.033215e-05,-2.404744e-05,5,1
-0.0002431597,-2.81688e-06,5,1
-0.0003267854,1.792748e-05,5,1
-0.000342992,3.55926e-05,5,1
-0.0003228959,4.953022e-05,5,1
-0.00030831,5.730935e-05,5,1
-0.0003313232,5.666109e-05,5,1
-0.0003919357,4.677511e-05,5,1
-0.0004625961,2.878586e-05,5,1
-0.0005045711,2.855407e-06,5,1
-0.000496954,-3.247483e-05,5,1
-0.0004410415,-7.493595e-05,5,1
-0.0003420196,-0.0001204763,5,1
-0.0001963229,-0.0001608306,5,1
-7.100305e-07,-0.0001874093,5,1
0.0002231022,-0.0001935677,5,1
0.0004239012,-0.0001806025,5,1
0.0005477191,-0.0001549962,5,1
0.0005613327,-0.0001259865,5,1
0.0004712243,-0.0001013526,5,1
0.0003156415,-8.709085e-05,5,1
0.0001509831,-8.239095e-05,5,1
2.084466e-05,-8.563225e-05,5,1
-5.613637e-05,-9.422172e-05,5,1
-7.963584e-05,-0.0001013526,5,1
-5.629844e-05,-0.0001010285,5,1
-3.789272e-06,-9.017008e-05,5,1
6.087479e-05,-6.861539e-05,5,1
0.0001226217,-4.284701e-05,5,1
0.0001738343,-1.950961e-05,5,1
0.0002119197,-2.81688e-06,5,1
0.0002341226,1.144487e-05,5,1
0.0002362295,2.586868e-05,5,1
0.0002072198,3.93201e-05,5,1
0.0001464453,4.758544e-05,5,1
7.351589e-05,4.742337e-05,5,1
1.695509e-05,4.077869e-05,5,1
-8.975362e-06,2.781346e-05,5,1
-5.57199e-06,6.582909e-06,5,1
2.716521e-05,-2.194059e-05,5,1
8.567078e-05,-4.997789e-05,5,1
0.000163138,-6.974985e-05,5,1
0.0002428742,-7.914964e-05,5,1
0.0003013798,-8.303922e-05,5,1
0.0003221241,-8.563225e-05,5,1
0.0003067279,-9.098041e-05,5,1
0.0002723701,-0.0001003802,5,1
0.0002362295,-0.0001088076,5,1
0.0002015475,-0.0001102662,5,1
0.0001689724,-9.924574e-05,5,1
0.0001372076,-7.736692e-05,5,1
0.0001062531,-4.80331e-05,5,1
7.351589e-05,-1.545797e-05,5,1
3.883391e-05,1.64689e-05,5,1
2.623614e-07,4.580272e-05,5,1
-4.495386e-05,7.286763e-05,5,1
-0.0001032974,9.669123e-05,5,1
-0.0001726613,0.0001141943,5,1
-0.0002452666,0.000128294,5,1
-0.0003057169,0.0001448246,5,1
-0.0003410472,0.0001699448,5,1
-0.0003439643,0.0002049509,5,1
-0.0003154408,0.0002417397,5,1
-0.0002605007,0.0002676702,5,1
-0.0001977815,0.0002733424,5,1
-0.0001652063,0.0002592428,5,1
-0.0001968091,0.0002315296,5,1
-0.0002987481,0.0001981441,5,1
-0.0004397449,0.0001663793,5,1
-0.0005674524,0.0001401247,5,1
-0.0006452437,0.0001201907,5,1
-0.000665826,0.0001043083,5,1
-0.0006454058,9.247754e-05,5,1
-0.0005935449,8.275361e-05,5,1
-0.0004988988,7.043665e-05,5,1
-0.0003454229,5.698522e-05,5,1
-0.0001462447,4.580272e-05,5,1
5.374392e-05,3.899597e-05,5,1
0.0002122438,3.737532e-05,5,1
0.0003125623,3.624086e-05,5,1
0.0003705817,3.397195e-05,5,1
0.0004120704,2.894792e-05,5,1
0.000448211,2.489629e-05,5,1
0.0004709002,2.01964e-05,5,1
0.0004768966,1.193106e-05,5,1
0.0004720346,-2.81688e-06,5,1
0.0004579349,-2.777494e-05,5,1
0.0004298976,-6.48879e-05,5,1
0.0003666921,-0.0001109144,5,1
0.0002537325,-0.0001579134,5,1
0.0001012291,-0.000196647,5,1
-5.240886e-05,-0.0002211189,5,1
-0.0001634236,-0.0002310048,5,1
-0.0002117191,-0.0002310048,5,1
-0.0002081536,-0.0002284118,5,1
-0.0001840059,-0.0002295462,5,1
-0.0001723372,-0.0002342462,5,1
-0.0001934057,-0.0002399184,5,1
-0.0002441321,-0.0002433218,5,1
-0.0003128478,-0.0002426735,5,1
-0.0003885323,-0.0002357047,5,1
-0.0004616237,-0.0002259808,5,1
-0.0005129984,-0.0002146363,5,1
-0.000519319,-0.0002099363,5,1
-0.0004677822,-0.0002126914,5,1
-0.0003716775,-0.0002160948,5,1
-0.0002572594,-0.0002143121,5,1
-0.0001543479,-0.0002055606,5,1
-9.098041e-05,-0.0001912988,5,1
-8.044617e-05,-0.0001736337,5,1
-0.0001028112,-0.0001527273,5,1
-0.000119828,-0.0001316588,5,1
-0.0001058904,-0.0001104282,5,1
-6.310517e-05,-9.081835e-05,5,1
-8.651231e-06,-7.072225e-05,5,1
4.288554e-05,-4.868137e-05,5,1
8.534666e-05,-1.950961e-05,5,1
0.0001140322,2.100672e-05,5,1
0.0001229458,6.881599e-05,5,1
0.0001049566,0.0001185701,5,1
5.358185e-05,0.0001684862,5,1
-3.425755e-05,0.0002187264,5,1
-0.000151917,0.000269777,5,1
-0.0002815692,0.0003149933,5,1
-0.0003963114,0.0003457857,5,1
-0.0004689167,0.0003548613,5,1
-0.0004817198,0.0003422202,5,1
-0.000437314,0.0003120761,5,1
-0.0003577399,0.000269777,5,1
-0.0002648765,0.0002205092,5,1
-0.0001684476,0.0001702689,5,1
-5.953974e-05,0.0001295905,5,1
8.340187e-05,0.0001025256,5,1
0.000282256,9.280167e-05,5,1
0.000537347,8.923623e-05,5,1
0.0008293889,8.615699e-05,5,1
0.001120621,8.42122e-05,5,1
0.001368581,8.242948e-05,5,1
0.001538102,7.772959e-05,5,1
0.001608438,7.270556e-05,5,1
0.001575053,7.238143e-05,5,1
0.001454314,7.90261e-05,5,1
0.001274421,8.680524e-05,5,1
0.001068922,9.069481e-05,5,1
0.0008627744,8.907416e-05,5,1
0.0006715371,8.615699e-05,5,1
0.0005119027,8.761557e-05,5,1
0.0003960259,9.782569e-05,5,1
0.0003255275,0.0001169494,5,1
0.0002788527,0.000140773,5,1
0.0002232643,0.0001620036,5,1
0.0001354248,0.0001757791,5,1
1.452411e-05,0.0001761032,5,1
-0.0001211246,0.0001610312,5,1
-0.0002485079,0.0001318594,5,1
-0.0003627639,9.409818e-05,5,1
-0.000482044,5.714729e-05,5,1
-0.0006295234,2.927205e-05,5,1
-0.0008061745,1.517237e-05,5,1
-0.0009828256,7.879432e-06,5,1
-0.001116368,2.623614e-07,5,1
-0.001175197,-8.813297e-06,5,1
-0.001158667,-1.950961e-05,5,1
-0.001092058,-3.490581e-05,5,1
-0.001004705,-5.775702e-05,5,1
-0.0009144342,-8.806324e-05,5,1
-0.0008299981,-0.0001204763,5,1
-0.0007512344,-0.000149486,5,1
-0.0006703638,-0.0001712027,5,1
-0.0005760419,-0.0001801163,5,1
-0.0004600031,-0.0001712027,5,1
-0.0003327818,-0.0001438137,5,1
-0.0002191741,-0.0001034594,5,1
-0.0001389517,-6.116039e-05,5,1
-9.762509e-05,-3.587821e-05,5,1
-7.33153e-05,-3.150244e-05,5,1
-3.847125e-05,-3.992984e-05,5,1
2.603075e-05,-5.159854e-05,5,1
0.0001269974,-6.002594e-05,5,1
0.0002513016,-6.861539e-05,5,1
0.0003830607,-8.287715e-05,5,1
0.0005135234,-0.0001057284,5,1
0.0006379896,-0.0001355484,5,1
0.0007473837,-0.0001663408,5,1
0.0008279303,-0.0001896782,5,1
0.0008723363,-0.000201671,5,1
0.0008801154,-0.0002071812,5,1
0.0008564538,-0.0002130156,5,1
0.0008011895,-0.0002204706,5,1
0.0007123777,-0.0002254946,5,1
0.0005858046,-0.000221443,5,1
0.0004174185,-0.0002045882,5,1
0.0002078681,-0.0001721751,5,1
-2.988179e-05,-0.0001217728,5,1
-0.0002841623,-5.856735e-05,5,1
-0.0005454115,6.096713e-06,5,1
-0.0007920748,6.217132e-05,5,1
-0.0009852567,0.0001023635,5,1
-0.001085899,0.0001240803,5,1
-0.001070503,0.0001315353,5,1
-0.00094393,0.0001329939,5,1
-0.0007405381,0.0001385041,5,1
-0.0005151053,0.0001496866,5,1
-0.0003254889,0.000163138,5,1
-0.0002029675,0.0001773998,5,1
