EMG1,EMG2,class,user
-6.537409e-05,-0.0001776853,5,1
-7.266703e-05,-0.0001314967,5,1
-3.571614e-05,-0.0001000561,5,1
3.948217e-05,-8.222889e-05,5,1
0.0001367214,-7.266703e-05,5,1
0.0002417397,-6.310517e-05,5,1
0.0003469201,-4.625038e-05,5,1
0.0004456179,-2.372331e-05,5,1
0.0005311884,-6.382317e-06,5,1
0.0005963388,-3.627206e-06,5,1
0.000641393,-1.480971e-05,5,1
0.0006721854,-3.328516e-05,5,1
0.0006942263,-4.641245e-05,5,1
0.0007015193,-4.625038e-05,5,1
0.0006765611,-3.847125e-05,5,1
0.0006037938,-2.696461e-05,5,1
0.0004862963,-1.480971e-05,5,1
0.0003461098,-2.168618e-06,5,1
0.0002068957,9.66215e-06,5,1
8.712937e-05,2.246531e-05,5,1
-4.761664e-06,3.462021e-05,5,1
-7.266703e-05,4.223728e-05,5,1
-0.0001279313,4.985435e-05,5,1
-0.0001955125,6.168512e-05,5,1
-0.0002932379,8.178122e-05,5,1
-0.0004224039,0.0001117633,5,1
-0.0005671282,0.0001472556,5,1
-0.0006962943,0.0001756171,5,1
-0.000782351,0.0001889064,5,1
-0.0008181673,0.0001856651,5,1
-0.0008233535,0.0001712413,5,1
-0.0008202742,0.0001551968,5,1
-0.0008137916,0.0001430419,5,1
-0.000789968,0.00013818,5,1
-0.0007360002,0.000135749,5,1
-0.0006604778,0.0001352628,5,1
-0.0005881967,0.0001389903,5,1
-0.0005279084,0.0001470936,5,1
-0.000459841,0.0001551968,5,1
-0.0003569296,0.0001598967,5,1
-0.0001945401,0.000163138,5,1
2.862379e-05,0.0001712413,5,1
0.0002788527,0.0001856651,5,1
0.0005023408,0.0002015475,5,1
0.0006483617,0.0002088404,5,1
0.0006953608,0.0002021958,5,1
0.0006470652,0.0001765894,5,1
0.0005167646,0.0001370455,5,1
0.0003132105,9.409818e-05,5,1
4.871989e-05,5.828175e-05,5,1
-0.0002566112,3.462021e-05,5,1
-0.0005658317,2.424803e-05,5,1
-0.0008311326,2.214118e-05,5,1
-0.00100357,2.01964e-05,5,1
-0.001055107,1.371378e-05,5,1
-0.000993522,4.47606e-06,5,1
-0.0008651663,-2.81688e-06,5,1
-0.000727897,-6.058186e-06,5,1
-0.0006193133,-1.027188e-05,5,1
-0.0005494631,-2.242678e-05,5,1
-0.0005021401,-4.155049e-05,5,1
-0.0004531963,-6.407757e-05,5,1
-0.0003906392,-8.676672e-05,5,1
-0.0003194925,-0.0001084835,5,1
-0.0002532078,-0.0001311726,5,1
-0.0002018331,-0.0001546721,5,1
-0.0001613168,-0.0001736337,5,1
-0.0001157764,-0.0001857886,5,1
-4.932962e-05,-0.0001945401,5,1
4.871989e-05,-0.0002013469,5,1
0.0001814514,-0.0002042641,5,1
0.000336548,-0.0002039399,5,1
0.0004948858,-0.0002023193,5,1
0.000636531,-0.0001998883,5,1
0.0007460872,-0.0001979435,5,1
0.0008115617,-0.0001972953,5,1
0.0008340888,-0.0001984297,5,1
0.0008264717,-0.0001932436,5,1
0.0008050791,-0.0001778474,5,1
0.0007746107,-0.0001562927,5,1
0.0007253428,-0.0001302002,5,1
0.000641393,-9.649064e-05,5,1
0.0005178991,-5.32192e-05,5,1
0.0003577785,-5.734056e-06,5,1
0.0001746447,3.348575e-05,5,1
-9.785688e-06,5.244739e-05,5,1
-0.0001780095,5.244739e-05,5,1
-0.0003193304,4.175109e-05,5,1
-0.0004259694,2.829966e-05,5,1
-0.0004946851,1.695509e-05,5,1
-0.0005279084,1.338965e-05,5,1
-0.0005329325,2.068259e-05,5,1
-0.0005162397,3.818565e-05,5,1
-0.0004839888,6.03886e-05,5,1
-0.000444769,7.610894e-05,5,1
-0.0004096008,7.870197e-05,5,1
-0.0003867496,7.140904e-05,5,1
-0.0003776739,6.362991e-05,5,1
-0.0003734602,6.751948e-05,5,1
-0.000362926,8.712937e-05,5,1
-0.0003399127,0.0001179218,5,1
-0.0003031239,0.000150659,5,1
-0.0002585559,0.0001762653,5,1
-0.0002120432,0.0001892305,5,1
-0.0001687718,0.0001902029,5,1
-0.0001394379,0.0001833962,5,1
-0.0001302002,0.0001756171,5,1
-0.0001344139,0.000173024,5,1
-0.0001358725,0.0001752929,5,1
-0.0001156143,0.0001773998,5,1
-6.326724e-05,0.0001739964,5,1
1.64689e-05,0.0001654069,5,1
0.0001169494,0.0001569795,5,1
0.000239957,0.0001539003,5,1
0.0003900295,0.0001537382,5,1
0.0005663567,0.0001540623,5,1
0.0007550009,0.0001545486,5,1
0.0009227386,0.0001558451,5,1
0.001023057,0.0001579519,5,1
0.001015278,0.000158114,5,1
0.0008843291,0.0001517934,5,1
0.000654034,0.0001378558,5,1
0.0003760919,0.0001145184,5,1
0.0001112771,8.696731e-05,5,1
-9.681477e-05,6.427817e-05,5,1
-0.0002301945,5.277153e-05,5,1
-0.0002953447,5.374392e-05,5,1
-0.0003144685,6.508849e-05,5,1
-0.0003110651,8.129502e-05,5,1
-0.0003023136,9.296373e-05,5,1
-0.0002865932,9.31258e-05,5,1
-0.0002592042,7.805372e-05,5,1
-0.0002222533,4.936815e-05,5,1
-0.0001825473,1.22552e-05,5,1
-0.0001418689,-2.615429e-05,5,1
-0.0001002181,-5.64605e-05,5,1
-4.835724e-05,-7.833932e-05,5,1
1.954813e-05,-9.454585e-05,5,1
0.0001012291,-0.0001089697,5,1
0.0001884202,-0.0001258245,5,1
0.0002762596,-0.0001467309,5,1
0.0003618301,-0.0001702304,5,1
0.0004425387,-0.0001909747,5,1
0.000512713,-0.0002032917,5,1
0.0005613327,-0.000204102,5,1
0.0005718669,-0.0001961608,5,1
0.0005396159,-0.0001833576,5,1
0.0004739794,-0.00016942,5,1
0.0003940812,-0.0001533756,5,1
0.0003240689,-0.0001342519,5,1
0.0002958695,-0.0001120489,5,1
0.0003311998,-8.806324e-05,5,1
0.0004224426,-6.699475e-05,5,1
0.0005277851,-5.078821e-05,5,1
0.000599256,-4.090223e-05,5,1
0.0006059006,-3.895745e-05,5,1
0.0005509604,-4.706071e-05,5,1
0.00046069,-6.504996e-05,5,1
0.000356644,-9.130454e-05,5,1
0.0002482223,-0.0001183694,5,1
0.0001351007,-0.0001391138,5,1
1.565857e-05,-0.0001502963,5,1
-9.454585e-05,-0.0001535376,5,1
-0.0001846542,-0.0001561307,5,1
-0.000266173,-0.0001585616,5,1
-0.0003514194,-0.0001579134,5,1
-0.0004327761,-0.0001528894,5,1
-0.000482044,-0.0001441378,5,1
-0.0004732924,-0.0001349001,5,1
-0.0004039285,-0.0001285796,5,1
-0.0002955068,-0.0001212866,5,1
-0.0001831956,-0.0001133454,5,1
-0.0001052422,-0.0001050801,5,1
-8.287715e-05,-9.794922e-05,5,1
-0.0001136696,-9.162867e-05,5,1
-0.0001716889,-8.368748e-05,5,1
-0.0002217671,-7.363943e-05,5,1
-0.0002311669,-5.743289e-05,5,1
-0.0001924333,-3.279896e-05,5,1
-0.0001225832,5.86492e-07,5,1
-4.576419e-05,4.045456e-05,5,1
1.9224e-05,8.486046e-05,5,1
6.152305e-05,0.0001266733,5,1
8.178122e-05,0.0001610312,5,1
9.037068e-05,0.0001856651,5,1
9.199134e-05,0.000200251,5,1
8.356394e-05,0.0002073819,5,1
5.56887e-05,0.0002122438,5,1
-6.220252e-06,0.0002211574,5,1
-9.892161e-05,0.0002389846,5,1
-0.0002037779,0.0002701012,5,1
-0.0003042584,0.0003154794,5,1
-0.0003856151,0.0003649094,5,1
-0.0004298589,0.0004013741,5,1
-0.000422566,0.0004102877,5,1
-0.0003752429,0.0003903536,5,1
-0.0003225718,0.0003474063,5,1
-0.0002976137,0.0002931144,5,1
-0.0003180339,0.0002372019,5,1
-0.0003788084,0.0001869616,5,1
-0.0004578962,0.0001451488,5,1
-0.0005288809,0.0001120874,5,1
-0.0005705316,9.118101e-05,5,1
-0.0005716661,8.129502e-05,5,1
-0.0005311498,8.129502e-05,5,1
-0.0004593548,8.648112e-05,5,1
-0.0003745947,8.74535e-05,5,1
-0.0002961551,7.935024e-05,5,1
-0.0002282497,6.330578e-05,5,1
-0.0001639098,4.369587e-05,5,1
-9.66527e-05,2.262738e-05,5,1
-2.84232e-05,-3.858999e-07,5,1
3.462021e-05,-2.177852e-05,5,1
8.226741e-05,-3.474375e-05,5,1
0.0001075496,-3.425755e-05,5,1
0.0001073875,-2.291298e-05,5,1
8.923623e-05,-9.461558e-06,5,1
6.83298e-05,-8.720959e-07,5,1
5.131294e-05,-6.382317e-06,5,1
4.013043e-05,-2.647842e-05,5,1
4.483033e-05,-5.662256e-05,5,1
7.805372e-05,-8.482193e-05,5,1
0.0001419075,-0.000104918,5,1
0.0002357433,-0.0001139937,5,1
0.0003649094,-0.0001143178,5,1
0.000534916,-0.0001120489,5,1
0.0007295565,-0.0001146419,5,1
0.0009042631,-0.0001256624,5,1
0.001001827,-0.0001430034,5,1
0.0009841614,-0.0001639098,5,1
0.0008502954,-0.0001859507,5,1
0.0006428516,-0.000204102,5,1
0.0004255218,-0.0002131776,5,1
0.000252274,-0.0002133397,5,1
0.0001386662,-0.0002063709,5,1
6.265751e-05,-0.0001955125,5,1
-1.108221e-05,-0.0001861127,5,1
-0.0001037836,-0.0001861127,5,1
-0.0002105846,-0.0001958367,5,1
-0.0003131719,-0.0002123673,5,1
-0.0004032803,-0.0002272773,5,1
-0.0004815578,-0.0002355427,5,1
-0.0005478425,-0.000238784,5,1
-0.0005822003,-0.0002455907,5,1
-0.0005561078,-0.0002627696,5,1
-0.0004506033,-0.0002883759,5,1
-0.0002778417,-0.0003113892,5,1
-8.547019e-05,-0.0003206269,5,1
7.805372e-05,-0.0003081479,5,1
0.0001843686,-0.0002771934,5,1
0.0002269918,-0.0002368392,5,1
0.0002180782,-0.0001951884,5,1
0.0001749688,-0.0001566169,5,1
0.0001112771,-0.00012469,5,1
4.110282e-05,-0.0001003802,5,1
-2.031993e-05,-8.790117e-05,5,1
-6.407757e-05,-8.433573e-05,5,1
-7.623246e-05,-8.093236e-05,5,1
-5.710876e-05,-6.991193e-05,5,1
-2.258885e-05,-4.300908e-05,5,1
5.610517e-06,4.313994e-06,5,1
7.555301e-06,7.6271e-05,5,1
-2.291298e-05,0.0001741585,5,1
-7.833932e-05,0.0002889007,5,1
-0.0001464067,0.0003976466,5,1
-0.0002182017,0.000468145,5,1
-0.0002870794,0.0004801379,5,1
-0.000345585,0.0004444835,5,1
-0.0003901529,0.0003947294,5,1
-0.0004193247,0.0003668542,5,1
-0.0004295348,0.000373985,5,1
-0.0004196489,0.0004073705,5,1
-0.0003875599,0.0004397836,5,1
-0.000335537,0.0004493454,5,1
-0.0002723315,0.0004279528,5,1
-0.0002076674,0.0003846814,5,1
-0.000152079,0.0003344411,5,1
-0.0001152902,0.0002876042,5,1
-0.0001044318,0.0002467637,5,1
-0.0001136696,0.0002120818,5,1
-0.0001191798,0.000185341,5,1
-0.0001029732,0.0001668655,5,1
-6.780507e-05,0.0001564933,5,1
-2.89094e-05,0.0001509831,5,1
-5.479652e-07,0.0001446626,5,1
9.013889e-06,0.0001326697,5,1
-2.330684e-06,0.0001146805,5,1
-2.712668e-05,9.717743e-05,5,1
-5.808115e-05,8.502253e-05,5,1
-8.02841e-05,7.837785e-05,5,1
-5.986387e-05,7.497447e-05,5,1
4.256141e-05,7.400208e-05,5,1
0.0002318537,7.351589e-05,5,1
0.0004613383,7.076078e-05,5,1
0.000658896,5.94162e-05,5,1
0.0007652109,3.721326e-05,5,1
0.0007631041,9.338019e-06,5,1
0.0006747784,-1.383732e-05,5,1
0.0005391297,-2.437157e-05,5,1
0.0003921364,-2.242678e-05,5,1
0.0002537325,-8.489166e-06,5,1
0.0001302388,1.079661e-05,5,1
1.630683e-05,2.76514e-05,5,1
-9.162867e-05,3.737532e-05,5,1
-0.0001851404,4.045456e-05,5,1
-0.0002426735,3.494434e-05,5,1
-0.0002344082,1.776542e-05,5,1
-0.0001491618,-1.367526e-05,5,1
8.689758e-06,-5.516398e-05,5,1
0.000227478,-9.730096e-05,5,1
0.0004887274,-0.0001324691,5,1
0.0007556491,-0.0001571031,5,1
0.0009791374,-0.0001721751,5,1
0.001110572,-0.0001848162,5,1
0.001127752,-0.0002003745,5,1
0.001051257,-0.0002217671,5,1
0.0009344073,-0.0002460769,5,1
0.0008259855,-0.0002724935,5,1
0.0007344186,-0.0002945344,5,1
0.0006397723,-0.0003068514,5,1
0.0005188715,-0.0003062031,5,1
0.0003816021,-0.0002940482,5,1
0.0002684805,-0.0002755728,5,1
0.0002187264,-0.000253856,5,1
0.0002378501,-0.000231329,5,1
0.0002872801,-0.0002096122,5,1
0.0003075383,-0.0001903264,5,1
0.0002564877,-0.0001746061,5,1
0.000128294,-0.0001637477,5,1
-4.171256e-05,-0.0001590478,5,1
-0.0002000504,-0.000161965,5,1
-0.0003036101,-0.0001695821,5,1
-0.0003517435,-0.0001759026,5,1
-0.0003801049,-0.000174444,5,1
-0.0004245108,-0.0001566169,5,1
-0.0004898231,-0.0001224211,5,1
-0.0005499493,-7.866345e-05,5,1
-0.000578797,-3.344723e-05,5,1
-0.0005676145,1.209313e-05,5,1
-0.000524181,5.56887e-05,5,1
-0.000474589,9.798775e-05,5,1
-0.0004415277,0.0001376938,5,1
-0.0004280762,0.0001720516,5,1
-0.0004214316,0.0002073819,5,1
-0.000407656,0.0002477361,5,1
-0.0003707051,0.0002869559,5,1
-0.0003052308,0.0003120761,5,1
-0.0002235498,0.0003240689,5,1
-0.000144624,0.0003269861,5,1
-7.477388e-05,0.0003206656,5,1
-1.196227e-06,0.0003021901,5,1
8.567078e-05,0.0002692908,5,1
0.0001812893,0.0002263435,5,1
0.0002538946,0.0001799928,5,1
0.0002725321,0.0001352628,5,1
0.0002412535,9.652917e-05,5,1
0.0002143507,6.427817e-05,5,1
0.0002422259,3.818565e-05,5,1
0.0003295791,2.133085e-05,5,1
0.0004318424,1.54965e-05,5,1
0.0005055821,1.841368e-05,5,1
0.0005227611,2.181705e-05,5,1
0.0004663623,1.938607e-05,5,1
0.0003307136,1.095867e-05,5,1
0.0001351007,3.989864e-06,5,1
-7.736692e-05,8.527692e-06,5,1
-0.0002583939,2.797553e-05,5,1
-0.0003765395,5.828175e-05,5,1
-0.0004318037,8.42122e-05,5,1
-0.000449793,9.101894e-05,5,1
-0.0004695649,7.270556e-05,5,1
-0.0005209396,2.748934e-05,5,1
-0.0006180168,-3.539201e-05,5,1
-0.0007533412,-9.584238e-05,5,1
-0.0008995241,-0.0001358725,5,1
-0.001016859,-0.000144624,5,1
-0.001071475,-0.000127283,5,1
-0.001054783,-9.649064e-05,5,1
-0.0009896324,-7.396356e-05,5,1
-0.0009116791,-7.104638e-05,5,1
-0.0008513908,-8.757704e-05,5,1
-0.0008191398,-0.0001125351,5,1
-0.0008024471,-0.0001324691,5,1
-0.0007813785,-0.0001392759,5,1
-0.0007376209,-0.0001378173,5,1
-0.0006695535,-0.0001323071,5,1
-0.0005826865,-0.0001235555,5,1
-0.0004830164,-0.0001133454,5,1
-0.0003757291,-0.000104918,5,1
-0.000263742,-9.632857e-05,5,1
-0.0001608306,-8.676672e-05,5,1
-8.255302e-05,-7.931171e-05,5,1
-4.284701e-05,-7.623246e-05,5,1
-4.414354e-05,-7.979791e-05,5,1
-6.942573e-05,-8.806324e-05,5,1
-9.454585e-05,-9.956988e-05,5,1
-0.0001131834,-0.0001105903,5,1
-0.000134738,-0.0001156143,5,1
-0.000169258,-0.0001159385,5,1
-0.0002183637,-0.0001167488,5,1
-0.0002780038,-0.0001206384,5,1
-0.0003397507,-0.0001240417,5,1
-0.0003911253,-0.0001240417,5,1
-0.0004146248,-0.000119666,5,1
-0.0003925839,-0.0001088076,5,1
-0.0003175477,-9.211487e-05,5,1
-0.0002058847,-7.250496e-05,5,1
-8.579432e-05,-5.030202e-05,5,1
2.716521e-05,-2.258885e-05,5,1
0.0001448246,1.241726e-05,5,1
0.0003052694,5.19612e-05,5,1
0.0005409124,8.923623e-05,5,1
0.0008486747,0.0001148425,5,1
0.001181719,0.0001273216,5,1
0.001473599,0.0001266733,5,1
0.00168785,0.0001156529,5,1
0.00183922,0.0001000946,5,1
0.001969359,8.79397e-05,5,1
0.002097553,8.275361e-05,5,1
0.002194955,8.567078e-05,5,1
0.002210837,9.831188e-05,5,1
0.002114084,0.0001201907,5,1
0.00191296,0.0001435281,5,1
0.001650413,0.0001589243,5,1
0.001382681,0.0001642725,5,1
0.001153034,0.0001628139,5,1
0.0009775168,0.0001610312,5,1
0.0008481885,0.0001633001,5,1
0.0007350668,0.0001699448,5,1
0.0005952043,0.0001786963,5,1
0.0004023465,0.0001869616,5,1
0.0001633001,0.0001940925,5,1
-8.384954e-05,0.0001994406,5,1
-0.0003021515,0.0002044647,5,1
-0.0004886886,0.0002098128,5,1
-0.0006711741,0.0002132162,5,1
-0.0008876934,0.0002112714,5,1
-0.001147322,0.0001991165,5,1
-0.001422833,0.0001714034,5,1
-0.001669659,0.000128456,5,1
-0.001845986,7.967438e-05,5,1
-0.001934149,3.786152e-05,5,1
-0.001939335,1.565857e-05,5,1
-0.001881478,1.533444e-05,5,1
-0.001776298,2.829966e-05,5,1
-0.001627197,4.628891e-05,5,1
-0.001440984,6.087479e-05,5,1
-0.001234189,6.83298e-05,5,1
-0.001032256,6.638502e-05,5,1
-0.0008466908,5.730935e-05,5,1
-0.000675874,4.239934e-05,5,1
-0.0005048952,2.100672e-05,5,1
-0.0003204649,-2.978945e-06,5,1
-0.0001182074,-2.210265e-05,5,1
9.053275e-05,-2.696461e-05,5,1
0.0002887387,-9.623623e-06,5,1
0.0004589073,2.538249e-05,5,1
0.0005930975,5.99024e-05,5,1
0.000690823,7.465034e-05,5,1
0.0007545147,5.957827e-05,5,1
0.0008007033,1.873781e-05,5,1
0.0008559676,-3.101625e-05,5,1
0.0009412141,-7.542214e-05,5,1
0.001047529,-0.000104918,5,1
0.001141689,-0.0001212866,5,1
0.001189498,-0.0001266348,5,1
0.001177992,-0.0001266348,5,1
0.001109114,-0.000127121,5,1
0.0009904819,-0.0001308485,5,1
0.0008425161,-0.0001358725,5,1
0.0006992503,-0.0001415448,5,1
0.0005986077,-0.0001468929,5,1
0.0005577672,-0.0001465688,5,1
0.0005441537,-0.0001353863,5,1
0.0005135234,-0.0001180453,5,1
0.0004477248,-0.0001037836,5,1
0.000353889,-0.0001015147,5,1
0.000252274,-0.000112373,5,1
0.0001726999,-0.0001285796,5,1
0.0001362352,-0.0001402483,5,1
0.000135911,-0.0001439758,5,1
0.0001409351,-0.0001407345,5,1
0.0001188942,-0.0001361966,5,1
5.698522e-05,-0.0001358725,5,1
-3.150244e-05,-0.0001392759,5,1
-0.0001240417,-0.0001415448,5,1
-0.0002031296,-0.0001358725,5,1
-0.000261149,-0.0001169109,5,1
-0.0002943724,-8.579432e-05,5,1
-0.0003070135,-4.884343e-05,5,1
-0.0003162512,-1.480971e-05,5,1
-0.0003371576,1.355172e-05,5,1
-0.0003702189,3.348575e-05,5,1
-0.0004149489,4.288554e-05,5,1
-0.0004653512,4.158902e-05,5,1
-0.0005091089,3.024445e-05,5,1
-0.0005275843,1.484824e-05,5,1
-0.0005147812,-6.176923e-08,5,1
-0.0004792889,-8.975362e-06,5,1
-0.0004433104,-7.678839e-06,5,1
-0.0004280762,5.934648e-06,5,1
-0.0004436345,2.700314e-05,5,1
-0.00048723,5.001642e-05,5,1
-0.0005399013,6.995045e-05,5,1
-0.0005796073,8.372601e-05,5,1
-0.0005846313,9.426025e-05,5,1
-0.0005439529,0.0001088461,5,1
-0.0004648651,0.0001292664,5,1
-0.0003682741,0.00015309,5,1
-0.0002797865,0.0001782101,5,1
-0.000213988,0.0002031682,5,1
-0.0001757406,0.0002278021,5,1
-0.0001630995,0.0002467637,5,1
-0.0001784957,0.0002521119,5,1
-0.0002256567,0.0002336365,5,1
-0.0003039342,0.0001921477,5,1
-0.0003972838,0.0001362352,5,1
-0.0004865818,7.90261e-05,5,1
-0.0005616181,3.640293e-05,5,1
-0.0006206098,1.841368e-05,5,1
-0.0006603158,2.554455e-05,5,1
-0.0006731189,4.790957e-05,5,1
-0.0006486471,7.254349e-05,5,1
-0.0005932208,9.004655e-05,5,1
-0.0005300153,9.426025e-05,5,1
-0.000479613,8.388807e-05,5,1
-0.0004535205,6.006447e-05,5,1
-0.0004501171,3.105477e-05,5,1
-0.0004538446,6.420843e-06,5,1
-0.0004416897,-9.461558e-06,5,1
-0.000400201,-1.918548e-05,5,1
-0.0003269475,-2.356124e-05,5,1
-0.000231491,-1.837515e-05,5,1
-0.0001302002,-2.238346e-07,5,1
-3.247483e-05,2.927205e-05,5,1
5.406805e-05,5.52025e-05,5,1
0.0001203528,6.184718e-05,5,1
0.0001571416,4.402e-05,5,1
0.0001644345,5.610517e-06,5,1
0.0001547106,-4.38194e-05,5,1
0.0001451488,-9.260107e-05,5,1
0.0001467694,-0.0001293899,5,1
0.0001610312,-0.0001496481,5,1
0.000185341,-0.0001491618,5,1
0.0002221298,-0.0001274451,5,1
0.0002884145,-8.757704e-05,5,1
0.0004018603,-4.155049e-05,5,1
0.000572029,-6.220252e-06,5,1
0.0007759072,2.04508e-06,5,1
0.0009566103,-1.983374e-05,5,1
0.001042181,-6.375344e-05,5,1
0.0009942095,-0.0001154523,5,1
0.0008405714,-0.0001661787,5,1
0.0006668373,-0.0002109087,5,1
0.0005624671,-0.0002418632,5,1
0.0005764047,-0.0002504527,5,1
0.0007062191,-0.0002410529,5,1
0.0009096113,-0.0002241981,5,1
0.001120134,-0.0002143121,5,1
0.001279607,-0.0002130156,5,1
0.001357398,-0.0002096122,5,1
0.001342164,-0.0001953505,5,1
0.001239577,-0.0001679614,5,1
0.001066977,-0.000134576,5,1
0.0008485126,-0.0001063766,5,1
0.0006149763,-9.017008e-05,5,1
0.0003947294,-8.514606e-05,5,1
0.0002047888,-8.611845e-05,5,1
5.19612e-05,-8.611845e-05,5,1
-6.326724e-05,-7.623246e-05,5,1
-0.0001417068,-4.949169e-05,5,1
-0.0001887058,-4.761664e-06,5,1
-0.0002169052,4.904402e-05,5,1
-0.0002426735,9.68533e-05,5,1
-0.0002780038,0.0001260251,5,1
-0.0003225718,0.0001318594,5,1
-0.0003614674,0.0001205148,5,1
-0.0003768636,0.00010366,5,1
-0.0003616295,9.620504e-05,5,1
-0.0003275957,0.0001039842,5,1
-0.0002893484,0.0001245665,5,1
-0.000246401,0.0001470936,5,1
-0.0001961608,0.0001668655,5,1
-0.0001493239,0.0001867996,5,1
-0.0001203142,0.0002068957,5,1
-0.0001086455,0.0002248849,5,1
-9.940781e-05,0.0002360674,5,1
-7.574627e-05,0.0002372019,5,1
-3.717473e-05,0.00022764,5,1
-1.034161e-06,0.0002078681,5,1
1.403791e-05,0.0001825859,5,1
5.610517e-06,0.0001564933,5,1
-6.058186e-06,0.0001346145,5,1
7.393236e-06,0.0001216493,5,1
6.914012e-05,0.0001205148,5,1
0.0001811273,0.0001294284,5,1
0.0003195311,0.000143204,5,1
0.0004483731,0.000158114,5,1
0.0005328091,0.0001712413,5,1
0.0005530673,0.0001827479,5,1
0.0005046097,0.0001979821,5,1
0.0003989431,0.0002203471,5,1
0.0002566497,0.0002446569,5,1
0.0001047945,0.0002621599,5,1
-3.701266e-05,0.0002624841,5,1
-0.0001622891,0.0002334744,5,1
-0.0002689281,0.0001773998,5,1
-0.0003570916,0.0001088461,5,1
-0.000424997,4.645098e-05,5,1
-0.0004684305,4.244267e-07,5,1
-0.0004841508,-2.534396e-05,5,1
-0.0004784786,-3.555408e-05,5,1
-0.0004684305,-3.895745e-05,5,1
-0.0004713477,-4.203669e-05,5,1
-0.0004911196,-5.078821e-05,5,1
-0.00051705,-6.537409e-05,5,1
-0.0005316359,-8.692878e-05,5,1
-0.0005240189,-0.0001157764,5,1
-0.000496954,-0.0001464067,5,1
-0.0004640547,-0.0001713648,5,1
-0.0004387725,-0.0001872472,5,1
-0.00042759,-0.0001938919,5,1
-0.0004285624,-0.0001971332,5,1
-0.0004358554,-0.0001955125,5,1
-0.0004416897,-0.0001818991,5,1
-0.0004436345,-0.0001511067,5,1
-0.0004467137,-0.0001112386,5,1
-0.0004583824,-7.688073e-05,5,1
-0.0004799371,-6.245691e-05,5,1
-0.0004998712,-6.472583e-05,5,1
-0.0005100812,-7.55842e-05,5,1
-0.0005086227,-8.611845e-05,5,1
-0.0004943609,-8.239095e-05,5,1
-0.0004661616,-5.59743e-05,5,1
-0.0004245108,-1.140634e-05,5,1
-0.000360495,3.105477e-05,5,1
-0.0002617972,4.645098e-05,5,1
-0.0001191798,1.906194e-05,5,1
5.828175e-05,-4.317115e-05,5,1
0.0002401191,-0.0001125351,5,1
0.000391164,-0.0001653684,5,1
0.0004875929,-0.0001904885,5,1
0.0005235714,-0.0001925954,5,1
0.0005041235,-0.0001861127,5,1
0.0004381629,-0.0001840059,5,1
0.0003396272,-0.000186761,5,1
0.0002240746,-0.0001833576,5,1
0.0001051186,-0.0001575893,5,1
-8.813297e-06,-0.0001005423,5,1
-0.0001118868,-1.837515e-05,5,1
-0.0001904885,6.849186e-05,5,1
-0.0002365151,0.0001406109,5,1
-0.0002499665,0.0001843686,5,1
-0.0002483458,0.0002015475,5,1
-0.0002567732,0.000200251,5,1
-0.0002974516,0.0001895547,5,1
-0.000377836,0.0001746447,5,1
-0.0004860956,0.0001597346,5,1
-0.0005933828,0.0001483901,5,1
-0.0006650157,0.0001414213,5,1
-0.0006760361,0.0001391524,5,1
-0.0006175305,0.0001389903,5,1
-0.0005047331,0.0001386662,5,1
-0.0003651949,0.0001325077,5,1
-0.0002209568,0.000115977,5,1
-8.044617e-05,8.74535e-05,5,1
5.828175e-05,4.855783e-05,5,1
0.0002012234,4.80019e-06,5,1
0.000356644,-3.652646e-05,5,1
0.0005271368,-7.623246e-05,5,1
0.0007159431,-0.0001125351,5,1
0.0009332729,-0.0001392759,5,1
0.001196305,-0.0001530514,5,1
0.001513306,-0.0001571031,5,1
0.001866447,-0.0001538618,5,1
0.002212944,-0.0001454344,5,1
0.002501583,-0.0001314967,5,1
0.002687798,-0.0001128592,5,1
0.002741766,-8.790117e-05,5,1
0.002661057,-5.192267e-05,5,1
0.002463498,9.013889e-06,5,1
0.002174534,0.0001028497,5,1
0.001816369,0.0002206712,5,1
0.001412339,0.0003438409,5,1
0.0009838373,0.0004486972,5,1
0.0005665187,0.0005148199,5,1
0.0002023578,0.0005313505,5,1
-7.574627e-05,0.000500396,5,1
-0.0002570974,0.0004290873,5,1
-0.0003538503,0.000339303,5,1
-0.0004036044,0.0002527602,5,1
-0.0004533584,0.0001806411,5,1
-0.0005330946,0.0001248906,5,1
-0.0006416783,8.129502e-05,5,1
-0.0007635514,4.661304e-05,5,1
-0.0008748902,1.387585e-05,5,1
-0.0009515471,-2.712668e-05,5,1
-0.0009745604,-8.07703e-05,5,1
-0.0009411749,-0.0001452723,5,1
-0.0008771592,-0.0002136638,5,1
-0.0008202742,-0.0002791382,5,1
-0.0008019609,-0.0003324577,5,1
-0.0008317808,-0.0003666535,5,1
-0.0008969311,-0.0003804291,5,1
-0.0009774775,-0.0003797808,5,1
-0.001058024,-0.0003728119,5,1
-0.001124471,-0.0003668155,5,1
-0.001163529,-0.0003647087,5,1
-0.001166446,-0.0003645466,5,1
-0.001132574,-0.0003561192,5,1
-0.001067424,-0.0003303509,5,1
-0.0009825015,-0.0002771934,5,1
-0.0008880175,-0.0001929195,5,1
-0.0007893197,-8.579432e-05,5,1
-0.0006833291,1.582063e-05,5,1
-0.0005682627,8.226741e-05,5,1
-0.0004496309,9.701536e-05,5,1
-0.0003420196,6.476436e-05,5,1
-0.0002556388,9.66215e-06,5,1
-0.0001903264,-4.738484e-05,5,1
-0.0001376552,-9.081835e-05,5,1
-9.29252e-05,-0.0001186936,5,1
-5.824322e-05,-0.0001326312,5,1
-3.960571e-05,-0.0001361966,5,1
-4.284701e-05,-0.000127121,5,1
-7.23429e-05,-0.0001037836,5,1
-0.000119828,-6.926366e-05,5,1
-0.0001665028,-2.858527e-05,5,1
-0.0001958367,1.290346e-05,5,1
-0.0002047502,4.758544e-05,5,1
-0.0001959987,7.092284e-05,5,1
-0.0001684476,8.388807e-05,5,1
-0.0001253383,8.761557e-05,5,1
-8.190475e-05,8.372601e-05,5,1
-5.613637e-05,7.481241e-05,5,1
-5.32192e-05,5.974033e-05,5,1
-5.257093e-05,4.077869e-05,5,1
-2.064406e-05,2.197911e-05,5,1
5.698522e-05,4.313994e-06,5,1
0.0001665414,-7.516774e-06,5,1
0.0002830664,-1.318906e-05,5,1
0.0003848434,-1.092015e-05,5,1
0.0004542074,2.531276e-06,5,1
0.000480462,2.829966e-05,5,1
0.000458259,6.541262e-05,5,1
0.000391164,0.000105929,5,1
0.0002929524,0.0001415833,5,1
0.0001872858,0.0001673517,5,1
0.0001012291,0.0001825859,5,1
5.19612e-05,0.0001900409,5,1
3.688912e-05,0.0001937684,5,1
4.207521e-05,0.0001893926,5,1
4.369587e-05,0.0001726999,5,1
2.505836e-05,0.0001423936,5,1
-2.015787e-05,0.0001049566,5,1
-8.222889e-05,6.914012e-05,5,1
-0.0001454344,4.72613e-05,5,1
-0.0001963229,4.645098e-05,5,1
-0.0002241981,6.379197e-05,5,1
-0.0002235498,8.664318e-05,5,1
-0.0001982676,0.0001028497,5,1
-0.0001627754,0.0001056048,5,1
-0.0001336036,9.523264e-05,5,1
-0.0001169109,7.708133e-05,5,1
-0.0001042698,5.94162e-05,5,1
-9.130454e-05,5.828175e-05,5,1
-8.109443e-05,9.134307e-05,5,1
-8.271508e-05,0.000160545,5,1
-0.0001031353,0.0002491947,5,1
-0.0001434896,0.0003286068,5,1
-0.0002000504,0.0003697714,5,1
-0.0002541802,0.0003602095,5,1
-0.000268604,0.0003039728,5,1
-0.0002057227,0.0002208333,5,1
-4.965376e-05,0.0001325077,5,1
0.0001731861,5.649903e-05,5,1
0.0004096394,-2.168618e-06,5,1
0.0006039558,-4.219875e-05,5,1
0.0007209671,-6.537409e-05,5,1
0.0007468975,-7.931171e-05,5,1
0.0006911471,-9.065628e-05,5,1
0.0005742979,-9.956988e-05,5,1
0.0004277907,-0.0001007043,5,1
0.0002783665,-8.935975e-05,5,1
0.0001391524,-6.342931e-05,5,1
1.452411e-05,-2.826114e-05,5,1
-9.341139e-05,6.582909e-06,5,1
-0.0001801163,3.332369e-05,5,1
-0.000246239,4.661304e-05,5,1
-0.0002979378,4.499239e-05,5,1
-0.0003465574,3.364782e-05,5,1
-0.0004040906,2.34377e-05,5,1
-0.0004805854,2.116879e-05,5,1
-0.0005695592,2.424803e-05,5,1
-0.0006512401,2.424803e-05,5,1
-0.0007058561,1.792748e-05,5,1
-0.0007147697,3.179537e-06,5,1
-0.0006575607,-1.918548e-05,5,1
-0.0005160777,-5.111234e-05,5,1
-0.0002938862,-9.017008e-05,5,1
-3.020592e-05,-0.0001292278,5,1
0.0002171058,-0.0001598582,5,1
0.0004063981,-0.0001749302,5,1
0.0005366987,-0.0001746061,5,1
0.0006349103,-0.0001695821,5,1
0.0007409012,-0.0001731475,5,1
0.0008877325,-0.0001912988,5,1
0.001077187,-0.0002160948,5,1
0.001277986,-0.0002321393,5,1
0.00143989,-0.0002323013,5,1
0.001521733,-0.00021415,5,1
0.001515088,-0.0001857886,5,1
0.001442807,-0.0001596961,5,1
0.001334871,-0.0001410586,5,1
0.001207002,-0.0001287416,5,1
0.001057577,-0.0001173971,5,1
0.0008778464,-0.0001002181,5,1
0.0006678096,-7.720486e-05,5,1
0.0004360561,-5.2733e-05,5,1
0.0002005751,-3.004385e-05,5,1
-9.623623e-06,-7.030578e-06,5,1
-0.0001580754,2.619281e-05,5,1
-0.0002232257,7.967438e-05,5,1
-0.0002301945,0.00015309,5,1
-0.0002421874,0.0002279642,5,1
-0.0003162512,0.0002827423,5,1
-0.0004689167,0.0003018659,5,1
-0.0006711741,0.0002854973,5,1
-0.0008612768,0.0002466017,5,1
-0.0009792603,0.0001966855,5,1
-0.0009925497,0.000148228,5,1
-0.0009063309,0.0001072255,5,1
-0.0007415105,7.6271e-05,5,1
-0.0005222362,5.763349e-05,5,1
-0.0002669833,5.1475e-05,5,1
9.824215e-06,5.633696e-05,5,1
0.0002853353,6.46023e-05,5,1
0.0005276231,6.703327e-05,5,1
0.0007151327,5.374392e-05,5,1
0.0008439748,2.165498e-05,5,1
0.000913825,-2.275091e-05,5,1
0.0009193352,-6.81292e-05,5,1
0.0008629364,-0.0001024871,5,1
0.0007661834,-0.0001161005,5,1
0.0006684579,-0.0001081593,5,1
0.0005939078,-8.368748e-05,5,1
0.0005439916,-4.722278e-05,5,1
0.000492779,-4.275467e-06,5,1
0.0004062361,3.089271e-05,5,1
0.0002699391,4.596478e-05,5,1
9.896015e-05,3.267542e-05,5,1
-6.618442e-05,-4.113403e-06,5,1
-0.0001844921,-4.560212e-05,5,1
-0.0002305186,-6.942573e-05,5,1
-0.0001882196,-6.099833e-05,5,1
-6.602235e-05,-2.356124e-05,5,1
9.63671e-05,2.489629e-05,5,1
0.0002318537,5.909208e-05,5,1
0.0002718839,6.168512e-05,5,1
0.0001775618,3.121684e-05,5,1
-3.198864e-05,-1.837515e-05,5,1
-0.0002927517,-7.688073e-05,5,1
-0.0005223983,-0.0001358725,5,1
-0.0006625847,-0.0001877334,5,1
-0.0006967805,-0.0002220912,5,1
-0.0006612882,-0.0002303566,5,1
-0.0006178547,-0.0002125294,5,1
-0.0006219063,-0.0001776853,5,1
-0.0006948357,-0.0001361966,5,1
-0.0008180053,-9.2439e-05,5,1
-0.0009552746,-4.835724e-05,5,1
-0.001065317,-7.354709e-06,5,1
-0.001125605,2.457216e-05,5,1
-0.001139705,4.72613e-05,5,1
-0.001137274,5.876794e-05,5,1
-0.00115348,5.730935e-05,5,1
-0.00120129,4.807163e-05,5,1
-0.001254123,3.575467e-05,5,1
-0.001263199,2.34377e-05,5,1
-0.0011974,1.1769e-05,5,1
-0.001059969,2.04508e-06,5,1
-0.0008781315,-4.923729e-06,5,1
-0.0006796016,-7.030578e-06,5,1
-0.0004817198,-4.923729e-06,5,1
-0.0002977757,-1.358292e-06,5,1
-0.000144624,1.072688e-06,5,1
-3.668853e-05,1.558884e-06,5,1
2.34377e-05,-1.358292e-06,5,1
4.564065e-05,-9.623623e-06,5,1
4.256141e-05,-2.194059e-05,5,1
2.716521e-05,-3.312309e-05,5,1
1.355172e-05,-3.717473e-05,5,1
1.59827e-05,-3.279896e-05,5,1
4.709924e-05,-2.485776e-05,5,1
0.0001150046,-1.578211e-05,5,1
0.0002122438,-4.599598e-06,5,1
0.0003172622,8.851824e-06,5,1
0.0004029947,2.376183e-05,5,1
0.000460528,3.818565e-05,5,1
0.0005031512,5.034055e-05,5,1
0.0005542018,5.893001e-05,5,1
0.0006187038,6.881599e-05,5,1
0.0006752646,8.437427e-05,5,1
0.000693416,0.0001056048,5,1
0.0006608408,0.0001260251,5,1
0.0005833735,0.0001401247,5,1
0.0004846757,0.0001445005,5,1
0.0003816021,0.0001414213,5,1
0.0002799871,0.0001362352,5,1
0.0001764274,0.0001360731,5,1
7.384002e-05,0.0001451488,5,1
-2.0482e-05,0.0001618415,5,1
-9.875954e-05,0.0001819376,5,1
-0.0001512687,0.000200251,5,1
-0.0001721751,0.0002093267,5,1
-0.0001626133,0.0002015475,5,1
-0.0001316588,0.0001759412,5,1
-9.924574e-05,0.0001372076,5,1
-8.887356e-05,9.750156e-05,5,1
-0.00010978,6.897806e-05,5,1
-0.000164396,5.860588e-05,5,1
-0.0002501286,6.200925e-05,5,1
-0.0003483401,6.995045e-05,5,1
-0.0004267797,7.643307e-05,5,1
-0.0004556273,7.384002e-05,5,1
-0.0004180282,5.747142e-05,5,1
-0.0003193304,2.910999e-05,5,1
-0.0001810887,-5.57199e-06,5,1
-3.312309e-05,-3.895745e-05,5,1
9.231547e-05,-6.845333e-05,5,1
0.0001702689,-9.19528e-05,5,1
0.0001936063,-0.0001101041,5,1
0.0001759412,-0.000122097,5,1
0.0001454729,-0.0001311726,5,1
0.0001295905,-0.0001408965,5,1
0.0001422316,-0.00015451,5,1
0.0001825859,-0.0001687718,5,1
0.000237526,-0.0001749302,5,1
0.0002882525,-0.0001629374,5,1
0.0003203414,-0.0001300382,5,1
0.0003239069,-8.07703e-05,5,1
0.0002968419,-2.372331e-05,5,1
0.0002402811,2.570662e-05,5,1
0.0001696206,5.001642e-05,5,1
0.0001128978,4.515445e-05,5,1
9.652917e-05,1.97102e-05,5,1
0.0001372076,-1.237873e-05,5,1
0.0002402811,-3.960571e-05,5,1
0.0003963501,-5.370539e-05,5,1
0.0005757565,-4.949169e-05,5,1
0.000743008,-3.004385e-05,5,1
0.0008674743,-5.57199e-06,5,1
0.0009196594,1.436204e-05,5,1
0.0008776844,2.01964e-05,5,1
0.0007421977,3.503668e-06,5,1
0.0005491778,-3.766092e-05,5,1
0.0003626405,-9.341139e-05,5,1
0.0002467637,-0.000152079,5,1
0.0002357433,-0.0002024813,5,1
0.0003235827,-0.000233922,5,1
0.0004704139,-0.0002405667,5,1
0.0006180556,-0.000223874,5,1
0.0007164293,-0.0001932436,5,1
0.0007409012,-0.0001622891,5,1
0.0006979538,-0.0001400862,5,1
0.0006247002,-0.0001290658,5,1
0.0005584154,-0.0001276072,5,1
0.0005059062,-0.0001344139,5,1
0.0004652279,-0.0001478653,5,1
0.0004389733,-0.0001571031,5,1
0.0004326527,-0.0001460826,5,1
0.0004352458,-0.0001054042,5,1
0.0004250357,-3.911951e-05,5,1
0.0003867882,3.040651e-05,5,1
0.0003136967,7.935024e-05,5,1
0.0002054371,9.442231e-05,5,1
7.789165e-05,8.323981e-05,5,1
-4.284701e-05,6.78436e-05,5,1
-0.0001298761,7.335383e-05,5,1
-0.0001729855,0.0001222976,5,1
-0.0001833576,0.0002179161,5,1
-0.0001838438,0.000341572,5,1
-0.0002026434,0.0004576108,5,1
-0.0002545043,0.0005318367,5,1
-0.0003418575,0.000542209,5,1
-0.0004504412,0.0004947237,5,1
-0.0005552975,0.0004148255,5,1
-0.0006330888,0.0003320101,5,1
-0.0006802498,0.0002675081,5,1
-0.0007097457,0.0002284504,5,1
-0.0007368106,0.0002135403,5,1
-0.0007659824,0.0002096508,5,1
-0.0007881853,0.0002073819,5,1
-0.0007872129,0.0002013854,5,1
-0.0007466965,0.0001902029,5,1
-0.000663395,0.0001741585,5,1
-0.0005587008,0.0001537382,5,1
-0.0004600031,0.000130887,5,1
-0.0003796187,0.0001075496,5,1
-0.0003185201,8.145709e-05,5,1
-0.0002833519,5.406805e-05,5,1
-0.0002771934,2.878586e-05,5,1
-0.0002964792,9.986281e-06,5,1
-0.0003194925,-1.358292e-06,5,1
-0.0003287302,-9.623623e-06,5,1
-0.0003240303,-1.983374e-05,5,1
-0.000318196,-3.085418e-05,5,1
-0.0003262992,-4.187462e-05,5,1
-0.0003517435,-5.483985e-05,5,1
-0.0003912874,-6.715681e-05,5,1
-0.0004368278,-7.299116e-05,5,1
-0.000482206,-7.039812e-05,5,1
-0.0005228845,-6.375344e-05,5,1
-0.0005564319,-5.986387e-05,5,1
-0.0005750695,-6.002594e-05,5,1
-0.0005721523,-6.537409e-05,5,1
-0.0005603215,-7.477388e-05,5,1
-0.0005638869,-8.692878e-05,5,1
-0.0006024585,-0.0001039456,5,1
-0.0006736051,-0.0001284175,5,1
-0.000752693,-0.0001632615,5,1
-0.000809902,-0.0002113949,5,1
-0.0008351842,-0.0002668213,5,1
-0.0008358325,-0.0003198166,5,1
-0.0008133054,-0.0003611433,5,1
-0.0007546378,-0.0003830221,5,1
-0.0006544815,-0.0003864254,5,1
-0.0005146191,-0.0003776739,5,1
-0.0003410472,-0.0003624398,5,1
-0.0001441378,-0.000338292,5,1
5.795762e-05,-0.0003029619,5,1
0.0002466017,-0.0002551526,5,1
0.0004078567,-0.000196647,5,1
0.0005410745,-0.0001386276,5,1
0.0006535479,-9.713889e-05,5,1
0.0007540284,-7.736692e-05,5,1
0.0008478644,-7.55842e-05,5,1
0.0009365142,-7.720486e-05,5,1
0.001015764,-6.942573e-05,5,1
0.001075728,-4.252288e-05,5,1
0.001110572,4.638125e-06,5,1
0.001118514,6.395404e-05,5,1
0.001102145,0.000125863,5,1
0.001071353,0.0001767515,5,1
0.00103505,0.0002017096,5,1
0.0009984232,0.0001965235,5,1
0.000958231,0.0001673517,5,1
0.0009002115,0.0001261871,5,1
0.0008070238,8.810177e-05,5,1
0.0006775336,6.395404e-05,5,1
0.0005269747,5.649903e-05,5,1
0.0003769022,6.217132e-05,5,1
0.0002469258,7.90261e-05,5,1
0.000150659,0.0001056048,5,1
9.490851e-05,0.0001420695,5,1
7.254349e-05,0.0001908512,5,1
6.346784e-05,0.0002550291,5,1
4.499239e-05,0.0003286068,5,1
1.160693e-05,0.0003924605,5,1
-3.134038e-05,0.000428439,5,1
-8.644259e-05,0.0004281149,5,1
-0.0001642339,0.0003952156,5,1
-0.0002645523,0.0003444891,5,1
-0.0003708672,0.0002918179,5,1
-0.000459679,0.0002440086,5,1
-0.0005155915,0.0002013854,5,1
-0.0005335807,0.0001691344,5,1
-0.0005186707,0.0001490383,5,1
-0.0004812336,0.0001401247,5,1
-0.0004352071,0.000135911,5,1
-0.0003901529,0.0001265113,5,1
-0.0003570916,0.0001052807,5,1
-0.0003399127,7.367795e-05,5,1
-0.0003348887,3.640293e-05,5,1
-0.0003366714,-5.085794e-06,5,1
-0.0003394265,-5.111234e-05,5,1
-0.0003345645,-0.0001002181,5,1
-0.0003136581,-0.0001511067,5,1
-0.0002799486,-0.0002008607,5,1
-0.0002455907,-0.000248832,5,1
-0.0002178775,-0.0002922655,5,1
-0.0001896782,-0.0003203028,5,1
-0.000149486,-0.0003243544,5,1
-8.368748e-05,-0.0002998826,5,1
1.54965e-05,-0.0002501286,5,1
0.0001493625,-0.0001791439,5,1
0.000316776,-9.746302e-05,5,1
0.000507527,-1.335113e-05,5,1
0.0006950366,6.444023e-05,5,1
0.0008459196,0.0001253768,5,1
0.0009363521,0.0001616794,5,1
0.0009710342,0.0001699448,5,1
0.000975572,0.0001511452,5,1
0.0009655239,0.0001150046,5,1
0.0009415382,7.238143e-05,5,1
0.0009036149,3.397195e-05,5,1
0.0008613158,6.90704e-06,5,1
0.0008261476,-9.785688e-06,5,1
0.0007969757,-2.372331e-05,5,1
0.0007567836,-3.766092e-05,5,1
0.0006846645,-5.370539e-05,5,1
0.0005705704,-7.039812e-05,5,1
0.0004247115,-8.255302e-05,5,1
0.0002701012,-8.935975e-05,5,1
0.0001281319,-9.146661e-05,5,1
6.420843e-06,-9.454585e-05,5,1
-9.811128e-05,-9.746302e-05,5,1
-0.0001945401,-0.0001034594,5,1
-0.0002942103,-0.0001144799,5,1
-0.0004018217,-0.0001331174,5,1
-0.0005128364,-0.0001571031,5,1
-0.0006181788,-0.0001838438,5,1
-0.0007052079,-0.0002136638,5,1
-0.0007687375,-0.0002421874,5,1
-0.0008199501,-0.0002629317,5,1
-0.0008667869,-0.0002703867,5,1
-0.0009034137,-0.0002643903,5,1
-0.0009225374,-0.0002483458,5,1
-0.0009202685,-0.0002237119,5,1
-0.0008930415,-0.0001981056,5,1
-0.0008478253,-0.0001820611,5,1
-0.0007962886,-0.0001822232,5,1
-0.0007434553,-0.0001950263,5,1
-0.0006865704,-0.0002122053,5,1
-0.0006176926,-0.0002209568,5,1
-0.0005240189,-0.0002110708,5,1
-0.0004021458,-0.0001815749,5,1
-0.0002658489,-0.0001336036,5,1
-0.0001451102,-7.153257e-05,5,1
-6.618442e-05,-4.275467e-06,5,1
-3.409549e-05,5.439218e-05,5,1
-3.539201e-05,9.069481e-05,5,1
-4.608832e-05,0.0001009049,5,1
-4.446767e-05,9.344993e-05,5,1
-1.67545e-05,8.178122e-05,5,1
3.60788e-05,8.129502e-05,5,1
0.000108522,0.0001009049,5,1
0.0001981441,0.0001368834,5,1
0.0003132105,0.0001793446,5,1
0.0004676588,0.0002164575,5,1
0.0006708889,0.0002444948,5,1
0.0009180387,0.0002660495,5,1
0.001184474,0.0002850112,5,1
0.001435352,0.0003004074,5,1
0.001626914,0.0003101313,5,1
0.001723019,0.0003145071,5,1
0.001698385,0.0003187208,5,1
0.001552201,0.0003290929,5,1
0.001308941,0.0003412479,5,1
0.001012037,0.0003425444,5,1
0.0007021675,0.0003248792,5,1
0.0004046154,0.0002908455,5,1
0.000128294,0.0002513016,5,1
-0.0001282554,0.0002138645,5,1
-0.0003609812,0.0001825859,5,1
-0.0005561078,0.0001613553,5,1
-0.0006964564,0.0001539003,5,1
-0.0007820268,0.000163138,5,1
-0.0008338877,0.0001850168,5,1
-0.0008794281,0.0002106232,5,1
-0.0009324234,0.0002290986,5,1
-0.0009854188,0.0002313675,5,1
-0.001022532,0.0002179161,5,1
-0.001036307,0.0001910133,5,1
-0.001028528,0.0001574657,5,1
-0.001012322,0.0001229458,5,1
-0.0009943324,8.956036e-05,5,1
-0.0009677536,5.795762e-05,5,1
-0.0009152445,2.927205e-05,5,1
-0.0008308084,4.80019e-06,5,1
-0.0007214144,-1.480971e-05,5,1
-0.0006040792,-3.101625e-05,5,1
-0.0005008436,-4.495386e-05,5,1
-0.0004308313,-5.872941e-05,5,1
-0.0003995528,-7.412562e-05,5,1
-0.0003875599,-9.227693e-05,5,1
-0.0003574158,-0.0001104282,5,1
-0.000268604,-0.0001287416,5,1
-9.405965e-05,-0.0001451102,5,1
0.0001586002,-0.0001606685,5,1
0.0004391353,-0.0001754164,5,1
0.0006773715,-0.0001888679,5,1
0.0008068618,-0.0001964849,5,1
0.0007956792,-0.0001927574,5,1
0.0006619753,-0.0001776853,5,1
0.0004673347,-0.000156941,5,1
0.0002936006,-0.0001391138,5,1
0.0002117576,-0.0001274451,5,1
0.0002487085,-0.00012469,5,1
0.0003715541,-0.0001326312,5,1
0.0005230852,-0.0001524032,5,1
0.0006545202,-0.000181737,5,1
0.0007344186,-0.0002147983,5,1
0.0007374978,-0.0002444563,5,1
0.000656303,-0.0002663351,5,1
0.0005044477,-0.0002776796,5,1
0.0003159656,-0.0002767073,5,1
0.0001370455,-0.0002676316,5,1
-1.196227e-06,-0.0002541802,5,1
-8.320128e-05,-0.000236353,5,1
-0.0001028112,-0.0002138259,5,1
-6.764301e-05,-0.0001912988,5,1
-8.975362e-06,-0.0001757406,5,1
2.943412e-05,-0.0001652063,5,1
2.149292e-05,-0.0001473791,5,1
-2.777494e-05,-0.0001110765,5,1
-8.725291e-05,-5.176061e-05,5,1
-0.0001151281,2.473423e-05,5,1
-8.887356e-05,0.0001026876,5,1
-1.950961e-05,0.0001626518,5,1
5.99024e-05,0.0001902029,5,1
0.0001229458,0.0001816135,5,1
0.0001511452,0.0001474177,5,1
0.0001329939,0.000103498,5,1
7.238143e-05,6.168512e-05,5,1
-1.399939e-05,2.76514e-05,5,1
-0.0001002181,-1.844488e-06,5,1
-0.0001703924,-2.485776e-05,5,1
-0.0002182017,-3.976777e-05,5,1
-0.0002428356,-4.770897e-05,5,1
-0.000241377,-4.462973e-05,5,1
-0.0002204706,-2.761287e-05,5,1
-0.0001882196,2.855407e-06,5,1
-0.0001541859,4.288554e-05,5,1
-0.0001284175,8.502253e-05,5,1
-0.0001203142,0.0001245665,5,1
-0.0001381414,0.0001600588,5,1
-0.000179306,0.0001867996,5,1
-0.0002266291,0.000205275,5,1
-0.0002549905,0.0002222919,5,1
-0.0002496423,0.0002435224,5,1
-0.0002175534,0.000267346,5,1
-0.0001799543,0.0002853353,5,1
-0.0001566169,0.0002880904,5,1
-0.000161965,0.0002686426,5,1
-0.0002083157,0.0002315296,5,1
-0.0002836761,0.0001911753,5,1
-0.0003535262,0.0001603829,5,1
-0.0003867496,0.0001415833,5,1
-0.000380267,0.0001323456,5,1
-0.0003643846,0.0001334801,5,1
-0.0003775118,0.0001398006,5,1
-0.0004381243,0.0001438522,5,1
-0.000539091,0.000143204,5,1
-0.0006554538,0.000140773,5,1
-0.0007632272,0.0001352628,5,1
-0.0008453943,0.0001224596,5,1
-0.0008927174,9.847395e-05,5,1
-0.0009001724,6.508849e-05,5,1
-0.0008663007,2.327564e-05,5,1
-0.0007907783,-2.307504e-05,5,1
-0.0006742534,-7.201877e-05,5,1
-0.0005321222,-0.0001212866,5,1
-0.0003846427,-0.0001666649,5,1
-0.0002397564,-0.0002028055,5,1
-9.081835e-05,-0.0002259808,5,1
7.238143e-05,-0.0002329496,5,1
0.0002563256,-0.0002253326,5,1
0.0004653899,-0.0002062088,5,1
0.0007011951,-0.000179306,5,1
0.0009561241,-0.0001501342,5,1
0.001207812,-0.0001256624,5,1
0.001426438,-0.0001096179,5,1
0.00158899,-9.924574e-05,5,1
0.001682178,-8.854943e-05,5,1
0.001703571,-7.153257e-05,5,1
0.001656248,-5.046408e-05,5,1
0.001548312,-3.441962e-05,5,1
0.00139516,-2.680255e-05,5,1
0.001221263,-3.069211e-05,5,1
0.001052553,-4.365734e-05,5,1
0.0009063699,-5.889148e-05,5,1
0.0007882243,-7.250496e-05,5,1
0.000688392,-8.660465e-05,5,1
0.0005939078,-0.0001037836,5,1
0.0004911583,-0.0001229073,5,1
0.0003749574,-0.0001361966,5,1
0.0002686426,-0.0001407345,5,1
0.0002164575,-0.0001331174,5,1
0.0002441707,-0.0001136696,5,1
0.0003153174,-8.725291e-05,5,1
0.0003399513,-6.051213e-05,5,1
0.0002466017,-3.63644e-05,5,1
3.624086e-05,-1.562004e-05,5,1
-0.0002276015,-8.720959e-07,5,1
-0.0004570859,1.144487e-05,5,1
-0.0005877105,2.635488e-05,5,1
-0.0005907898,4.969229e-05,5,1
-0.0004802613,8.129502e-05,5,1
-0.0003102548,0.0001145184,5,1
-0.0001447861,0.0001394765,5,1
-2.696461e-05,0.0001496866,5,1
2.230325e-05,0.0001427178,5,1
8.527692e-06,0.0001242423,5,1
-4.009191e-05,0.0001051186,5,1
-9.033215e-05,9.523264e-05,5,1
-0.0001161005,9.814982e-05,5,1
-0.000107349,0.0001080358,5,1
-7.428769e-05,0.0001195424,5,1
-3.555408e-05,0.0001278078,5,1
-9.137427e-06,0.0001347766,5,1
-7.030578e-06,0.0001464453,5,1
-3.409549e-05,0.0001668655,5,1
-8.336335e-05,0.000187934,5,1
-0.0001352242,0.0001992786,5,1
-0.0001660166,0.0001966855,5,1
-0.0001481895,0.0001858272,5,1
-7.542214e-05,0.0001746447,5,1
2.76514e-05,0.0001683241,5,1
0.0001070634,0.0001684862,5,1
0.0001112771,0.0001726999,5,1
2.311357e-05,0.0001752929,5,1
-0.0001336036,0.0001741585,5,1
-0.0003100927,0.0001710792,5,1
-0.000454817,0.0001720516,5,1
-0.0005376324,0.0001756171,5,1
-0.0005562698,0.0001773998,5,1
-0.0005280706,0.0001744826,5,1
-0.0004825302,0.0001649207,5,1
-0.000444769,0.000148228,5,1
-0.0004259694,0.0001252147,5,1
-0.0004251591,9.442231e-05,5,1
-0.0004420138,5.439218e-05,5,1
-0.0004800992,1.12828e-05,5,1
-0.0005423322,-2.939559e-05,5,1
-0.0006266062,-6.586029e-05,5,1
-0.0007293556,-9.470791e-05,5,1
-0.0008415048,-0.0001126972,5,1
-0.0009525195,-0.0001195039,5,1
-0.001047976,-0.0001162626,5,1
-0.00111815,-0.0001092938,5,1
-0.001161422,-0.0001081593,5,1
-0.001178438,-0.0001185315,5,1
-0.001175521,-0.000137169,5,1
-0.001168391,-0.0001571031,5,1
-0.001159153,-0.0001746061,5,1
-0.001132088,-0.0001833576,5,1
-0.00106791,-0.000176713,5,1
-0.0009528436,-0.0001527273,5,1
-0.000787537,-0.0001251762,5,1
-0.0005775004,-0.0001128592,5,1
-0.0003269475,-0.0001277692,5,1
-5.159854e-05,-0.0001613168,5,1
0.0002164575,-0.0001947022,5,1
0.0004394595,-0.0002138259,5,1
0.0005973112,-0.0002112329,5,1
0.0006955228,-0.0001874093,5,1
0.0007501388,-0.0001535376,5,1
0.0007773659,-0.0001248521,5,1
0.0007854691,-0.0001071869,5,1
0.0007838485,-9.875954e-05,5,1
0.0007913035,-9.600444e-05,5,1
0.000834737,-9.778715e-05,5,1
0.0009318143,-0.0001067007,5,1
0.001075566,-0.0001199901,5,1
0.001229205,-0.0001292278,5,1
0.001338113,-0.0001287416,5,1
0.001366798,-0.0001177212,5,1
0.001310237,-9.924574e-05,5,1
0.00118415,-8.02841e-05,5,1
0.001015116,-6.48879e-05,5,1
0.0008378163,-6.002594e-05,5,1
0.0006903367,-6.942573e-05,5,1
0.0006005525,-9.389759e-05,5,1
0.0005773771,-0.0001285796,5,1
0.0006091419,-0.0001671511,5,1
0.0006603546,-0.0002052365,5,1
0.0006801266,-0.0002376495,5,1
0.000626645,-0.0002593663,5,1
0.0004987754,-0.0002664971,5,1
0.000331848,-0.000256287,5,1
0.000170431,-0.0002311669,5,1
4.77475e-05,-0.0001921092,5,1
-2.437157e-05,-0.0001381414,5,1
-5.581224e-05,-7.428769e-05,5,1
-7.914964e-05,-1.156841e-05,5,1
-0.0001355484,4.272347e-05,5,1
-0.0002425115,8.84259e-05,5,1
-0.0003844807,0.0001297526,5,1
-0.000526774,0.0001799928,5,1
-0.0006262821,0.0002472499,5,1
-0.0006522125,0.0003196932,5,1
-0.0005909518,0.0003691231,5,1
-0.0004415277,0.0003807918,5,1
-0.0002295462,0.0003597233,5,1
-1.124428e-05,0.0003282826,5,1
0.0001427178,0.0003077003,5,1
0.0001842065,0.0003083486,5,1
0.000118408,0.0003227724,5,1
-1.682422e-06,0.0003349273,5,1
-0.0001154523,0.0003324963,5,1
-0.0001831956,0.0003132105,5,1
-0.000199078,0.0002889007,5,1
-0.0001857886,0.0002786906,5,1
-0.000169258,0.0002884145,5,1
-0.0001512687,0.0003072141,5,1
-0.0001024871,0.000321638,5,1
6.90704e-06,0.0003175863,5,1
0.0001710792,0.0002877662,5,1
0.0003572923,0.0002384984,5,1
0.000517575,0.0001824238,5,1
0.0006153004,0.0001351007,5,1
0.0006357207,0.0001065772,5,1
0.0005819149,9.928428e-05,5,1
0.0004650658,0.0001025256,5,1
0.0003025142,0.0001052807,5,1
0.0001206769,9.879808e-05,5,1
-5.159854e-05,8.194328e-05,5,1
-0.0001945401,5.649903e-05,5,1
-0.0003068514,2.505836e-05,5,1
-0.0003924218,-8.165035e-06,5,1
-0.0004527101,-4.219875e-05,5,1
-0.0004869059,-7.720486e-05,5,1
-0.0004932265,-0.0001175591,5,1
-0.0004775062,-0.0001622891,5,1
-0.0004544929,-0.0002044261,5,1
-0.0004366657,-0.0002311669,5,1
-0.0004240246,-0.0002391081,5,1
-0.0004120317,-0.0002331117,5,1
-0.0004014975,-0.0002212809,5,1
-0.0003932322,-0.0002120432,5,1
-0.0003904771,-0.0002094502,5,1
-0.0003933943,-0.0002113949,5,1
-0.0004013355,-0.00021415,5,1
-0.0004146248,-0.00021415,5,1
-0.0004298589,-0.0002081536,5,1
-0.0004420138,-0.0001940539,5,1
-0.0004502792,-0.0001724993,5,1
-0.0004559515,-0.0001473791,5,1
-0.0004627582,-0.0001285796,5,1
-0.0004681064,-0.00012469,5,1
-0.000459679,-0.0001366828,5,1
-0.0004220798,-0.0001582375,5,1
-0.0003418575,-0.0001802784,5,1
-0.000213988,-0.0001953505,5,1
-4.90055e-05,-0.0002002124,5,1
0.000140773,-0.0002013469,5,1
0.0003457857,-0.000206695,5,1
0.0005556603,-0.0002167431,5,1
0.0007488423,-0.0002241981,5,1
0.0008929186,-0.0002241981,5,1
0.0009523966,-0.0002110708,5,1
0.0009105837,-0.0001859507,5,1
0.0007820658,-0.0001575893,5,1
0.0006059006,-0.0001280934,5,1
0.0004313562,-9.551824e-05,5,1
0.0002934386,-5.856735e-05,5,1
0.0002030061,-1.788895e-05,5,1
0.0001459591,2.797553e-05,5,1
9.507057e-05,7.610894e-05,5,1
3.056858e-05,0.0001265113,5,1
-4.884343e-05,0.0001749688,5,1
-0.0001289037,0.0002174299,5,1
-0.0001901644,0.0002495189,5,1
-0.0002235498,0.0002692908,5,1
-0.0002305186,0.0002782044,5,1
-0.0002230636,0.0002760976,5,1
-0.0002136638,0.0002675081,5,1
-0.0002104225,0.0002632944,5,1
-0.0002149604,0.0002756114,5,1
-0.0002201465,0.0003072141,5,1
-0.0002194982,0.0003508097,5,1
-0.0002083157,0.0003869503,5,1
-0.0001780095,0.0004000776,5,1
-0.000122259,0.0003864641,5,1
-3.555408e-05,0.0003496752,5,1
8.178122e-05,0.0002960316,5,1
0.0002138645,0.0002414156,5,1
0.0003360618,0.0001986303,5,1
0.000438325,0.0001709172,5,1
0.0005378332,0.0001517934,5,1
0.0006541961,0.0001372076,5,1
0.0007822278,0.0001252147,5,1
0.0008851394,0.0001156529,5,1
0.0009130147,0.0001078737,5,1
0.0008410576,0.0001005808,5,1
0.0006796404,9.782569e-05,5,1
0.0004689553,0.0001017153,5,1
0.0002657254,0.0001122495,5,1
0.0001205148,0.0001265113,5,1
5.244739e-05,0.0001406109,5,1
5.277153e-05,0.0001526038,5,1
9.296373e-05,0.0001594105,5,1
0.0001362352,0.0001569795,5,1
0.0001509831,0.0001409351,5,1
0.0001132219,0.0001148425,5,1
1.841368e-05,8.04847e-05,5,1
-0.0001182074,4.013043e-05,5,1
-0.0002682799,-2.81688e-06,5,1
-0.0004042526,-4.349527e-05,5,1
-0.0005050572,-7.363943e-05,5,1
-0.0005557837,-8.82253e-05,5,1
-0.0005588629,-9.098041e-05,5,1
-0.0005262878,-8.611845e-05,5,1
-0.0004760476,-8.222889e-05,5,1
-0.0004264556,-8.692878e-05,5,1
-0.0003890185,-0.0001041077,5,1
-0.0003673017,-0.0001308485,5,1
-0.0003523917,-0.0001622891,5,1
-0.0003305129,-0.00019924,5,1
-0.0002985861,-0.0002374874,5,1
-0.0002605007,-0.0002700626,5,1
-0.0002295462,-0.0002916173,5,1
-0.0002178775,-0.0002993964,5,1
-0.0002293842,-0.0002942103,5,1
-0.000251101,-0.0002809209,5,1
-0.0002626076,-0.0002729798,5,1
-0.0002517492,-0.0002750866,5,1
-0.0002230636,-0.0002851347,5,1
-0.0001885437,-0.0002882139,5,1
-0.0001540238,-0.0002684419,5,1
-0.0001180453,-0.0002248464,5,1
-8.692878e-05,-0.0001713648,5,1
-7.428769e-05,-0.0001287416,5,1
-9.049421e-05,-0.0001156143,5,1
-0.0001365208,-0.0001332795,5,1
-0.0002005366,-0.0001700683,5,1
-0.0002617972,-0.0002062088,5,1
-0.0002998826,-0.0002237119,5,1
-0.0003074997,-0.000216581,5,1
-0.0002976137,-0.0001880575,5,1
-0.0002966413,-0.0001486757,5,1
-0.0003274337,-0.0001078352,5,1
-0.0003883702,-7.33153e-05,5,1
-0.000452224,-4.706071e-05,5,1
-0.0004852853,-3.117831e-05,5,1
-0.0004663236,-2.599222e-05,5,1
-0.0003987424,-2.566809e-05,5,1
-0.0003068514,-2.42095e-05,5,1
-0.0002185258,-1.788895e-05,5,1
-0.0001431655,-3.789272e-06,5,1
-8.02841e-05,2.068259e-05,5,1
-2.615429e-05,5.082674e-05,5,1
3.283749e-05,7.6271e-05,5,1
0.0001124116,8.891209e-05,5,1
0.0002135403,8.696731e-05,5,1
0.0003158036,7.448828e-05,5,1
0.0003934329,5.601284e-05,5,1
0.0004404318,4.061663e-05,5,1
0.0004587452,3.348575e-05,5,1
0.0004511282,3.348575e-05,5,1
0.0004247115,3.786152e-05,5,1
0.0003958639,4.239934e-05,5,1
0.0003893813,4.547859e-05,5,1
0.0004247115,4.709924e-05,5,1
0.0005018546,4.969229e-05,5,1
0.0005961767,5.050261e-05,5,1
0.0006746164,4.807163e-05,5,1
0.0007148086,4.272347e-05,5,1
0.0007092984,3.996837e-05,5,1
0.0006626236,4.304761e-05,5,1
0.0005830494,5.358185e-05,5,1
0.0004827309,7.043665e-05,5,1
0.0003751195,8.891209e-05,5,1
0.0002759355,0.0001057669,5,1
0.0001880961,0.0001253768,5,1
0.0001057669,0.000155683,5,1
1.371378e-05,0.0001981441,5,1
-9.924574e-05,0.0002466017,5,1
-0.0002308428,0.0002903593,5,1
-0.0003724878,0.0003195311,5,1
-0.000509595,0.0003339549,5,1
-0.0006209339,0.0003438409,5,1
-0.0006878669,0.0003653956,5,1
-0.0007026148,0.0004031568,5,1
-0.0006666363,0.0004427008,5,1
-0.0005911139,0.0004621486,5,1
-0.0004953333,0.0004461041,5,1
-0.0004112214,0.0003952156,5,1
-0.0003666535,0.0003219621,5,1
-0.0003736223,0.0002440086,5,1
-0.0004267797,0.0001741585,5,1
-0.0005021401,0.0001195424,5,1
-0.0005622663,7.853991e-05,5,1
-0.0005844692,4.531652e-05,5,1
-0.0005611319,1.257933e-05,5,1
-0.0004974402,-1.837515e-05,5,1
-0.0004053871,-4.673658e-05,5,1
-0.0002958309,-7.60704e-05,5,1
-0.0001783336,-0.0001050801,5,1
-5.759496e-05,-0.0001311726,5,1
6.03886e-05,-0.0001522411,5,1
0.000177886,-0.0001707166,5,1
0.0003130485,-0.0001846542,5,1
0.0004955341,-0.000191785,5,1
0.0007349047,-0.0001921092,5,1
0.0009966405,-0.0001864369,5,1
0.001224667,-0.000176875,5,1
0.001377819,-0.0001710407,5,1
0.001438917,-0.0001713648,5,1
0.001410718,-0.0001759026,5,1
0.001314127,-0.0001830335,5,1
0.001185609,-0.000186761,5,1
0.001063736,-0.0001828714,5,1
0.0009723307,-0.0001737958,5,1
0.000916418,-0.0001611547,5,1
0.0008958358,-0.0001478653,5,1
0.0009000494,-0.0001381414,5,1
0.0009151215,-0.0001318209,5,1
0.0009180387,-0.0001287416,5,1
0.0008846532,-0.00012469,5,1
0.0008002172,-0.0001138316,5,1
0.0006580857,-9.033215e-05,5,1
0.0004615004,-5.613637e-05,5,1
0.0002222919,-2.09682e-05,5,1
-3.279896e-05,8.041497e-06,5,1
-0.0002582318,2.359977e-05,5,1
-0.0004196489,2.505836e-05,5,1
-0.0005100812,1.889987e-05,5,1
-0.0005429805,1.290346e-05,5,1
-0.0005470322,1.209313e-05,5,1
-0.0005533527,1.825161e-05,5,1
-0.000574097,2.700314e-05,5,1
-0.0006018102,3.429608e-05,5,1
-0.0006094273,3.591673e-05,5,1
-0.0005695592,2.829966e-05,5,1
-0.0004702132,1.241726e-05,5,1
-0.000333268,-1.010982e-05,5,1
-0.00019924,-3.441962e-05,5,1
-0.0001131834,-5.889148e-05,5,1
-0.0001060525,-8.563225e-05,5,1
-0.0001749302,-0.0001170729,5,1
-0.0002830278,-0.0001485136,5,1
-0.0003812394,-0.0001741199,5,1
-0.0004280762,-0.0001911368,5,1
-0.0004073319,-0.0001950263,5,1
-0.0003366714,-0.000176875,5,1
-0.0002517492,-0.000134738,5,1
-0.0001830335,-7.509801e-05,5,1
-0.0001410586,-1.124428e-05,5,1
-0.0001138316,4.256141e-05,5,1
-8.579432e-05,7.837785e-05,5,1
-5.289507e-05,9.652917e-05,5,1
-1.513384e-05,0.0001004187,5,1
2.100672e-05,9.847395e-05,5,1
3.834771e-05,0.0001054428,5,1
2.489629e-05,0.0001334801,5,1
-2.291298e-05,0.0001765894,5,1
-9.875954e-05,0.0002180782,5,1
-0.0001888679,0.0002448189,5,1
-0.0002783279,0.0002592428,5,1
-0.0003593606,0.0002683184,5,1
-0.0004347209,0.0002782044,5,1
-0.0005045711,0.0002890628,5,1
-0.000556756,0.0002908455,5,1
-0.0005734488,0.0002707494,5,1
-0.0005481666,0.0002260194,5,1
-0.0004927403,0.0001616794,5,1
-0.0004277521,9.004655e-05,5,1
-0.000377836,2.522042e-05,5,1
-0.0003540124,-2.583016e-05,5,1
-0.0003564434,-6.148453e-05,5,1
-0.0003744326,-8.336335e-05,5,1
-0.0003899909,-9.551824e-05,5,1
-0.0003865875,-0.0001044318,5,1
-0.0003579019,-0.0001157764,5,1
-0.0003164132,-0.0001293899,5,1
-0.000281083,-0.0001457585,5,1
-0.0002606628,-0.0001682856,5,1
-0.0002528836,-0.0002003745,5,1
-0.0002467252,-0.0002371633,5,1
-0.0002284118,-0.0002630937,5,1
-0.000196647,-0.0002590421,5,1
-0.0001579134,-0.0002123673,5,1
-0.0001279313,-0.0001310105,5,1
-0.0001203142,-4.835724e-05,5,1
-0.0001413827,7.485573e-07,5,1
-0.0001835197,-3.303076e-06,5,1
-0.000224036,-5.030202e-05,5,1
-0.0002357047,-0.0001036215,5,1
-0.0002126914,-0.0001318209,5,1
-0.000174444,-0.000122259,5,1
-0.0001408965,-8.239095e-05,5,1
-0.0001305243,-1.497178e-05,5,1
-0.000152079,7.708133e-05,5,1
-0.0002008607,0.000173024,5,1
-0.0002653627,0.0002397949,5,1
-0.0003314853,0.0002514636,5,1
-0.0003857772,0.0002109473,5,1
-0.0004194868,0.0001420695,5,1
-0.0004331002,7.221937e-05,5,1
-0.0004272659,2.570662e-05,5,1
-0.0004042526,9.986281e-06,5,1
-0.0003613053,1.841368e-05,5,1
-0.0002992343,3.429608e-05,5,1
-0.0002235498,4.531652e-05,5,1
-0.0001336036,5.034055e-05,5,1
-2.777494e-05,5.649903e-05,5,1
9.26396e-05,6.525056e-05,5,1
0.0002216436,7.481241e-05,5,1
0.0003477304,8.064677e-05,5,1
0.0004511282,8.372601e-05,5,1
0.000520168,8.46984e-05,5,1
0.0005593878,8.437427e-05,5,1
0.0005765668,8.178122e-05,5,1
0.0005791598,7.562274e-05,5,1
0.0005733255,6.41161e-05,5,1
0.0005639257,5.260946e-05,5,1
0.0005488536,4.434413e-05,5,1
0.0005268127,3.899597e-05,5,1
0.0005042856,3.445814e-05,5,1
0.0004931031,3.121684e-05,5,1
0.0004937514,2.878586e-05,5,1
0.0004895377,2.473423e-05,5,1
0.000460528,1.776542e-05,5,1
0.000403643,7.393236e-06,5,1
0.0003349273,-2.978945e-06,5,1
0.0002738286,-8.002969e-06,5,1
0.0002281262,-3.14101e-06,5,1
0.0002038164,1.306552e-05,5,1
0.0002018716,3.640293e-05,5,1
0.0002162954,6.006447e-05,5,1
0.0002386605,7.918817e-05,5,1
0.0002631324,9.588091e-05,5,1
0.0002947351,0.0001141943,5,1
0.0003509718,0.000135749,5,1
0.0004577728,0.0001568175,5,1
0.0006269692,0.0001736723,5,1
0.0008397611,0.0001819376,5,1
0.001057253,0.0001799928,5,1
0.001249949,0.0001662173,5,1
0.001413635,0.0001435281,5,1
0.001555767,0.000118408,5,1
0.001681206,9.555677e-05,5,1
0.001776662,7.432621e-05,5,1
0.001812479,5.341979e-05,5,1
0.001756728,3.380988e-05,5,1
0.00159839,1.452411e-05,5,1
0.001343137,-5.247859e-06,5,1
0.00101625,-2.388537e-05,5,1
0.0006520892,-3.863332e-05,5,1
0.000292142,-4.90055e-05,5,1
-2.550602e-05,-5.856735e-05,5,1
-0.0002734659,-7.218083e-05,5,1
-0.0004339106,-9.357346e-05,5,1
-0.0005047331,-0.0001216107,5,1
-0.0004966299,-0.0001535376,5,1
-0.0004431483,-0.0001838438,5,1
-0.0003963114,-0.0002039399,5,1
-0.0004019837,-0.0002079916,5,1
-0.0004726442,-0.0001953505,5,1
-0.0005880346,-0.0001723372,5,1
-0.0007099077,-0.0001512687,5,1
-0.0008024471,-0.0001404103,5,1
-0.0008434496,-0.0001425172,5,1
-0.0008308084,-0.0001517549,5,1
-0.0007904542,-0.0001626133,5,1
-0.0007622549,-0.0001731475,5,1
-0.000780082,-0.0001851404,5,1
-0.0008439358,-0.0002006986,5,1
-0.0009251304,-0.0002207947,5,1
-0.0009868774,-0.0002423494,5,1
-0.001001949,-0.0002608248,5,1
-0.0009588401,-0.0002718453,5,1
-0.0008719731,-0.0002715212,5,1
-0.0007748959,-0.0002598524,5,1
-0.0007018045,-0.0002337599,5,1
-0.0006710121,-0.0001977815,5,1
-0.0006886772,-0.0001618029,5,1
-0.0007372968,-0.000134576,5,1
-0.0007917507,-0.0001139937,5,1
-0.0008301602,-9.341139e-05,5,1
-0.0008475012,-6.699475e-05,5,1
-0.0008442599,-3.652646e-05,5,1
-0.0008291878,-1.075808e-05,5,1
-0.0008103882,4.80019e-06,5,1
-0.0007889956,7.555301e-06,5,1
-0.0007479931,-3.858999e-07,5,1
-0.0006619364,-8.002969e-06,5,1
-0.0005151053,-6.868513e-06,5,1
-0.0003214373,6.582909e-06,5,1
-0.0001169109,2.862379e-05,5,1
5.277153e-05,5.293359e-05,5,1
0.0001594105,7.076078e-05,5,1
0.0001936063,7.432621e-05,5,1
0.0001647587,6.233338e-05,5,1
9.782569e-05,3.883391e-05,5,1
2.959619e-05,1.533444e-05,5,1
-8.002969e-06,3.017472e-06,5,1
-1.196227e-06,5.448452e-06,5,1
3.591673e-05,1.954813e-05,5,1
8.210535e-05,4.223728e-05,5,1
0.0001216493,7.270556e-05,5,1
0.0001504969,0.0001106288,5,1
0.0001712413,0.0001488763,5,1
0.000195227,0.0001773998,5,1
0.0002355812,0.000192796,5,1
0.0002983005,0.0001958752,5,1
0.0003775505,0.0001897167,5,1
0.0004527488,0.0001757791,5,1
0.0004943996,0.0001551968,5,1
0.0004837033,0.000138342,5,1
0.0004192013,0.0001326697,5,1
0.0003222862,0.0001425557,5,1
0.0002287745,0.0001647587,5,1
0.0001830721,0.0001950649,5,1
0.0002122438,0.0002363916,5,1
0.0003102934,0.0002984626,5,1
0.0004436732,0.0003882468,5,1
0.0005631154,0.0004997478,5,1
0.0006311828,0.0006086557,5,1
0.0006339379,0.0006772094,5,1
0.0005738117,0.000681099,5,1
0.0004644175,0.0006230795,5,1
0.0003358997,0.0005268127,5,1
0.0002195368,0.0004133669,5,1
0.0001336421,0.0003025142,5,1
7.562274e-05,0.0002109473,5,1
2.781346e-05,0.0001508211,5,1
-2.015787e-05,0.0001263492,5,1
-6.44017e-05,0.000125863,5,1
-9.405965e-05,0.0001291043,5,1
-9.503204e-05,0.0001213252,5,1
-5.808115e-05,9.798775e-05,5,1
1.744129e-05,6.200925e-05,5,1
0.0001226217,1.841368e-05,5,1
0.000234933,-2.437157e-05,5,1
0.000324393,-5.937768e-05,5,1
0.0003605336,-8.40116e-05,5,1
0.0003258516,-0.0001034594,5,1
0.0002312055,-0.0001233935,5,1
0.0001023635,-0.0001489998,5,1
-2.939559e-05,-0.0001846542,5,1
-0.0001412206,-0.0002292221,5,1
-0.0002224154,-0.0002754107,5,1
-0.0002767073,-0.0003170615,5,1
-0.0003186821,-0.0003517435,5,1
-0.0003611433,-0.0003805911,5,1
-0.0004071698,-0.0004047388,5,1
-0.0004554653,-0.0004222419,5,1
-0.0005024642,-0.0004305072,5,1
-0.0005429805,-0.0004279142,5,1
-0.0005711799,-0.0004157593,5,1
-0.0005818762,-0.0003972838,5,1
-0.0005706937,-0.0003711913,5,1
-0.0005363359,-0.00033813,5,1
-0.0004728062,-0.000301017,5,1
-0.0003801049,-0.0002622834,5,1
-0.0002575835,-0.000213988,5,1
-0.0001138316,-0.0001579134,5,1
3.478228e-05,-0.0001020008,5,1
0.0001738343,-5.775702e-05,5,1
0.0002997591,-3.279896e-05,5,1
0.0004086671,-2.307504e-05,5,1
0.0004958582,-2.194059e-05,5,1
0.000559712,-2.550602e-05,5,1
0.0006033076,-3.441962e-05,5,1
0.000629076,-4.689865e-05,5,1
0.0006376655,-6.051213e-05,5,1
0.0006334517,-6.877746e-05,5,1
0.0006177314,-6.521203e-05,5,1
0.0005914768,-4.787104e-05,5,1
0.0005580913,-2.437157e-05,5,1
0.000512713,-3.465141e-06,5,1
0.000440756,1.12828e-05,5,1
0.0003352514,1.808955e-05,5,1
0.000210137,1.695509e-05,5,1
9.63671e-05,1.144487e-05,5,1
2.052053e-05,9.66215e-06,5,1
-1.027188e-05,1.954813e-05,5,1
-5.57199e-06,4.612685e-05,5,1
2.489629e-05,9.182927e-05,5,1
7.708133e-05,0.0001560072,5,1
0.0001412592,0.0002290986,5,1
0.0001984683,0.000289387,5,1
0.0002268297,0.0003180725,5,1
0.0002158093,0.000309483,5,1
0.0001696206,0.0002762596,5,1
9.879808e-05,0.0002415777,5,1
6.420843e-06,0.0002218057,5,1
-0.0001021629,0.0002166196,5,1
-0.0002110708,0.0002143507,5,1
-0.0002932379,0.0002044647,5,1
-0.0003277578,0.0001882582,5,1
-0.0003160891,0.0001748067,5,1
-0.0002789762,0.0001709172,5,1
-0.0002465631,0.0001744826,5,1
-0.0002441321,0.0001809652,5,1
-0.0002831898,0.0001822617,5,1
-0.0003473677,0.0001712413,5,1
-0.0004107352,0.0001462832,5,1
-0.0004395829,0.0001106288,5,1
-0.0004023079,7.335383e-05,5,1
-0.0002943724,4.094075e-05,5,1
-0.0001441378,1.857574e-05,5,1
-4.437533e-06,5.124321e-06,5,1
8.016057e-05,-3.465141e-06,5,1
8.826383e-05,-1.237873e-05,5,1
3.478228e-05,-2.226472e-05,5,1
-4.349527e-05,-3.571614e-05,5,1
-0.0001135075,-5.176061e-05,5,1
-0.0001715269,-6.667062e-05,5,1
-0.0002316531,-7.688073e-05,5,1
-0.000300855,-8.255302e-05,5,1
-0.0003664914,-8.352541e-05,5,1
-0.0004139766,-8.336335e-05,5,1
-0.0004454172,-8.871149e-05,5,1
-0.0004797751,-9.973194e-05,5,1
-0.0005358497,-0.0001136696,5,1
-0.0006058619,-0.0001302002,5,1
-0.0006629088,-0.0001451102,5,1
-0.0006744154,-0.0001517549,5,1
-0.0006173685,-0.0001459206,5,1
-0.0004812336,-0.0001329553,5,1
-0.0002752487,-0.000119666,5,1
-3.701266e-05,-0.0001096179,5,1
0.000187934,-0.0001086455,5,1
0.0003722023,-0.0001175591,5,1
0.0005196818,-0.0001336036,5,1
0.0006556547,-0.0001486757,5,1
0.0007921138,-0.0001549962,5,1
0.0009177146,-0.0001491618,5,1
0.001006202,-0.0001329553,5,1
0.001031485,-0.000114804,5,1
0.0009802718,-0.0001029732,5,1
0.000859533,-0.0001021629,5,1
0.0006880678,-0.0001091317,5,1
0.0004943996,-0.0001175591,5,1
0.0003140208,-0.0001191798,5,1
0.0001850168,-0.0001094559,5,1
0.0001372076,-8.579432e-05,5,1
0.0001773998,-5.2733e-05,5,1
0.0002859836,-2.015787e-05,5,1
0.0004232529,2.531276e-06,5,1
0.0005415607,1.274139e-05,5,1
0.0006021731,1.468618e-05,5,1
0.0005973112,1.047248e-05,5,1
0.0005431813,4.244267e-07,5,1
0.0004653899,-1.351319e-05,5,1
0.0003875985,-2.858527e-05,5,1
0.0003222862,-3.992984e-05,5,1
0.0002665357,-4.090223e-05,5,1
0.0002064095,-3.134038e-05,5,1
0.0001304008,-1.286493e-05,5,1
2.862379e-05,8.689758e-06,5,1
-0.0001018388,2.586868e-05,5,1
-0.0002494803,3.575467e-05,5,1
-0.0003909633,3.656499e-05,5,1
-0.0005050572,3.154097e-05,5,1
-0.0005804176,2.829966e-05,5,1
-0.0006176926,3.462021e-05,5,1
-0.0006219063,5.649903e-05,5,1
-0.0006081308,9.863601e-05,5,1
-0.0005954896,0.0001582761,5,1
-0.0005969483,0.0002213195,5,1
-0.0006133168,0.0002657254,5,1
-0.0006457299,0.0002783665,5,1
-0.0007099077,0.0002616738,5,1
-0.0008178432,0.0002303951,5,1
-0.0009484679,0.0002012234,5,1
-0.001051379,0.0001858272,5,1
-0.001076013,0.000187934,5,1
-0.001008756,0.0002055991,5,1
-0.0008672731,0.0002346088,5,1
-0.0006843015,0.0002665357,5,1
-0.0004980884,0.0002939248,5,1
-0.0003496366,0.0003122381,5,1
-0.0002671454,0.0003232586,5,1
-0.0002342462,0.0003263378,5,1
-0.0001982676,0.0003248792,5,1
-0.0001101041,0.0003230965,5,1
4.515445e-05,0.0003239069,5,1
0.0002509774,0.0003208276,5,1
0.0004623107,0.000304297,5,1
0.0006272933,0.0002699391,5,1
0.0007174017,0.0002205092,5,1
0.0007362012,0.0001587623,5,1
0.0007188602,8.923623e-05,5,1
0.0007081639,1.387585e-05,5,1
0.000738146,-5.937768e-05,5,1
0.000809779,-0.0001199901,5,1
0.0008943772,-0.0001603444,5,1
0.0009574206,-0.0001807646,5,1
0.0009839993,-0.0001896782,5,1
0.0009862683,-0.000199078,5,1
0.0009890234,-0.0002177155,5,1
0.00100134,-0.0002494803,5,1
0.00100442,-0.0002914552,5,1
0.0009546655,-0.0003363473,5,1
0.0008240407,-0.0003750809,5,1
0.0006206486,-0.0004068457,5,1
0.0003783608,-0.0004311555,5,1
0.0001331559,-0.0004347209,5,1
-9.081835e-05,-0.0004023079,5,1
-0.0002749245,-0.0003297026,5,1
-0.0004138145,-0.0002361909,5,1
-0.0005133225,-0.0001507825,5,1
-0.000586252,-9.713889e-05,5,1
-0.0006420024,-8.644259e-05,5,1
-0.0006847876,-0.0001115627,5,1
-0.00071558,-0.000156941,5,1
-0.0007369727,-0.0002070192,5,1
-0.0007517206,-0.0002480217,5,1
-0.0007680892,-0.0002739521,5,1
-0.0007906163,-0.0002843243,5,1
-0.0008212466,-0.0002841623,5,1
-0.0008593319,-0.0002742763,5,1
-0.0009038999,-0.0002572594,5,1
-0.0009468472,-0.0002329496,5,1
-0.0009748845,-0.0002047502,5,1
-0.0009766672,-0.0001757406,5,1
-0.0009457127,-0.0001454344,5,1
-0.0008851003,-0.0001143178,5,1
-0.0007974231,-8.174268e-05,5,1
-0.0006787913,-4.560212e-05,5,1
-0.000524343,-7.678839e-06,5,1
-0.0003284061,2.619281e-05,5,1
-9.892161e-05,5.19612e-05,5,1
0.0001445005,6.995045e-05,5,1
0.000373985,8.113296e-05,5,1
0.000567167,9.053275e-05,5,1
0.0007057329,0.0001012291,5,1
0.0007760693,0.0001125736,5,1
0.0007832003,0.0001227837,5,1
0.0007483562,0.0001278078,5,1
0.0006971435,0.0001268354,5,1
0.0006478756,0.0001235941,5,1
0.0006102764,0.0001235941,5,1
0.0005858046,0.0001329939,5,1
0.0005700842,0.0001490383,5,1
0.0005571189,0.0001628139,5,1
0.0005428572,0.000165569,5,1
0.0005258403,0.0001545486,5,1
0.0004989374,0.0001360731,5,1
0.000455666,0.0001148425,5,1
0.0003882468,9.604298e-05,5,1
0.0002867939,8.161915e-05,5,1
0.0001551968,7.367795e-05,5,1
1.290346e-05,7.756752e-05,5,1
-0.0001164247,9.750156e-05,5,1
-0.0002207947,0.0001276457,5,1
-0.0002932379,0.0001548727,5,1
-0.0003290543,0.0001649207,5,1
-0.0003340784,0.0001543865,5,1
-0.0003206269,0.0001305629,5,1
-0.0003062031,0.000108522,5,1
-0.0002985861,0.0001030118,5,1
-0.0002948586,0.0001229458,5,1
-0.0002830278,0.0001668655,5,1
-0.0002502906,0.0002227781,5,1
-0.0001958367,0.0002696149,5,1
-0.0001352242,0.0002879283,5,1
-9.551824e-05,0.0002705873,5,1
-9.389759e-05,0.00022764,5,1
-0.0001308485,0.0001759412,5,1
-0.0001895161,0.0001328318,5,1
-0.0002478596,0.0001081979,5,1
-0.0002763831,0.0001062531,5,1
-0.0002502906,0.0001190562,5,1
-0.0001535376,0.0001367214,5,1
2.855407e-06,0.0001498487,5,1
0.0001809652,0.0001547106,5,1
0.000329255,0.0001469315,5,1
0.000406074,0.0001239182,5,1
0.0004039671,8.875003e-05,5,1
0.0003414099,5.504044e-05,5,1
0.0002534084,4.110282e-05,5,1
0.0001756171,5.325772e-05,5,1
0.0001325077,8.372601e-05,5,1
0.000128294,0.000113384,5,1
0.0001514693,0.0001242423,5,1
0.0001782101,0.0001119254,5,1
0.000180479,8.323981e-05,5,1
0.0001349386,4.72613e-05,5,1
3.073064e-05,7.717366e-06,5,1
-0.0001173971,-3.539201e-05,5,1
-0.0002733039,-8.725291e-05,5,1
-0.0003861013,-0.0001423551,5,1
-0.0004065215,-0.0001890299,5,1
-0.0003049066,-0.0002188499,5,1
-9.584238e-05,-0.0002279256,5,1
0.0001571416,-0.0002188499,5,1
0.0003717161,-0.0001994021,5,1
0.0004931031,-0.0001810887,5,1
0.0005188715,-0.000171851,5,1
0.0004880791,-0.0001708786,5,1
0.0004418904,-0.0001749302,5,1
0.0004013741,-0.0001778474,5,1
0.0003632887,-0.0001747682,5,1
0.0003208276,-0.0001582375,5,1
0.000272208,-0.00012469,5,1
0.0002211574,-8.060823e-05,5,1
0.0001678379,-4.074016e-05,5,1
0.0001156529,-1.772689e-05,5,1
6.573675e-05,-1.562004e-05,5,1
1.54965e-05,-2.728874e-05,5,1
-3.717473e-05,-4.284701e-05,5,1
-9.438378e-05,-5.69467e-05,5,1
-0.0001541859,-6.764301e-05,5,1
-0.0002130156,-7.590833e-05,5,1
-0.0002609869,-8.02841e-05,5,1
-0.0002890242,-7.850138e-05,5,1
-0.0002972895,-6.764301e-05,5,1
-0.0002893484,-4.85193e-05,5,1
-0.0002656868,-2.485776e-05,5,1
-0.0002326255,-2.978945e-06,5,1
-0.0001994021,1.468618e-05,5,1
-0.0001710407,2.441009e-05,5,1
-0.0001512687,2.81376e-05,5,1
-0.0001511067,2.716521e-05,5,1
-0.0001862748,2.684107e-05,5,1
-0.0002532078,2.975825e-05,5,1
-0.0003264613,3.526847e-05,5,1
-0.0003744326,4.256141e-05,5,1
-0.0003707051,5.017848e-05,5,1
-0.0003052308,5.909208e-05,5,1
-0.0001870851,6.78436e-05,5,1
-4.949169e-05,7.756752e-05,5,1
5.795762e-05,9.26396e-05,5,1
9.68533e-05,0.0001130598,5,1
6.849186e-05,0.0001385041,5,1
6.90704e-06,0.0001684862,5,1
-4.706071e-05,0.0001991165,5,1
-6.845333e-05,0.0002258573,5,1
-5.32192e-05,0.0002466017,5,1
-1.691656e-05,0.0002634565,5,1
1.419998e-05,0.0002788527,5,1
2.457216e-05,0.0002942489,5,1
8.689758e-06,0.0003055935,5,1
-2.550602e-05,0.000309321,5,1
-6.796714e-05,0.0002986247,5,1
-0.0001104282,0.0002644289,5,1
-0.0001441378,0.0002034923,5,1
-0.0001632615,0.0001245665,5,1
-0.0001622891,4.580272e-05,5,1
-0.0001449482,-1.967167e-05,5,1
-0.0001209625,-6.423963e-05,5,1
-9.600444e-05,-8.741498e-05,5,1
-7.526008e-05,-9.049421e-05,5,1
-5.840528e-05,-8.190475e-05,5,1
-3.425755e-05,-7.60704e-05,5,1
3.989864e-06,-8.352541e-05,5,1
5.893001e-05,-0.0001060525,5,1
0.0001347766,-0.0001392759,5,1
0.000234933,-0.0001721751,5,1
0.0003495132,-0.0001953505,5,1
0.0004535592,-0.000206533,5,1
0.0005159543,-0.0002094502,5,1
0.0005172509,-0.0002110708,5,1
0.0004561522,-0.0002159328,5,1
0.0003438409,-0.0002219292,5,1
0.0001992786,-0.0002269532,5,1
4.402e-05,-0.0002241981,5,1
-0.0001052422,-0.0002154466,5,1
-0.0002199844,-0.0002050744,5,1
-0.0002697385,-0.0002013469,5,1
-0.0002451045,-0.0002060468,5,1
-0.0001655305,-0.0002122053,5,1
-4.625038e-05,-0.0002123673,5,1
0.0001046324,-0.000201671,5,1
0.0002702632,-0.0001828714,5,1
0.0004198496,-0.0001613168,5,1
0.0005294057,-0.0001439758,5,1
0.0006078454,-0.000132145,5,1
0.0006887161,-0.0001300382,5,1
0.0008131823,-0.0001360346,5,1
0.0009950198,-0.0001438137,5,1
0.001200681,-0.0001457585,5,1
0.001368257,-0.0001426792,5,1
0.00144929,-0.0001400862,5,1
0.001426925,-0.0001381414,5,1
0.001321906,-0.0001340898,5,1
0.001173292,-0.0001261486,5,1
0.001009444,-0.0001114006,5,1
0.0008344129,-8.919769e-05,5,1
0.0006503066,-6.164659e-05,5,1
0.0004671726,-3.21507e-05,5,1
0.0003012177,-4.761664e-06,5,1
0.000155683,1.679302e-05,5,1
2.149292e-05,2.927205e-05,5,1
-0.0001114006,3.55926e-05,5,1
-0.0002441321,4.223728e-05,5,1
-0.0003651949,4.985435e-05,5,1
-0.0004540067,5.974033e-05,5,1
-0.0004987367,7.20573e-05,5,1
-0.0005071641,8.567078e-05,5,1
-0.0005076503,0.0001013911,5,1
-0.0005300153,0.0001164632,5,1
-0.0005935449,0.0001297526,5,1
-0.0006891634,0.0001401247,5,1
-0.0007821888,0.0001462832,5,1
-0.0008236776,0.0001485521,5,1
-0.0007802441,0.000145635,5,1
-0.0006580469,0.0001389903,5,1
-0.0005042469,0.0001252147,5,1
-0.0003775118,0.000103498,5,1
-0.0003203028,7.481241e-05,5,1
-0.0003335922,4.807163e-05,5,1
-0.0003836704,3.18651e-05,5,1
-0.0004215936,3.834771e-05,5,1
-0.000415111,7.416415e-05,5,1
-0.0003611433,0.0001341283,5,1
-0.0002729798,0.0002060853,5,1
-0.0001783336,0.000274801,5,1
-0.0001063766,0.0003274723,5,1
-6.958779e-05,0.0003529166,5,1
-7.023606e-05,0.0003493511,5,1
-0.0001010285,0.000324231,5,1
-0.0001478653,0.0002819319,5,1
-0.0001940539,0.0002316917,5,1
-0.0002316531,0.0001838824,5,1
-0.0002639041,0.000145635,5,1
-0.0003000446,0.0001198666,5,1
-0.0003468815,0.0001015532,5,1
-0.0004066836,8.453633e-05,5,1
-0.0004766958,6.800567e-05,5,1
-0.0005481666,4.985435e-05,5,1
-0.000613641,3.348575e-05,5,1
-0.0006664743,2.684107e-05,5,1
-0.0007018045,3.445814e-05,5,1
-0.0007139594,5.341979e-05,5,1
-0.0007043975,7.286763e-05,5,1
-0.0006797637,8.777764e-05,5,1
-0.0006543194,0.0001020394,5,1
-0.0006356818,0.0001195424,5,1
-0.0006251476,0.0001375317,5,1
-0.0006173685,0.000145797,5,1
-0.0006100755,0.0001338042,5,1
-0.0006009999,0.0001023635,5,1
-0.0005901415,6.670914e-05,5,1
-0.0005745832,4.272347e-05,5,1
-0.0005557837,3.267542e-05,5,1
-0.0005282326,2.716521e-05,5,1
-0.0004880404,1.582063e-05,5,1
-0.0004337485,-6.544382e-06,5,1
-0.0003707051,-3.992984e-05,5,1
-0.0003096065,-7.947377e-05,5,1
-0.0002645523,-0.000117235,5,1
-0.0002499665,-0.0001454344,5,1
-0.0002729798,-0.000159534,5,1
-0.0003271096,-0.0001645581,5,1
-0.0003911253,-0.000169258,5,1
-0.0004381243,-0.0001801163,5,1
-0.0004554653,-0.0001987538,5,1
-0.0004488206,-0.0002211189,5,1
-0.0004230522,-0.0002434839,5,1
-0.0003775118,-0.000258718,5,1
-0.0003023136,-0.0002619593,5,1
-0.0001950263,-0.0002558008,5,1
-7.137051e-05,-0.0002467252,5,1
4.110282e-05,-0.0002342462,5,1
0.0001240803,-0.0002183637,5,1
0.0001739964,-0.0001971332,5,1
0.0002031682,-0.0001720131,5,1
0.0002370398,-0.0001485136,5,1
0.0002953834,-0.0001266348,5,1
0.0003817642,-9.551824e-05,5,1
0.0004835413,-4.641245e-05,5,1
0.0005799701,1.355172e-05,5,1
0.0006533858,6.800567e-05,5,1
0.0006947125,0.0001025256,5,1
0.0007060571,0.000111115,5,1
0.0006995744,0.0001017153,5,1
0.0006867713,8.74535e-05,5,1
0.0006817472,7.610894e-05,5,1
0.0006922815,6.962632e-05,5,1
0.0007221015,6.41161e-05,5,1
0.0007692626,5.601284e-05,5,1
0.0008237166,4.418206e-05,5,1
0.0008629364,3.024445e-05,5,1
0.0008603434,1.792748e-05,5,1
0.0007890346,1.1769e-05,5,1
0.0006434998,1.22552e-05,5,1
0.0004525868,1.987227e-05,5,1
0.0002564877,3.672706e-05,5,1
8.729144e-05,6.508849e-05,5,1
-3.604027e-05,0.000103498,5,1
-0.0001120489,0.0001483901,5,1
-0.0001415448,0.0001918236,5,1
-0.0001261486,0.0002260194,5,1
-6.926366e-05,0.0002487085,5,1
2.278944e-05,0.0002607014,5,1
0.0001436902,0.0002657254,5,1
0.0002876042,0.0002670219,5,1
0.000443349,0.0002709115,5,1
0.0005934216,0.0002856594,5,1
0.0007253428,0.0003135347,5,1
0.0008319819,0.0003461098,5,1
0.0009144733,0.0003670162,5,1
0.0009818925,0.0003598854,5,1
0.001036833,0.000316938,5,1
0.001071839,0.0002431983,5,1
0.001076701,0.0001487142,5,1
0.001039102,4.483033e-05,5,1
0.0009617964,-6.278104e-05,5,1
0.0008606675,-0.0001655305,5,1
0.0007613214,-0.0002564491,5,1
0.000686123,-0.0003298647,5,1
0.0006428516,-0.000382698,5,1
0.000624214,-0.0004152731,5,1
0.0006177314,-0.0004293727,5,1
0.0006083316,-0.0004264556,5,1
0.0005817529,-0.0004042526,5,1
0.0005264886,-0.0003616295,5,1
0.0004396215,-0.0003060411,5,1
0.0003414099,-0.0002467252,5,1
0.0002624841,-0.0001937298,5,1
0.0002166196,-0.0001551583,5,1
0.0001893926,-0.0001365208,5,1
0.0001449867,-0.0001361966,5,1
4.645098e-05,-0.000144462,5,1
-0.0001240417,-0.0001460826,5,1
-0.0003473677,-0.0001292278,5,1
-0.0005749074,-8.465986e-05,5,1
-0.0007535033,-6.382317e-06,5,1
-0.0008526873,9.523264e-05,5,1
-0.000876835,0.000192958,5,1
-0.0008510666,0.0002545429,5,1
-0.0008120089,0.0002619979,5,1
-0.0007914266,0.0002182402,5,1
-0.0008090917,0.0001422316,5,1
-0.0008667869,5.99024e-05,5,1
-0.0009444162,-8.651231e-06,5,1
-0.001009891,-5.59743e-05,5,1
-0.001030635,-8.514606e-05,5,1
-0.000990929,-9.794922e-05,5,1
-0.0009027654,-9.519411e-05,5,1
-0.0007919128,-7.995997e-05,5,1
-0.0006774947,-6.180866e-05,5,1
-0.0005556216,-4.738484e-05,5,1
-0.0004078181,-4.090223e-05,5,1
-0.0002169052,-4.025397e-05,5,1
9.66215e-06,-4.138842e-05,5,1
0.0002336365,-4.284701e-05,5,1
0.0004075326,-4.738484e-05,5,1
0.0005096338,-4.90055e-05,5,1
0.0005459364,-4.398147e-05,5,1
0.000534754,-3.296103e-05,5,1
0.0004900239,-2.09682e-05,5,1
0.0004213082,-1.367526e-05,5,1
0.0003401134,-1.578211e-05,5,1
0.0002589186,-2.566809e-05,5,1
0.00018291,-3.555408e-05,5,1
0.0001169494,-3.68506e-05,5,1
7.027458e-05,-2.696461e-05,5,1
5.406805e-05,-7.192643e-06,5,1
7.270556e-05,1.679302e-05,5,1
0.0001219734,3.98063e-05,5,1
0.0001825859,5.747142e-05,5,1
0.0002292607,6.508849e-05,5,1
0.0002386605,6.46023e-05,5,1
0.0002041406,6.152305e-05,5,1
0.0001326697,6.589881e-05,5,1
3.656499e-05,8.858796e-05,5,1
-6.683268e-05,0.000130725,5,1
-0.0001605064,0.0001808031,5,1
-0.0002292221,0.0002237505,5,1
-0.0002630937,0.0002475741,5,1
-0.0002624455,0.0002535705,5,1
-0.0002373254,0.0002467637,5,1
-0.0002005366,0.0002359054,5,1
-0.0001580754,0.000225047,5,1
-0.0001037836,0.000215161,5,1
-3.296103e-05,0.0002044647,5,1
5.439218e-05,0.0001945787,5,1
0.0001568175,0.0001833962,5,1
0.000267346,0.0001739964,5,1
0.0003665301,0.000170431,5,1
0.0004292493,0.0001731861,5,1
0.0004417284,0.0001757791,5,1
0.0004088291,0.0001741585,5,1
0.0003405996,0.0001633001,5,1
0.0002478982,0.0001398006,5,1
0.0001435281,0.000103498,5,1
3.591673e-05,6.152305e-05,5,1
-8.790117e-05,2.619281e-05,5,1
-0.0002446183,4.962256e-06,5,1
-0.0004303451,-6.176923e-08,5,1
-0.0006254718,7.393236e-06,5,1
-0.0007992057,1.760335e-05,5,1
-0.0009374474,1.776542e-05,5,1
-0.001045221,4.244267e-07,5,1
-0.00113306,-3.701266e-05,5,1
-0.001198048,-8.757704e-05,5,1
-0.001211986,-0.0001477033,5,1
-0.00115186,-0.0002099363,5,1
-0.00101378,-0.000266173,5,1
-0.0008126572,-0.0003094444,5,1
-0.0005822003,-0.0003350507,5,1
-0.0003682741,-0.0003425058,5,1
-0.000211557,-0.0003389403,5,1
-0.0001373311,-0.0003327818,5,1
-0.0001514308,-0.0003269475,5,1
-0.0002420253,-0.0003165753,5,1
-0.0003770257,-0.0002976137,5,1
-0.0005141329,-0.0002700626,5,1
-0.0006125065,-0.0002366771,5,1
-0.0006447575,-0.000196647,5,1
-0.0006009999,-0.0001473791,5,1
-0.0004958195,-9.551824e-05,5,1
-0.000358064,-5.516398e-05,5,1
-0.0002138259,-3.733679e-05,5,1
-7.882551e-05,-4.041603e-05,5,1
3.656499e-05,-5.289507e-05,5,1
0.0001260251,-5.791909e-05,5,1
0.0001942546,-4.949169e-05,5,1
0.0002485465,-3.247483e-05,5,1
0.0002950592,-1.140634e-05,5,1
0.0003444891,1.436204e-05,5,1
0.0004127187,4.709924e-05,5,1
0.0005096338,8.210535e-05,5,1
0.0006289139,0.0001073875,5,1
0.000740415,0.0001150046,5,1
0.0008015137,0.0001069013,5,1
0.0007843347,9.020862e-05,5,1
0.0006969814,7.497447e-05,5,1
0.0005718669,7.335383e-05,5,1
0.0004545315,9.393612e-05,5,1
0.0003822504,0.0001312112,5,1
0.0003587509,0.0001696206,5,1
0.0003559958,0.0001889064,5,1
0.0003350894,0.0001811273,5,1
0.0002629703,0.0001509831,5,1
0.0001263492,0.0001112771,5,1
-5.305713e-05,7.805372e-05,5,1
-0.0002241981,5.633696e-05,5,1
-0.000338292,4.320967e-05,5,1
-0.0003739464,3.60788e-05,5,1
-0.0003400748,3.348575e-05,5,1
-0.0002695764,3.121684e-05,5,1
-0.000201509,2.781346e-05,5,1
-0.0001587237,2.408596e-05,5,1
-0.0001439758,2.003433e-05,5,1
-0.000149486,1.59827e-05,5,1
-0.0001614788,1.047248e-05,5,1
-0.0001715269,7.555301e-06,5,1
-0.0001763888,8.851824e-06,5,1
-0.0001737958,1.193106e-05,5,1
-0.0001489998,1.452411e-05,5,1
-8.012204e-05,2.295151e-05,5,1
4.77475e-05,4.645098e-05,5,1
0.0002216436,8.648112e-05,5,1
0.0004067223,0.0001385041,5,1
0.0005657084,0.0001918236,5,1
0.000681099,0.0002344468,5,1
0.0007569456,0.0002585945,5,1
0.0008060515,0.0002592428,5,1
0.0008404093,0.0002368777,5,1
0.0008629364,0.0001960373,5,1
0.0008655295,0.0001477418,5,1
0.0008472161,0.0001020394,5,1
0.0008149651,6.930219e-05,5,1
0.0007880622,5.115087e-05,5,1
0.0007807693,4.758544e-05,5,1
0.0007947069,5.455425e-05,5,1
0.0008238787,6.103686e-05,5,1
0.0008509436,6.103686e-05,5,1
0.0008546711,5.633696e-05,5,1
0.0008182063,4.693717e-05,5,1
0.0007318255,3.656499e-05,5,1
0.0005932595,2.651694e-05,5,1
0.0004086671,1.727922e-05,5,1
0.000187772,3.665733e-06,5,1
-6.261898e-05,-1.950961e-05,5,1
-0.0003371576,-4.949169e-05,5,1
-0.0006217443,-7.785312e-05,5,1
-0.0008914209,-9.405965e-05,5,1
-0.001116043,-8.806324e-05,5,1
-0.001269195,-6.245691e-05,5,1
-0.001344231,-3.166451e-05,5,1
-0.0013559,-1.383732e-05,5,1
-0.001338397,-2.291298e-05,5,1
-0.001317004,-5.419158e-05,5,1
-0.001293019,-8.82253e-05,5,1
-0.001246506,-0.0001024871,5,1
-0.001155587,-9.179074e-05,5,1
-0.001015887,-7.104638e-05,5,1
-0.0008484736,-6.0188e-05,5,1
-0.0006859221,-6.991193e-05,5,1
-0.0005583767,-0.0001020008,5,1
-0.0004711856,-0.0001480274,5,1
-0.0004021458,-0.0001932436,5,1
-0.0003193304,-0.0002207947,5,1
-0.000204102,-0.0002274394,5,1
-5.856735e-05,-0.000221605,5,1
0.000118408,-0.0002151224,5,1
0.0003300653,-0.0002149604,5,1
0.0005781874,-0.0002198223,5,1
0.0008528884,-0.0002258187,5,1
0.001134234,-0.0002253326,5,1
0.001389487,-0.0002149604,5,1
0.001589477,-0.0001935677,5,1
0.001709567,-0.0001689338,5,1
0.001744573,-0.0001451102,5,1
0.001697574,-0.0001233935,5,1
0.001590773,-9.681477e-05,5,1
0.001457393,-6.326724e-05,5,1
0.001327578,-2.356124e-05,5,1
0.001209271,1.614476e-05,5,1
0.001081239,5.244739e-05,5,1
0.0009190111,7.983644e-05,5,1
0.0007177258,9.766362e-05,5,1
0.0004858102,0.0001043083,5,1
0.0002378501,0.0001002567,5,1
-1.643037e-05,9.555677e-05,5,1
-0.000263742,9.701536e-05,5,1
-0.0004907955,0.0001054428,5,1
-0.000683167,0.0001163011,5,1
-0.0008228673,0.0001313732,5,1
-0.0009063309,0.000155521,5,1
-0.0009392301,0.0001874478,5,1
-0.000939068,0.0002180782,5,1
-0.0009275614,0.000234933,5,1
-0.0009081136,0.0002331503,5,1
-0.0008632215,0.000215161,5,1
-0.0007692237,0.000195389,5,1
-0.0006128307,0.0001880961,5,1
-0.0004065215,0.0001957132,5,1
-0.0001901644,0.0002094887,5,1
-1.286493e-05,0.0002192126,5,1
8.372601e-05,0.0002167816,5,1
8.486046e-05,0.0002010613,5,1
8.851824e-06,0.0001748067,5,1
-0.0001050801,0.0001420695,5,1
-0.000219012,0.000111115,5,1
-0.0003118754,8.74535e-05,5,1
-0.0003789705,7.513654e-05,5,1
-0.0004246728,6.897806e-05,5,1
-0.0004603272,6.41161e-05,5,1
-0.0004929024,5.909208e-05,5,1
-0.0005259637,5.487838e-05,5,1
-0.0005578905,4.709924e-05,5,1
-0.0005692351,3.316162e-05,5,1
-0.0005379565,1.582063e-05,5,1
-0.0004570859,1.072688e-06,5,1
-0.0003374817,-8.651231e-06,5,1
-0.0002047502,-1.432352e-05,5,1
-8.773911e-05,-1.724069e-05,5,1
-2.226472e-05,-1.707863e-05,5,1
-3.506788e-05,-1.691656e-05,5,1
-0.0001276072,-1.837515e-05,5,1
-0.0002689281,-2.194059e-05,5,1
-0.0004177041,-2.761287e-05,5,1
-0.0005403875,-3.393342e-05,5,1
-0.0006091032,-3.717473e-05,5,1
-0.00061121,-3.830919e-05,5,1
-0.0005538389,-3.782299e-05,5,1
-0.00046211,-3.555408e-05,5,1
-0.0003673017,-3.441962e-05,5,1
-0.0002844864,-3.555408e-05,5,1
-0.0002154466,-3.960571e-05,5,1
-0.0001558065,-5.111234e-05,5,1
-0.000104918,-7.461182e-05,5,1
-5.516398e-05,-0.000112373,5,1
1.396819e-06,-0.0001580754,5,1
7.059871e-05,-0.0001976194,5,1
0.0001529279,-0.0002225774,5,1
0.0002469258,-0.0002284118,5,1
0.0003488649,-0.0002204706,5,1
0.0004475628,-0.0002008607,5,1
0.0005281092,-0.0001707166,5,1
0.000579484,-0.0001306864,5,1
0.000591963,-8.644259e-05,5,1
0.0005632775,-4.592625e-05,5,1
0.0004997478,-1.902341e-05,5,1
0.0004297355,-8.813297e-06,5,1
0.0003910019,-1.62683e-05,5,1
0.0004034809,-3.798505e-05,5,1
0.0004529109,-6.39155e-05,5,1
0.0004861343,-8.465986e-05,5,1
0.0004501558,-9.405965e-05,5,1
0.0003323342,-9.114248e-05,5,1
0.0001637863,-7.866345e-05,5,1
3.503668e-06,-6.39155e-05,5,1
-9.098041e-05,-5.176061e-05,5,1
-9.098041e-05,-4.560212e-05,5,1
-1.108221e-05,-4.916756e-05,5,1
0.0001028497,-6.164659e-05,5,1
0.0002051129,-7.363943e-05,5,1
0.0002642668,-7.137051e-05,5,1
0.0002725321,-5.013995e-05,5,1
0.0002336365,-1.562004e-05,5,1
0.0001587623,1.64689e-05,5,1
6.184718e-05,3.267542e-05,5,1
-4.155049e-05,2.910999e-05,5,1
-0.0001349001,1.54965e-05,5,1
-0.000206533,8.851824e-06,5,1
-0.0002588801,2.327564e-05,5,1
-0.0003062031,6.03886e-05,5,1
-0.0003541745,0.000111115,5,1
-0.0004018217,0.0001569795,5,1
-0.0004413656,0.0001835583,5,1
-0.0004590307,0.0001822617,5,1
-0.0004403932,0.0001547106,5,1
-0.0003831841,0.0001175977,5,1
-0.0003086341,8.615699e-05,5,1
-0.0002434839,7.092284e-05,5,1
-0.0001958367,7.027458e-05,5,1
-0.0001580754,7.740546e-05,5,1
-0.0001204763,8.388807e-05,5,1
-7.817725e-05,8.032264e-05,5,1
-2.631635e-05,6.41161e-05,5,1
4.191315e-05,4.661304e-05,5,1
0.0001313732,4.72613e-05,5,1
0.0002519498,7.643307e-05,5,1
0.0004038051,0.0001287802,5,1
0.0005699221,0.000185503,5,1
0.0007217774,0.0002289366,5,1
0.000834575,0.000249843,5,1
0.0009000494,0.0002461155,5,1
0.0009313281,0.0002242366,5,1
0.0009451036,0.0001942546,5,1
0.0009572586,0.0001678379,5,1
0.0009711962,0.0001500107,5,1
0.0009781651,0.0001388282,5,1
0.0009546655,0.0001304008,5,1
0.0008807636,0.0001214872,5,1
0.0007540284,0.0001093323,5,1
0.0005892079,9.409818e-05,5,1
0.0004086671,7.805372e-05,5,1
0.000237526,6.233338e-05,5,1
9.588091e-05,4.904402e-05,5,1
-5.085794e-06,3.462021e-05,5,1
-7.072225e-05,1.857574e-05,5,1
-0.0001157764,-2.238346e-07,5,1
-0.0001564548,-2.080613e-05,5,1
-0.0002160948,-4.203669e-05,5,1
-0.0003156029,-6.197072e-05,5,1
-0.0004559515,-7.914964e-05,5,1
-0.0006134789,-9.2439e-05,5,1
-0.0007466965,-0.0001029732,5,1
-0.0008235155,-0.0001117248,5,1
-0.0008359946,-0.0001203142,5,1
-0.0007959644,-0.0001289037,5,1
-0.0007212523,-0.0001392759,5,1
-0.0006301716,-0.0001504584,5,1
-0.0005369841,-0.0001588858,5,1
-0.0004544929,-0.0001614788,5,1
-0.0003875599,-0.000161965,5,1
-0.0003316474,-0.0001639098,5,1
-0.0002789762,-0.0001650443,5,1
-0.0002152845,-0.0001653684,5,1
-0.0001280934,-0.0001647201,5,1
-1.740276e-05,-0.0001621271,5,1
9.701536e-05,-0.0001571031,5,1
0.0001874478,-0.0001509446,5,1
0.0002307193,-0.0001472171,5,1
0.0002231022,-0.0001464067,5,1
0.0001842065,-0.0001475412,5,1
0.0001367214,-0.0001452723,5,1
0.0001012291,-0.0001391138,5,1
8.437427e-05,-0.0001313347,5,1
8.356394e-05,-0.0001253383,5,1
0.0001013911,-0.0001216107,5,1
0.0001516314,-0.0001203142,5,1
0.0002576221,-0.0001183694,5,1
0.0004324906,-0.0001144799,5,1
0.0006491721,-0.0001071869,5,1
0.0008462437,-9.357346e-05,5,1
0.0009640653,-7.250496e-05,5,1
0.0009622826,-4.252288e-05,5,1
0.0008392748,-5.734056e-06,5,1
0.0006357207,3.364782e-05,5,1
0.0004302217,6.816773e-05,5,1
0.00030689,8.648112e-05,5,1
0.000307052,8.729144e-05,5,1
0.0004067223,7.691926e-05,5,1
0.0005289196,7.189524e-05,5,1
0.000594394,8.988449e-05,5,1
0.0005532294,0.0001385041,5,1
0.0003945674,0.0002025199,5,1
0.0001539003,0.0002529222,5,1
-0.0001107524,0.0002675081,5,1
-0.0003384541,0.00024255,5,1
-0.0004906334,0.0001932822,5,1
-0.0005588629,0.0001378558,5,1
-0.000556594,9.053275e-05,5,1
-0.000519319,5.536457e-05,5,1
-0.0004937127,3.316162e-05,5,1
-0.0005185087,2.311357e-05,5,1
-0.0005958138,2.359977e-05,5,1
-0.0006914323,2.700314e-05,5,1
-0.0007646859,2.262738e-05,5,1
-0.0007891576,5.448452e-06,5,1
-0.0007591756,-2.129233e-05,5,1
-0.0006927288,-4.511593e-05,5,1
-0.0006134789,-5.370539e-05,5,1
-0.0005397392,-3.377136e-05,5,1
-0.0004789647,1.760335e-05,5,1
-0.0004316416,9.020862e-05,5,1
-0.000402632,0.0001595726,5,1
-0.0003924218,0.000202844,5,1
-0.0004013355,0.0002109473,5,1
-0.0004287245,0.000187772,5,1
-0.0004716718,0.0001451488,5,1
-0.0005236948,9.879808e-05,5,1
-0.0005775004,6.476436e-05,5,1
-0.000623689,6.330578e-05,5,1
-0.0006512401,0.0001069013,5,1
-0.0006514022,0.0001861513,5,1
-0.0006202856,0.0002676702,5,1
-0.0005621043,0.0003158036,5,1
-0.0004882024,0.0003114278,5,1
-0.0004152731,0.0002603772,5,1
-0.0003613053,0.0001866375,5,1
-0.0003410472,0.0001150046,5,1
-0.0003544986,6.41161e-05,5,1
-0.000385291,3.380988e-05,5,1
-0.0004060354,1.436204e-05,5,1
-0.0003859393,-3.858999e-07,5,1
-0.0003068514,-1.367526e-05,5,1
-0.0001741199,-2.631635e-05,5,1
-1.351319e-05,-3.279896e-05,5,1
0.0001367214,-2.923353e-05,5,1
0.0002404432,-2.372331e-05,5,1
0.0002835526,-3.571614e-05,5,1
0.000279663,-7.509801e-05,5,1
0.0002537325,-0.0001361966,5,1
0.0002289366,-0.0002021572,5,1
0.000217754,-0.0002600145,5,1
0.000217754,-0.0003013411,5,1
0.000220023,-0.00032322,5,1
0.0002213195,-0.0003254889,5,1
0.0002323399,-0.0003123616,5,1
0.0002657254,-0.0002848105,5,1
0.0003248792,-0.0002391081,5,1
0.0004098015,-0.0001757406,5,1
0.0005177371,-0.0001054042,5,1
0.0006352345,-4.236082e-05,5,1
0.0007345806,-7.100305e-07,5,1
0.0007789865,2.052053e-05,5,1
0.0007517595,2.635488e-05,5,1
0.0006608408,2.197911e-05,5,1
0.0005321609,9.824215e-06,5,1
0.0003960259,-1.010982e-05,5,1
0.0002837146,-3.522994e-05,5,1
0.0002248849,-6.310517e-05,5,1
0.0002329882,-8.984595e-05,5,1
0.0002923041,-0.0001118868,5,1
0.0003730126,-0.000127121,5,1
0.0004477248,-0.0001361966,5,1
0.0004937514,-0.0001408965,5,1
0.0004952099,-0.0001426792,5,1
0.0004537212,-0.0001396,5,1
0.000393757,-0.0001287416,5,1
0.0003444891,-0.000104918,5,1
0.0003166139,-7.007399e-05,5,1
0.0003002453,-3.571614e-05,5,1
0.0002725321,-8.651231e-06,5,1
0.0002213195,9.824215e-06,5,1
0.0001534141,2.684107e-05,5,1
9.361199e-05,5.374392e-05,5,1
6.816773e-05,0.0001026876,5,1
8.631905e-05,0.0001715654,5,1
0.0001385041,0.0002464396,5,1
0.0002025199,0.0003107795,5,1
0.0002540567,0.0003496752,5,1
0.0002788527,0.0003598854,5,1
0.0002757735,0.0003407616,5,1
0.0002543808,0.0002986247,5,1
0.0002341226,0.0002456293,5,1
0.0002333123,0.0001898788,5,1
0.0002521119,0.0001347766,5,1
0.0002723701,8.291568e-05,5,1
0.0002636185,3.850978e-05,5,1
0.0002096508,9.500085e-06,5,1
0.0001141943,3.989864e-06,5,1
-3.14101e-06,2.165498e-05,5,1
-0.0001224211,5.260946e-05,5,1
-0.0002370013,8.615699e-05,5,1
-0.0003519055,0.0001192183,5,1
-0.0004635685,0.0001511452,5,1
-0.0005557837,0.0001759412,5,1
-0.0006052136,0.0001850168,5,1
-0.0005967862,0.0001751309,5,1
-0.0005308256,0.0001539003,5,1
-0.0004305072,0.0001389903,5,1
-0.0003298647,0.0001485521,5,1
-0.0002533699,0.0001867996,5,1
-0.0002094502,0.000239957,5,1
-0.0001951884,0.0002853353,5,1
-0.0002049123,0.0003036487,5,1
-0.0002404046,0.0002916559,5,1
-0.0003100927,0.000252274,5,1
-0.0004139766,0.0001963614,5,1
-0.0005374703,0.0001334801,5,1
-0.0006578848,7.059871e-05,5,1
-0.000750262,1.1769e-05,5,1
-0.0007980713,-3.992984e-05,5,1
-0.0008009885,-8.417367e-05,5,1
-0.0007807303,-0.0001201522,5,1
-0.0007596618,-0.0001480274,5,1
-0.000752693,-0.0001741199,5,1
-0.0007603101,-0.0002018331,5,1
-0.0007648479,-0.0002305186,5,1
-0.000740214,-0.000261149,5,1
-0.0006674466,-0.0002924276,5,1
-0.0005483287,-0.0003217614,5,1
-0.0003945287,-0.0003425058,5,1
-0.0002254946,-0.0003564434,5,1
-5.565017e-05,-0.0003651949,5,1
0.000105929,-0.0003724878,5,1
0.0002525981,-0.0003805911,5,1
0.0003798194,-0.0003854531,5,1
0.0004867825,-0.0003791325,5,1
0.0005733255,-0.0003609812,5,1
0.0006381517,-0.0003327818,5,1
0.0006780197,-0.0002966413,5,1
0.0006867713,-0.0002515871,5,1
0.0006682958,-0.0002013469,5,1
0.0006328035,-0.0001507825,5,1
0.0006021731,-0.0001034594,5,1
0.0005930975,-5.921561e-05,5,1
0.0006052523,-1.432352e-05,5,1
0.0006229175,2.943412e-05,5,1
0.0006277795,6.654708e-05,5,1
0.0006041179,9.361199e-05,5,1
0.0005446399,0.0001090082,5,1
0.000458097,0.000113546,5,1
0.0003582647,0.0001098185,5,1
0.0002569738,9.944634e-05,5,1
0.000163138,8.437427e-05,5,1
8.178122e-05,6.670914e-05,5,1
1.387585e-05,4.709924e-05,5,1
-4.219875e-05,2.943412e-05,5,1
-9.179074e-05,2.035846e-05,5,1
-0.0001361966,2.457216e-05,5,1
-0.0001715269,3.850978e-05,5,1
-0.0001831956,6.184718e-05,5,1
-0.0001535376,9.231547e-05,5,1
-6.748094e-05,0.0001214872,5,1
6.541262e-05,0.0001372076,5,1
0.0002128921,0.0001339663,5,1
0.0003396272,0.0001148425,5,1
0.0004313562,9.150514e-05,5,1
0.0004918066,7.465034e-05,5,1
0.0005274609,6.995045e-05,5,1
0.0005439916,7.57848e-05,5,1
0.0005428572,8.761557e-05,5,1
0.0005329712,9.928428e-05,5,1
0.0005363746,0.000106091,5,1
0.000572029,0.000106091,5,1
0.0006352345,9.928428e-05,5,1
0.0006997365,8.84259e-05,5,1
0.0007357151,7.756752e-05,5,1
0.0007117294,6.751948e-05,5,1
0.0006059006,5.893001e-05,5,1
0.0004177427,5.293359e-05,5,1
0.0001673517,5.260946e-05,5,1
-0.0001156143,5.811968e-05,5,1
-0.0003984183,6.654708e-05,5,1
-0.0006471885,7.400208e-05,5,1
-0.0008327533,7.708133e-05,5,1
-0.0009369612,7.30297e-05,5,1
-0.0009515471,6.379197e-05,5,1
-0.0008852624,5.698522e-05,5,1
-0.0007710064,5.52025e-05,5,1
-0.0006528608,5.649903e-05,5,1
-0.0005651835,5.552663e-05,5,1
-0.0005129984,4.904402e-05,5,1
-0.0004835025,3.445814e-05,5,1
-0.0004643789,1.209313e-05,5,1
-0.0004549791,-1.237873e-05,5,1
-0.0004567618,-3.26369e-05,5,1
-0.0004601652,-4.608832e-05,5,1
-0.0004549791,-4.80331e-05,5,1
-0.000439907,-3.587821e-05,5,1
-0.0004188385,-1.318906e-05,5,1
-0.000387884,1.063454e-05,5,1
-0.0003420196,2.732727e-05,5,1
-0.0002846485,3.445814e-05,5,1
-0.0002232257,4.158902e-05,5,1
-0.0001731475,5.504044e-05,5,1
-0.00015451,7.367795e-05,5,1
-0.0001784957,8.680524e-05,5,1
-0.0002327876,8.437427e-05,5,1
-0.0002814071,6.687121e-05,5,1
-0.0002872415,4.272347e-05,5,1
-0.0002340841,1.695509e-05,5,1
-0.0001324691,-8.813297e-06,5,1
-1.270286e-05,-3.879538e-05,5,1
0.0001044704,-7.444975e-05,5,1
0.0002206712,-0.0001152902,5,1
0.0003451374,-0.0001532135,5,1
0.0004689553,-0.000179306,5,1
0.0005640878,-0.0001963229,5,1
0.000599256,-0.0002053985,5,1
0.0005691118,-0.0002075054,5,1
0.0005034753,-0.0002006986,5,1
0.0004425387,-0.0001869231,5,1
0.0004140152,-0.0001690959,5,1
0.000425846,-0.0001498101,5,1
0.0004749518,-0.0001323071,5,1
0.0005589016,-0.0001141558,5,1
0.0006833679,-9.616651e-05,5,1
0.0008567779,-7.752899e-05,5,1
0.001071353,-6.051213e-05,5,1
0.00128139,-5.046408e-05,5,1
0.001413473,-4.738484e-05,5,1
0.001399049,-4.90055e-05,5,1
0.001205219,-5.078821e-05,5,1
0.0008506195,-5.22468e-05,5,1
0.0003989431,-5.289507e-05,5,1
-5.64605e-05,-5.581224e-05,5,1
-0.0004293727,-6.0188e-05,5,1
-0.0006719845,-6.780507e-05,5,1
-0.0007768407,-7.736692e-05,5,1
-0.000775058,-8.141856e-05,5,1
-0.0007196317,-7.201877e-05,5,1
-0.0006598296,-5.2733e-05,5,1
-0.0006298475,-2.42095e-05,5,1
-0.0006442713,1.387585e-05,5,1
-0.0006964564,6.265751e-05,5,1
-0.0007641996,0.0001167873,5,1
-0.0008199501,0.0001684862,5,1
-0.0008377773,0.0002085163,5,1
-0.0008071469,0.0002333123,5,1
-0.000740376,0.0002487085,5,1
-0.0006570745,0.0002639427,5,1
-0.0005674524,0.0002838767,5,1
-0.0004747511,0.0003051073,5,1
-0.0003736223,0.0003182346,5,1
-0.000263742,0.0003174242,5,1
-0.0001658546,0.000302028,5,1
-0.0001131834,0.0002738286,5,1
-0.000122097,0.0002388225,5,1
-0.0001734716,0.0002031682,5,1
-0.0002157707,0.0001692965,5,1
-0.0002018331,0.0001404489,5,1
-0.0001139937,0.0001169494,5,1
3.462021e-05,9.474644e-05,5,1
0.0002030061,6.930219e-05,5,1
0.0003425444,3.624086e-05,5,1
0.0004167703,-3.627206e-06,5,1
0.0004222805,-4.949169e-05,5,1
0.000391164,-9.811128e-05,5,1
0.0003678266,-0.0001438137,5,1
0.0003799815,-0.0001806025,5,1
0.0004190393,-0.0001989159,5,1
0.0004488593,-0.0001901644,5,1
0.0004310321,-0.0001507825,5,1
0.0003512959,-8.968389e-05,5,1
0.0002239125,-2.42095e-05,5,1
8.907416e-05,3.332369e-05,5,1
1.234753e-06,7.967438e-05,5,1
-1.108221e-05,0.0001166253,5,1
3.834771e-05,0.000145797,5,1
0.0001072255,0.0001696206,5,1
0.0001454729,0.0001867996,5,1
0.0001252147,0.0001924718,5,1
4.418206e-05,0.0001811273,5,1
-7.995997e-05,0.0001503349,5,1
-0.0002157707,0.0001043083,5,1
-0.0003347266,5.001642e-05,5,1
-0.0004204592,-2.006553e-06,5,1
-0.0004650271,-4.495386e-05,5,1
-0.0004789647,-7.736692e-05,5,1
-0.0004788027,-0.0001008664,5,1
-0.0004739407,-0.0001175591,5,1
-0.0004700511,-0.0001308485,5,1
-0.0004685925,-0.0001449482,5,1
-0.0004799371,-0.0001598582,5,1
-0.0005117019,-0.0001716889,5,1
-0.0005624284,-0.0001749302,5,1
-0.0006128307,-0.0001674752,5,1
-0.0006361681,-0.0001512687,5,1
-0.0006103997,-0.0001336036,5,1
-0.0005245051,-0.0001182074,5,1
-0.0003796187,-0.000104756,5,1
-0.0001945401,-9.130454e-05,5,1
-1.318906e-05,-7.574627e-05,5,1
0.0001188942,-5.889148e-05,5,1
0.0001748067,-4.203669e-05,5,1
0.0001633001,-2.89094e-05,5,1
0.0001120874,-1.99958e-05,5,1
5.19612e-05,-1.594417e-05,5,1
1.533444e-05,-1.545797e-05,5,1
3.073064e-05,-1.707863e-05,5,1
0.0001193804,-1.724069e-05,5,1
0.0002932765,-1.740276e-05,5,1
0.0005287575,-1.983374e-05,5,1
0.0007723419,-2.437157e-05,5,1
0.000970548,-2.566809e-05,5,1
0.001094042,-2.210265e-05,5,1
0.001140069,-1.805102e-05,5,1
0.001118838,-1.918548e-05,5,1
0.001058874,-2.761287e-05,5,1
0.0009903199,-3.992984e-05,5,1
0.0009293833,-5.013995e-05,5,1
0.0008789809,-5.500191e-05,5,1
0.0008363577,-5.402952e-05,5,1
0.0008071859,-4.835724e-05,5,1
0.0007947069,-3.976777e-05,5,1
0.0008036205,-2.566809e-05,5,1
0.0008256614,-3.465141e-06,5,1
0.0008329543,2.570662e-05,5,1
0.0007862795,5.747142e-05,5,1
0.0006618132,8.875003e-05,5,1
0.0004806241,0.0001222976,5,1
0.0002897111,0.0001616794,5,1
0.0001279698,0.0002081922,5,1
-5.085794e-06,0.0002636185,5,1
-0.0001417068,0.0003214759,5,1
-0.0003096065,0.0003697714,5,1
-0.0005008436,0.0004013741,5,1
-0.0006753879,0.000418391,5,1
-0.0007943438,0.0004292493,5,1
-0.0008385876,0.0004388112,5,1
-0.0008155743,0.0004378388,5,1
-0.0007450759,0.0004151496,5,1
-0.0006390853,0.0003631267,5,1
-0.0005091089,0.0002884145,5,1
-0.0003801049,0.0002049509,5,1
-0.0002827037,0.0001286181,5,1
-0.0002318152,6.800567e-05,5,1
-0.0002233878,2.035846e-05,5,1
-0.0002357047,-1.562004e-05,5,1
-0.0002442942,-4.462973e-05,5,1
-0.0002323013,-6.893953e-05,5,1
-0.0002024813,-8.854943e-05,5,1
-0.0001663408,-0.0001041077,5,1
-0.0001415448,-0.0001195039,5,1
-0.0001400862,-0.0001365208,5,1
-0.0001707166,-0.000161965,5,1
-0.0002342462,-0.0002052365,5,1
-0.0003165753,-0.0002663351,5,1
-0.0003919357,-0.0003334301,5,1
-0.0004425001,-0.0003899909,5,1
-0.0004760476,-0.0004230522,5,1
-0.0005123502,-0.0004277521,5,1
-0.0005629146,-0.0004084663,5,1
-0.0006270924,-0.0003744326,5,1
-0.000695646,-0.00033813,5,1
-0.000752855,-0.0003102548,5,1
-0.0007817027,-0.0002930758,5,1
-0.0007690616,-0.0002801106,5,1
-0.0007074767,-0.0002639041,5,1
-0.0005979206,-0.0002418632,5,1
-0.0004634065,-0.0002084778,5,1
-0.0003334301,-0.0001468929,5,1
-0.0002352185,-4.738484e-05,5,1
-0.0001828714,7.853991e-05,5,1
-0.0001700683,0.0001934442,5,1
-0.0001733096,0.0002525981,5,1
-0.0001567789,0.000235095,5,1
-9.600444e-05,0.0001487142,5,1
5.286387e-06,2.554455e-05,5,1
0.0001172735,-9.324933e-05,5,1
0.000210137,-0.000179306,5,1
0.0002782044,-0.0002180396,5,1
0.0003375204,-0.00021415,5,1
0.0003944053,-0.0001812508,5,1
0.0004331389,-0.0001365208,5,1
0.0004318424,-9.227693e-05,5,1
0.0003893813,-5.69467e-05,5,1
0.0003256896,-3.393342e-05,5,1
0.0002663737,-2.534396e-05,5,1
0.0002247229,-2.161646e-05,5,1
0.0002073819,-1.3027e-05,5,1
0.0002128921,7.879432e-06,5,1
0.0002287745,4.288554e-05,5,1
0.0002394708,8.388807e-05,5,1
0.0002329882,0.0001205148,5,1
0.000210299,0.0001445005,5,1
0.000187772,0.0001550348,5,1
0.0001914995,0.0001543865,5,1
0.0002472499,0.0001488763,5,1
0.0003597233,0.0001448246,5,1
0.0005020167,0.0001475797,5,1
0.0006336138,0.0001564933,5,1
0.0007186982,0.0001697827,5,1
0.0007423597,0.0001816135,5,1
0.0007099467,0.0001895547,5,1
0.0006417171,0.0001914995,5,1
0.0005584154,0.0001900409,5,1
0.0004736553,0.0001895547,5,1
0.0003900295,0.00019782,5,1
0.0003007315,0.0002179161,5,1
0.0002013854,0.0002495189,5,1
9.328786e-05,0.0002848491,5,1
-1.351319e-05,0.0003138588,5,1
-0.0001063766,0.0003279585,5,1
-0.0001781716,0.0003190449,5,1
-0.0002246843,0.0002850112,5,1
-0.0002381357,0.0002307193,5,1
-0.0002196603,0.0001676758,5,1
-0.0001809267,0.0001077117,5,1
-0.0001303623,6.119892e-05,5,1
-7.623246e-05,3.235129e-05,5,1
-2.89094e-05,1.501031e-05,5,1
-2.006553e-06,-3.951337e-06,5,1
-1.059602e-05,-3.020592e-05,5,1
-5.840528e-05,-6.423963e-05,5,1
-0.0001308485,-9.875954e-05,5,1
-0.0002097743,-0.0001261486,5,1
-0.0002831898,-0.0001397621,5,1
-0.0003468815,-0.0001396,5,1
-0.0003997148,-0.0001279313,5,1
-0.0004416897,-0.0001141558,5,1
-0.0004663236,-0.0001034594,5,1
-0.0004632444,-9.794922e-05,5,1
-0.0004259694,-0.0001013526,5,1
-0.0003583881,-0.0001149661,5,1
-0.0002723315,-0.0001363587,5,1
-0.0001799543,-0.0001582375,5,1
-9.438378e-05,-0.0001760647,5,1
-2.307504e-05,-0.0001874093,5,1
2.76514e-05,-0.0001875713,5,1
5.017848e-05,-0.0001765509,5,1
4.45062e-05,-0.0001626133,5,1
2.76514e-05,-0.0001553203,5,1
3.105477e-05,-0.000159534,5,1
7.027458e-05,-0.0001754164,5,1
0.0001260251,-0.0001984297,5,1
0.0001543865,-0.0002152845,5,1
0.0001205148,-0.0002133397,5,1
1.079661e-05,-0.0001890299,5,1
-0.0001603444,-0.0001488377,5,1
-0.0003502849,-0.0001054042,5,1
-0.0005073262,-6.683268e-05,5,1
-0.0005945173,-3.377136e-05,5,1
-0.0006014861,-1.844488e-06,5,1
-0.0005298533,3.380988e-05,5,1
-0.0003752429,7.448828e-05,5,1
-0.0001506204,0.0001151667,5,1
0.0001080358,0.0001483901,5,1
0.0003446512,0.0001702689,5,1
0.0005102821,0.0001783722,5,1
0.0005747841,0.0001684862,5,1
0.0005237334,0.0001360731,5,1
0.0003678266,8.486046e-05,5,1
0.0001375317,2.667901e-05,5,1
-0.0001144799,-2.226472e-05,5,1
-0.0003264613,-5.516398e-05,5,1
-0.0004433104,-7.60704e-05,5,1
-0.000432452,-9.033215e-05,5,1
-0.0003060411,-9.908367e-05,5,1
-0.0001125351,-0.0001010285,5,1
9.344993e-05,-9.422172e-05,5,1
0.0002728562,-8.44978e-05,5,1
0.0004200116,-7.590833e-05,5,1
0.00055955,-6.423963e-05,5,1
0.0007102708,-3.733679e-05,5,1
0.0008640709,6.582909e-06,5,1
0.0009891854,5.925414e-05,5,1
0.001049474,0.0001088461,5,1
0.001018357,0.0001443384,5,1
0.0008959978,0.000163138,5,1
0.0007102708,0.0001652449,5,1
0.0005010443,0.000155683,5,1
0.0003102934,0.0001378558,5,1
0.0001658931,0.0001174356,5,1
7.432621e-05,9.944634e-05,5,1
3.008238e-05,8.583286e-05,5,1
3.056858e-05,8.129502e-05,5,1
8.340187e-05,8.956036e-05,5,1
0.0002021958,0.0001054428,5,1
0.0003854917,0.0001216493,5,1
0.0006063868,0.0001313732,5,1
0.0008206373,0.0001352628,5,1
0.0009872407,0.0001370455,5,1
0.001081239,0.0001420695,5,1
0.0011002,0.0001514693,5,1
0.001062925,0.0001613553,5,1
0.001003285,0.0001702689,5,1
0.000950776,0.0001770756,5,1
0.0009055596,0.0001816135,5,1
0.0008361956,0.0001827479,5,1
0.0007028158,0.0001816135,5,1
0.0004921307,0.0001769136,5,1
0.0002295848,0.0001676758,5,1
-3.879538e-05,0.0001543865,5,1
-0.000268766,0.0001401247,5,1
-0.0004355313,0.0001278078,5,1
-0.0005397392,0.0001163011,5,1
-0.0006019723,0.0001038221,5,1
-0.0006523746,8.761557e-05,5,1
-0.0007159042,6.703327e-05,5,1
-0.0008089297,4.175109e-05,5,1
-0.0009382577,1.063454e-05,5,1
-0.001085737,-2.177852e-05,5,1
-0.001215551,-5.192267e-05,5,1
-0.001288643,-8.206682e-05,5,1
-0.001278595,-0.0001131834,5,1
-0.001196428,-0.0001405724,5,1
-0.001091896,-0.0001611547,5,1
-0.001024801,-0.000171851,5,1
-0.001022856,-0.0001757406,5,1
-0.001074068,-0.0001788198,5,1
-0.001132736,-0.0001814128,5,1
-0.001137274,-0.000176875,5,1
-0.001034362,-0.0001549962,5,1
-0.0008167088,-0.0001104282,5,1
-0.0005259637,-5.467778e-05,5,1
-0.0002293842,-5.085794e-06,5,1
9.66215e-06,1.808955e-05,5,1
0.000145635,1.047248e-05,5,1
0.0001654069,-1.99958e-05,5,1
0.0001052807,-5.775702e-05,5,1
2.34377e-05,-8.919769e-05,5,1
-3.069211e-05,-0.0001105903,5,1
-3.604027e-05,-0.0001237176,5,1
-4.923729e-06,-0.0001357104,5,1
3.575467e-05,-0.0001491618,5,1
6.249545e-05,-0.0001603444,5,1
5.56887e-05,-0.0001673132,5,1
8.365628e-06,-0.0001716889,5,1
-6.164659e-05,-0.000171851,5,1
-0.0001227452,-0.0001686097,5,1
-0.0001532135,-0.0001627754,5,1
-0.0001533756,-0.0001554824,5,1
-0.0001413827,-0.0001441378,5,1
-0.000132145,-0.0001261486,5,1
-0.0001311726,-0.0001003802,5,1
-0.0001361966,-7.104638e-05,5,1
-0.0001485136,-4.43056e-05,5,1
-0.0001736337,-2.258885e-05,5,1
-0.0002109087,-3.303076e-06,5,1
-0.000251101,1.436204e-05,5,1
-0.0002752487,3.089271e-05,5,1
-0.0002549905,4.742337e-05,5,1
-0.0001580754,6.816773e-05,5,1
2.003433e-05,9.280167e-05,5,1
0.0002462775,0.0001122495,5,1
0.0004699278,0.0001154908,5,1
0.0006444722,9.717743e-05,5,1
0.0007360392,6.492643e-05,5,1
0.0007360392,3.18651e-05,5,1
0.0006603546,8.041497e-06,5,1
0.0005341057,-2.330684e-06,5,1
0.0003853296,-2.492749e-06,5,1
0.0002428742,4.638125e-06,5,1
0.0001393144,1.889987e-05,5,1
9.101894e-05,4.061663e-05,5,1
9.523264e-05,7.157111e-05,5,1
0.0001266733,0.0001132219,5,1
0.0001495245,0.0001579519,5,1
0.000138342,0.0001889064,5,1
8.259155e-05,0.000195389,5,1
-5.409925e-06,0.0001819376,5,1
-9.843541e-05,0.0001715654,5,1
-0.0001674752,0.0001843686,5,1
-0.0001904885,0.0002185644,5,1
-0.0001601823,0.0002542187,5,1
-9.211487e-05,0.000272208,5,1
-1.99958e-05,0.0002624841,5,1
2.441009e-05,0.0002292607,5,1
2.619281e-05,0.0001840444,5,1
-9.785688e-06,0.0001334801,5,1
-7.137051e-05,8.42122e-05,5,1
-0.0001451102,3.964424e-05,5,1
-0.0002277635,4.244267e-07,5,1
-0.0003297026,-3.522994e-05,5,1
-0.0004574101,-6.48879e-05,5,1
-0.0005993792,-8.40116e-05,5,1
-0.0007319486,-9.179074e-05,5,1
-0.0008306464,-8.352541e-05,5,1
-0.0008784557,-5.824322e-05,5,1
-0.0008706765,-2.566809e-05,5,1
-0.0008181673,1.002961e-07,5,1
-0.0007397278,9.66215e-06,5,1
-0.0006431369,7.879432e-06,5,1
-0.0005327704,5.934648e-06,5,1
-0.0004139766,8.365628e-06,5,1
-0.0002980999,1.403791e-05,5,1
-0.0001919471,1.857574e-05,5,1
-9.422172e-05,1.727922e-05,5,1
1.209313e-05,7.879432e-06,5,1
0.0001401247,-8.975362e-06,5,1
0.0002889007,-2.858527e-05,5,1
0.0004478869,-4.673658e-05,5,1
0.000606873,-6.099833e-05,5,1
0.0007564594,-7.396356e-05,5,1
0.0008789809,-8.514606e-05,5,1
0.0009546655,-9.389759e-05,5,1
0.0009681169,-0.0001032974,5,1
0.0009222524,-0.0001102662,5,1
0.0008451093,-0.0001120489,5,1
0.0007718556,-0.0001086455,5,1
0.0007269635,-0.0001005423,5,1
0.0007146465,-9.260107e-05,5,1
0.0007165913,-8.919769e-05,5,1
0.0007062191,-9.2439e-05,5,1
0.000663596,-0.0001005423,5,1
0.0005840218,-0.000112211,5,1
0.0004781931,-0.000122259,5,1
0.0003581026,-0.0001274451,5,1
0.0002346088,-0.0001266348,5,1
0.0001265113,-0.0001212866,5,1
5.390598e-05,-0.0001178833,5,1
2.651694e-05,-0.0001178833,5,1
3.575467e-05,-0.0001188556,5,1
6.265751e-05,-0.0001177212,5,1
9.118101e-05,-0.0001114006,5,1
0.0001101427,-9.875954e-05,5,1
0.000115977,-8.060823e-05,5,1
0.0001119254,-6.213279e-05,5,1
0.0001067393,-4.916756e-05,5,1
0.0001052807,-4.219875e-05,5,1
0.0001031738,-3.717473e-05,5,1
8.907416e-05,-3.377136e-05,5,1
5.455425e-05,-3.409549e-05,5,1
-8.720959e-07,-3.879538e-05,5,1
-6.407757e-05,-4.85193e-05,5,1
-0.0001229073,-5.759496e-05,5,1
-0.0001733096,-5.856735e-05,5,1
-0.00021415,-4.949169e-05,5,1
-0.0002459149,-3.101625e-05,5,1
-0.000261311,-3.951337e-06,5,1
-0.0002575835,2.910999e-05,5,1
-0.0002266291,6.444023e-05,5,1
-0.0001524032,9.68533e-05,5,1
-1.950961e-05,0.0001240803,5,1
0.0001701068,0.0001467694,5,1
0.0003859779,0.000168,5,1
0.0005764047,0.0001867996,5,1
0.0006929298,0.0002023578,5,1
0.0007143224,0.0002135403,5,1
0.0006499824,0.0002208333,5,1
0.0005352402,0.0002294227,5,1
0.000416122,0.0002428742,5,1
0.0003339549,0.0002605393,5,1
0.0003106175,0.0002783665,5,1
0.0003397893,0.0002906835,5,1
0.0003940812,0.0002979764,5,1
0.0004365423,0.0002997591,5,1
0.0004339493,0.0002927903,5,1
0.0003704196,0.0002728562,5,1
0.0002564877,0.0002412535,5,1
0.0001122495,0.0002008992,5,1
-4.997789e-05,0.0001603829,5,1
-0.0002326255,0.0001250527,5,1
-0.0004378002,9.571884e-05,5,1
-0.000653347,7.643307e-05,5,1
-0.0008497701,6.735741e-05,5,1
-0.0009982219,6.346784e-05,5,1
-0.00108363,5.925414e-05,5,1
-0.001100323,4.855783e-05,5,1
-0.001054783,3.170304e-05,5,1
-0.0009619193,1.241726e-05,5,1
-0.0008434496,-5.247859e-06,5,1
-0.0007207661,-2.404744e-05,5,1
-0.0006039171,-5.030202e-05,5,1
-0.0004906334,-8.498399e-05,5,1
-0.0003749188,-0.0001219349,5,1
-0.0002579077,-0.0001535376,5,1
-0.0001460826,-0.0001747682,5,1
-4.495386e-05,-0.0001844921,5,1
4.855783e-05,-0.0001849783,5,1
0.0001404489,-0.0001831956,5,1
0.0002333123,-0.0001827094,5,1
0.0003269861,-0.0001836818,5,1
0.0004250357,-0.0001861127,5,1
0.0005290816,-0.0001880575,5,1
0.0006358828,-0.0001893541,5,1
0.0007274497,-0.0001903264,5,1
0.0007762314,-0.0001906506,5,1
0.0007656972,-0.000191785,5,1
0.0006921195,-0.0001904885,5,1
0.0005663567,-0.0001789819,5,1
0.0004057499,-0.0001514308,5,1
0.0002258573,-0.0001032974,5,1
3.591673e-05,-4.673658e-05,5,1
-0.0001575893,1.558884e-06,5,1
-0.0003389403,3.218923e-05,5,1
-0.0004852853,4.742337e-05,5,1
-0.0005723144,5.390598e-05,5,1
-0.0005880346,5.974033e-05,5,1
-0.0005413599,6.703327e-05,5,1
-0.0004624341,6.946425e-05,5,1
-0.000395177,5.682316e-05,5,1
-0.0003695707,3.154097e-05,5,1
-0.0003791325,2.693341e-06,5,1
-0.0004014975,-2.129233e-05,5,1
-0.0004228902,-3.506788e-05,5,1
-0.0004416897,-3.587821e-05,5,1
-0.0004590307,-2.84232e-05,5,1
-0.0004655133,-2.09682e-05,5,1
-0.0004340726,-1.610624e-05,5,1
-0.0003365093,-1.318906e-05,5,1
-0.0001700683,-5.734056e-06,5,1
2.246531e-05,6.258778e-06,5,1
0.0001838824,2.214118e-05,5,1
0.0002681563,3.737532e-05,5,1
0.0002681563,4.985435e-05,5,1
0.0002109473,5.633696e-05,5,1
0.0001342904,5.811968e-05,5,1
6.78436e-05,5.909208e-05,5,1
2.376183e-05,6.606088e-05,5,1
-5.479652e-07,7.983644e-05,5,1
-1.075808e-05,9.361199e-05,5,1
-9.947754e-06,0.0001005808,5,1
1.883015e-06,9.879808e-05,5,1
2.635488e-05,8.875003e-05,5,1
6.217132e-05,7.610894e-05,5,1
0.0001017153,7.238143e-05,5,1
0.0001376938,7.983644e-05,5,1
0.0001658931,9.53947e-05,5,1
0.0001799928,0.0001125736,5,1
0.0001785342,0.000128456,5,1
0.0001654069,0.0001409351,5,1
0.0001461212,0.0001487142,5,1
0.0001198666,0.0001508211,5,1
8.615699e-05,0.0001483901,5,1
5.212327e-05,0.0001423936,5,1
3.040651e-05,0.0001344524,5,1
3.18651e-05,0.0001265113,5,1
5.601284e-05,0.0001203528,5,1
9.652917e-05,0.0001161391,5,1
0.0001448246,0.0001127357,5,1
0.0001825859,0.0001069013,5,1
0.0001970097,9.507057e-05,5,1
0.000195227,7.57848e-05,5,1
0.0001950649,5.487838e-05,5,1
0.0002109473,3.640293e-05,5,1
0.0002440086,2.327564e-05,5,1
0.0002795009,1.322759e-05,5,1
0.000297004,3.017472e-06,5,1
0.0002932765,-5.57199e-06,5,1
0.0002790148,-1.399939e-05,5,1
0.0002668598,-1.934754e-05,5,1
0.0002631324,-2.631635e-05,5,1
0.0002662116,-3.539201e-05,5,1
0.000279663,-4.38194e-05,5,1
0.0003049452,-5.159854e-05,5,1
0.0003302274,-6.423963e-05,5,1
0.000329255,-8.530812e-05,5,1
0.000274801,-0.0001149661,5,1
0.0001526038,-0.0001481895,5,1
-2.761287e-05,-0.0001775233,5,1
-0.0002374874,-0.0002018331,5,1
-0.0004403932,-0.0002229016,5,1
-0.0006055377,-0.0002449425,5,1
-0.0007152559,-0.0002677937,5,1
-0.0007641996,-0.0002878898,5,1
-0.0007582033,-0.000300855,5,1
-0.0007141214,-0.0003019894,5,1
-0.0006492953,-0.0002880518,5,1
-0.0005728005,-0.0002627696,5,1
-0.0004911196,-0.0002319772,5,1
-0.0004188385,-0.0001995642,5,1
-0.0003724878,-0.000169258,5,1
-0.000365357,-0.000144624,5,1
-0.0003998769,-0.0001256624,5,1
-0.0004600031,-0.0001075111,5,1
-0.0005146191,-8.417367e-05,5,1
-0.0005423322,-5.856735e-05,5,1
-0.0005334187,-3.26369e-05,5,1
-0.0004946851,-1.351319e-05,5,1
-0.0004368278,-8.489166e-06,5,1
-0.0003698948,-1.950961e-05,5,1
-0.0003044204,-4.252288e-05,5,1
-0.0002525595,-6.359137e-05,5,1
-0.0002191741,-7.201877e-05,5,1
-0.0001984297,-6.326724e-05,5,1
-0.0001708786,-4.025397e-05,5,1
-0.0001232314,-9.461558e-06,5,1
-5.565017e-05,2.116879e-05,5,1
2.376183e-05,4.742337e-05,5,1
9.750156e-05,6.849186e-05,5,1
0.0001448246,8.567078e-05,5,1
0.000148228,9.555677e-05,5,1
0.0001052807,9.361199e-05,5,1
3.543054e-05,8.04847e-05,5,1
-2.874733e-05,6.265751e-05,5,1
-5.921561e-05,4.45062e-05,5,1
-4.43056e-05,3.235129e-05,5,1
1.112074e-05,3.316162e-05,5,1
9.879808e-05,4.953022e-05,5,1
0.0002133783,7.497447e-05,5,1
0.0003632887,0.0001025256,5,1
0.0005577672,0.0001315353,5,1
0.0007885484,0.0001598967,5,1
0.001019978,0.0001861513,5,1
0.001204571,0.0002124059,5,1
0.001309427,0.000242388,5,1
0.001332764,0.0002754493,5,1
0.001294031,0.0003059176,5,1
0.001216239,0.0003240689,5,1
0.001115272,0.0003276344,5,1
0.0009993956,0.000324393,5,1
0.0008723363,0.000319207,5,1
0.0007326358,0.0003111037,5,1
0.0005877494,0.0003000832,5,1
0.0004649037,0.0002884145,5,1
0.0003875985,0.00027707,5,1
0.0003534027,0.0002626462,5,1
0.0003274723,0.00024255,5,1
0.0002733424,0.0002161334,5,1
0.0001851789,0.0001889064,5,1
8.405014e-05,0.0001683241,5,1
-4.437533e-06,0.0001569795,5,1
-7.169464e-05,0.0001539003,5,1
-0.000122259,0.0001526038,5,1
-0.0001661787,0.0001412592,5,1
-0.0002126914,0.0001130598,5,1
-0.0002588801,6.83298e-05,5,1
-0.0002940482,1.144487e-05,5,1
-0.0003136581,-4.85193e-05,5,1
-0.0003311612,-0.0001063766,5,1
-0.0003634122,-0.0001567789,5,1
-0.0004178661,-0.0001982676,5,1
-0.000482044,-0.0002229016,5,1
-0.0005360117,-0.0002173914,5,1
-0.0005619422,-0.0001794681,5,1
-0.0005546492,-0.0001267968,5,1
-0.0005176983,-8.498399e-05,5,1
-0.0004574101,-7.104638e-05,5,1
-0.0003838324,-8.968389e-05,5,1
-0.0003141443,-0.0001289037,5,1
-0.0002771934,-0.0001741199,5,1
-0.0003039342,-0.0002156086,5,1
-0.0004123559,-0.000246239,5,1
-0.0005924104,-0.0002648765,5,1
-0.0008055263,-0.0002739521,5,1
-0.0009975737,-0.0002734659,5,1
-0.001120095,-0.0002632558,5,1
-0.001144243,-0.000243808,5,1
-0.00106791,-0.0002143121,5,1
-0.000906817,-0.0001814128,5,1
-0.0006864083,-0.0001533756,5,1
-0.0004314796,-0.0001376552,5,1
-0.000159372,-0.0001358725,5,1
0.0001151667,-0.0001426792,5,1
0.0003700955,-0.0001522411,5,1
0.0005793219,-0.0001572651,5,1
0.000718374,-0.0001561307,5,1
0.0007783383,-0.0001515928,5,1
0.0007744487,-0.0001451102,5,1
0.0007353909,-0.0001339277,5,1
0.0006945504,-0.0001146419,5,1
0.0006707268,-8.709085e-05,5,1
0.0006545202,-5.192267e-05,5,1
0.0006308587,-1.189254e-05,5,1
0.0005937457,3.008238e-05,5,1
0.0005439916,6.995045e-05,5,1
0.000480462,0.0001015532,5,1
0.0004002396,0.000118408,5,1
0.000309483,0.0001195424,5,1
0.0002159713,0.000110953,5,1
0.0001229458,0.0001015532,5,1
3.267542e-05,9.182927e-05,5,1
-5.532604e-05,8.323981e-05,5,1
-0.0001383035,7.999851e-05,5,1
-0.0002122053,8.712937e-05,5,1
-0.0002692523,0.0001028497,5,1
-0.0003036101,0.0001239182,5,1
-0.0003152788,0.000143204,5,1
-0.0003092824,0.0001560072,5,1
-0.0002925897,0.0001611932,5,1
-0.0002723315,0.0001650828,5,1
-0.000251101,0.0001675138,5,1
-0.0002204706,0.0001662173,5,1
-0.0001575893,0.0001610312,5,1
-4.446767e-05,0.0001560072,5,1
0.0001047945,0.000155521,5,1
0.0002504913,0.0001608691,5,1
0.000356644,0.0001663793,5,1
0.0004201737,0.000168,5,1
0.0004610142,0.0001670276,5,1
0.0005008822,0.0001694586,5,1
0.0005486915,0.0001798307,5,1
0.0005982835,0.0001960373,5,1
0.0006371793,0.0002111094,5,1
0.0006512789,0.000220185,5,1
0.0006300483,0.0002237505,5,1
0.0005780254,0.0002221298,5,1
0.0005128751,0.0002149989,5,1
0.0004524247,0.0002031682,5,1
0.0004140152,0.000187772,5,1
0.0004067223,0.0001756171,5,1
0.0004193634,0.0001699448,5,1
0.0004297355,0.0001671896,5,1
0.000420984,0.0001608691,5,1
0.0003901916,0.0001472556,5,1
0.0003414099,0.0001224596,5,1
0.0002759355,8.307774e-05,5,1
0.0001940925,2.81376e-05,5,1
9.652917e-05,-3.814712e-05,5,1
-1.950961e-05,-0.0001102662,5,1
-0.0001579134,-0.0001835197,5,1
-0.0003259751,-0.000253856,5,1
-0.0005173742,-0.0003136581,5,1
-0.0007120146,-0.0003496366,5,1
-0.000881697,-0.0003523917,5,1
-0.00100357,-0.0003220855,5,1
-0.001068882,-0.000268604,5,1
-0.00108282,-0.0002073433,5,1
-0.001055755,-0.0001524032,5,1
-0.001004056,-0.0001191798,5,1
-0.0009445783,-0.0001191798,5,1
-0.0008946622,-0.000152079,5,1
-0.0008523631,-0.0002084778,5,1
-0.0008003402,-0.0002739521,5,1
-0.0007215765,-0.0003298647,5,1
-0.0006199615,-0.0003575778,5,1
-0.0005053814,-0.0003438023,5,1
-0.0003875599,-0.0002856209,5,1
-0.0002684419,-0.0001953505,5,1
-0.0001509446,-9.940781e-05,5,1
-3.474375e-05,-1.918548e-05,5,1
8.113296e-05,3.267542e-05,5,1
0.0001892305,5.244739e-05,5,1
0.0002782044,4.855783e-05,5,1
0.0003386548,2.878586e-05,5,1
0.0003640991,5.86492e-07,5,1
0.0003558337,-3.069211e-05,5,1
0.0003232586,-5.759496e-05,5,1
0.0002777182,-7.18567e-05,5,1
0.0002180782,-7.315322e-05,5,1
0.0001396385,-6.099833e-05,5,1
3.170304e-05,-4.090223e-05,5,1
-0.0001076731,-2.275091e-05,5,1
-0.0002629317,-1.383732e-05,5,1
-0.0003979321,-1.545797e-05,5,1
-0.0004694029,-2.307504e-05,5,1
-0.0004486585,-3.020592e-05,5,1
-0.0003269475,-3.166451e-05,5,1
-0.0001224211,-2.550602e-05,5,1
0.0001140322,-1.092015e-05,5,1
0.0003151553,1.047248e-05,5,1
0.0004261701,3.267542e-05,5,1
0.0004286011,5.115087e-05,5,1
0.0003412479,6.168512e-05,5,1
0.0002133783,6.638502e-05,5,1
9.831188e-05,6.962632e-05,5,1
3.024445e-05,7.756752e-05,5,1
2.246531e-05,9.490851e-05,5,1
6.865393e-05,0.000121001,5,1
0.0001466074,0.0001485521,5,1
0.0002295848,0.0001684862,5,1
0.0002931144,0.0001791825,5,1
0.0003218,0.0001845306,5,1
0.0003073762,0.0001892305,5,1
0.0002490327,0.0001973338,5,1
0.0001623277,0.0002111094,5,1
6.703327e-05,0.0002295848,5,1
-2.226472e-05,0.0002478982,5,1
-0.0001024871,0.0002566497,5,1
-0.0001823853,0.0002519498,5,1
-0.0002702246,0.0002370398,5,1
-0.0003684362,0.0002169437,5,1
-0.00047232,0.0001987924,5,1
-0.000583821,0.0001872858,5,1
-0.0007027769,0.0001803169,5,1
-0.0008269189,0.0001739964,5,1
-0.0009546264,0.0001626518,5,1
-0.001072286,0.0001415833,5,1
-0.00115348,0.0001107909,5,1
-0.001165797,7.562274e-05,5,1
-0.001088492,3.996837e-05,5,1
-0.0009194582,1.12828e-05,5,1
-0.0006834911,-7.192643e-06,5,1
-0.0004269418,-1.788895e-05,5,1
-0.0001974573,-2.728874e-05,5,1
-2.226472e-05,-4.138842e-05,5,1
9.750156e-05,-5.808115e-05,5,1
0.0001832341,-7.23429e-05,5,1
0.0002579462,-8.287715e-05,5,1
0.000339303,-9.211487e-05,5,1
0.0004425387,-0.0001045939,5,1
0.0005789978,-0.000119828,5,1
0.0007417115,-0.0001327933,5,1
0.0009079906,-0.0001387897,5,1
0.00104526,-0.0001384655,5,1
0.001140069,-0.0001326312,5,1
0.001201653,-0.0001186936,5,1
0.001239415,-9.730096e-05,5,1
0.001253839,-7.201877e-05,5,1
0.001241846,-4.673658e-05,5,1
0.00121316,-2.712668e-05,5,1
0.001178964,-1.934754e-05,5,1
0.001145741,-2.988179e-05,5,1
0.00110409,-5.59743e-05,5,1
0.001038778,-8.838737e-05,5,1
0.0009421865,-0.0001195039,5,1
0.0008220959,-0.0001478653,5,1
0.0006995744,-0.0001741199,5,1
0.00058937,-0.000199078,5,1
0.0004932652,-0.0002235498,5,1
0.0003994293,-0.0002441321,5,1
0.0002966799,-0.0002590421,5,1
0.0001869616,-0.0002647144,5,1
8.729144e-05,-0.0002614731,5,1
1.97102e-05,-0.0002522354,5,1
-8.975362e-06,-0.0002376495,5,1
-6.058186e-06,-0.0002172293,5,1
4.638125e-06,-0.0001925954,5,1
-7.354709e-06,-0.0001655305,5,1
-5.64605e-05,-0.0001410586,5,1
-0.0001396,-0.0001235555,5,1
-0.0002412149,-0.0001133454,5,1
-0.0003412093,-0.0001050801,5,1
-0.0004149489,-9.503204e-05,5,1
-0.0004491447,-8.417367e-05,5,1
-0.0004493068,-7.493595e-05,5,1
-0.0004306693,-6.537409e-05,5,1
-0.0004092767,-5.2733e-05,5,1
-0.0003950149,-3.539201e-05,5,1
-0.0003909633,-1.3027e-05,5,1
-0.000395177,1.322759e-05,5,1
-0.0003955011,3.98063e-05,5,1
-0.0003752429,6.168512e-05,5,1
-0.0003287302,7.870197e-05,5,1
-0.0002645523,9.474644e-05,5,1
-0.0002078295,0.0001122495,5,1
-0.0001818991,0.0001312112,5,1
-0.0001950263,0.0001469315,5,1
-0.0002395943,0.0001548727,5,1
-0.000300855,0.0001564933,5,1
-0.0003689224,0.0001566554,5,1
-0.0004181903,0.0001626518,5,1
-0.0004073319,0.0001799928,5,1
-0.0003052308,0.0002051129,5,1
-0.0001188556,0.0002308813,5,1
0.0001083599,0.0002470879,5,1
0.0003177483,0.0002511395,5,1
0.0004619866,0.0002410915,5,1
0.0005204921,0.0002213195,5,1
0.0004986133,0.000202844,5,1
0.0004196875,0.0001939304,5,1
0.0003128864,0.0001984683,5,1
0.0002073819,0.0002161334,5,1
0.0001286181,0.0002419018,5,1
8.161915e-05,0.0002670219,5,1
5.601284e-05,0.0002816078,5,1
3.154097e-05,0.0002833905,5,1
-4.275467e-06,0.0002749631,5,1
-5.289507e-05,0.0002577842,5,1
-0.0001094559,0.0002372019,5,1
-0.0001630995,0.000215161,5,1
-0.0001968091,0.0001955511,5,1
-0.0001861127,0.0001796687,5,1
-0.0001204763,0.0001678379,5,1
-2.194059e-05,0.0001558451,5,1
7.351589e-05,0.0001409351,5,1
0.0001363972,0.0001295905,5,1
0.0001485521,0.0001226217,5,1
0.0001022015,0.0001163011,5,1
7.879432e-06,0.0001069013,5,1
-0.0001110765,9.231547e-05,5,1
-0.0002274394,7.270556e-05,5,1
-0.000320789,5.244739e-05,5,1
-0.0003859393,3.235129e-05,5,1
-0.0004284004,1.047248e-05,5,1
-0.0004507654,-1.221667e-05,5,1
-0.0004578962,-3.506788e-05,5,1
-0.000459679,-5.743289e-05,5,1
-0.0004651892,-8.012204e-05,5,1
-0.0004765338,-0.0001036215,5,1
-0.000482044,-0.0001235555,5,1
-0.0004791268,-0.0001379794,5,1
-0.0004689167,-0.0001447861,5,1
-0.0004546549,-0.0001496481,5,1
-0.0004352071,-0.0001553203,5,1
-0.0004065215,-0.0001637477,5,1
-0.0003656811,-0.0001754164,5,1
-0.0003146305,-0.000189192,5,1
-0.0002614731,-0.0002002124,5,1
-0.0002128535,-0.0002039399,5,1
-0.000174444,-0.0001982676,5,1
-0.0001442999,-0.0001853024,5,1
-0.0001086455,-0.0001684476,5,1
-5.111234e-05,-0.0001501342,5,1
3.073064e-05,-0.0001339277,5,1
0.0001211631,-0.000119666,5,1
0.0001965235,-0.0001076731,5,1
0.0002381743,-9.859748e-05,5,1
0.0002354192,-8.790117e-05,5,1
0.0001872858,-7.639453e-05,5,1
0.0001065772,-6.764301e-05,5,1
1.322759e-05,-6.521203e-05,5,1
-7.882551e-05,-6.877746e-05,5,1
-0.0001601823,-7.65566e-05,5,1
-0.0002250084,-8.044617e-05,5,1
-0.0002716832,-7.639453e-05,5,1
-0.0003029619,-6.715681e-05,5,1
-0.0003237062,-6.197072e-05,5,1
-0.0003365093,-6.44017e-05,5,1
-0.0003378059,-7.169464e-05,5,1
-0.0003118754,-8.158062e-05,5,1
-0.0002434839,-8.887356e-05,5,1
-0.0001349001,-9.049421e-05,5,1
-8.975362e-06,-9.098041e-05,5,1
0.0001043083,-9.503204e-05,5,1
0.0001816135,-0.0001031353,5,1
0.0002085163,-0.0001114006,5,1
0.0001884202,-0.0001120489,5,1
0.0001410971,-0.0001002181,5,1
9.377406e-05,-7.428769e-05,5,1
6.362991e-05,-4.074016e-05,5,1
5.682316e-05,-7.678839e-06,5,1
7.286763e-05,1.889987e-05,5,1
0.0001009049,3.802358e-05,5,1
0.0001252147,4.953022e-05,5,1
0.0001334801,5.682316e-05,5,1
0.0001201907,6.46023e-05,5,1
8.453633e-05,7.52986e-05,5,1
2.586868e-05,9.004655e-05,5,1
-5.840528e-05,0.0001081979,5,1
-0.0001645581,0.0001287802,5,1
-0.0002728177,0.0001445005,5,1
-0.0003583881,0.0001534141,5,1
-0.0003979321,0.0001589243,5,1
-0.0003818876,0.0001608691,5,1
-0.0003113892,0.0001626518,5,1
-0.0001969711,0.0001658931,5,1
-4.997789e-05,0.0001710792,5,1
0.0001216493,0.0001762653,5,1
0.0003059176,0.0001795066,5,1
0.0004905101,0.0001788584,5,1
0.0006648925,0.0001743205,5,1
0.0008165857,0.0001652449,5,1
0.0009391072,0.0001521176,5,1
0.001041857,0.0001404489,5,1
0.00113002,0.0001316974,5,1
0.001191443,0.0001265113,5,1
0.001204733,0.0001266733,5,1
0.00116373,0.0001363972,5,1
0.001079294,0.0001577899,5,1
0.0009758961,0.0001914995,5,1
0.0008804395,0.0002279642,5,1
0.00080751,0.0002553532,5,1
0.0007447907,0.000267346,5,1
0.0006629477,0.0002595669,5,1
0.0005394538,0.0002313675,5,1
0.0003783608,0.00018291,5,1
0.0002083542,0.0001203528,5,1
6.314371e-05,5.212327e-05,5,1
-2.761287e-05,-1.075808e-05,5,1
-6.002594e-05,-5.613637e-05,5,1
-6.0188e-05,-7.671866e-05,5,1
-5.824322e-05,-8.07703e-05,5,1
-6.294311e-05,-8.255302e-05,5,1
-5.69467e-05,-9.470791e-05,5,1
-1.934754e-05,-0.0001219349,5,1
5.974033e-05,-0.0001627754,5,1
0.0001662173,-0.0002071812,5,1
0.0002666978,-0.000246401,5,1
0.000329255,-0.0002744383,5,1
0.0003336308,-0.0002942103,5,1
0.0002785285,-0.0003079858,5,1
0.0001812893,-0.0003211132,5,1
7.092284e-05,-0.0003391024,5,1
-3.150244e-05,-0.0003638984,5,1
-0.0001151281,-0.0003896668,5,1
-0.0001851404,-0.0004097628,5,1
-0.0002541802,-0.0004196489,5,1
-0.0003206269,-0.000415111,5,1
-0.0003755671,-0.0003938804,5,1
-0.0004120317,-0.0003587123,5,1
-0.0004241867,-0.0003131719,5,1
-0.0004006872,-0.0002600145,5,1
-0.0003360231,-0.0001982676,5,1
-0.0002446183,-0.0001282554,5,1
-0.0001587237,-6.035007e-05,5,1
-0.0001183694,-7.516774e-06,5,1
-0.0001392759,2.359977e-05,5,1
-0.0002019951,3.624086e-05,5,1
-0.0002666592,4.175109e-05,5,1
-0.0003016653,5.115087e-05,5,1
-0.0002982619,6.865393e-05,5,1
-0.0002695764,9.280167e-05,5,1
-0.000233922,0.0001175977,5,1
-0.0002167431,0.0001396385,5,1
-0.0002342462,0.0001574657,5,1
-0.0002898345,0.000173024,5,1
-0.0003796187,0.0001861513,5,1
-0.0004898231,0.0001940925,5,1
-0.0006000275,0.000192796,5,1
-0.0006901358,0.0001806411,5,1
-0.0007518827,0.0001589243,5,1
-0.0007842957,0.0001346145,5,1
-0.0007878611,0.0001145184,5,1
-0.0007638755,9.896015e-05,5,1
-0.0007181731,8.729144e-05,5,1
-0.0006548056,8.113296e-05,5,1
-0.00058139,8.032264e-05,5,1
-0.0005027883,7.999851e-05,5,1
-0.000422566,7.805372e-05,5,1
-0.0003457471,7.367795e-05,5,1
-0.0002778417,6.914012e-05,5,1
-0.0002191741,6.606088e-05,5,1
-0.0001660166,6.995045e-05,5,1
-0.0001136696,8.04847e-05,5,1
-6.699475e-05,9.733949e-05,5,1
-3.749886e-05,0.0001222976,5,1
-3.344723e-05,0.0001571416,5,1
-4.511593e-05,0.0002007372,5,1
-5.727083e-05,0.0002491947,5,1
-6.359137e-05,0.0002932765,5,1
-6.537409e-05,0.0003240689,5,1
-6.521203e-05,0.0003414099,5,1
-6.116039e-05,0.0003527545,5,1
-4.171256e-05,0.0003610198,5,1
-3.303076e-06,0.0003636129,5,1
5.082674e-05,0.0003574544,5,1
0.0001064152,0.0003435168,5,1
0.0001503349,0.0003214759,5,1
0.0001851789,0.0002890628,5,1
0.0002248849,0.0002514636,5,1
0.0002838767,0.0002159713,5,1
0.0003642611,0.000185341,5,1
0.000455666,0.0001545486,5,1
0.0005389676,0.0001219734,5,1
0.0006063868,9.020862e-05,5,1
0.0006566271,5.99024e-05,5,1
0.0006827196,2.635488e-05,5,1
0.0006708889,-1.189254e-05,5,1
0.000614166,-5.402952e-05,5,1
0.0005157923,-9.438378e-05,5,1
0.0003922984,-0.0001298761,5,1
0.0002658874,-0.0001608306,5,1
