EMG1,EMG2,class,user
-4.819517e-05,0.0005230852,5,1
-6.051213e-05,0.0004931031,5,1
-0.0001021629,0.0004446456,5,1
-0.0001635857,0.0003880847,5,1
-0.0002303566,0.0003287688,5,1
-0.0002856209,0.0002730183,5,1
-0.0003170615,0.0002245608,5,1
-0.0003068514,0.0001850168,5,1
-0.0002352185,0.0001560072,5,1
-0.0001003802,0.0001389903,5,1
6.78436e-05,0.0001294284,5,1
0.0002159713,0.0001235941,5,1
0.0003002453,0.000121001,5,1
0.0003039728,0.0001198666,5,1
0.0002342847,0.0001166253,5,1
0.0001180839,0.0001073875,5,1
-3.14101e-06,8.858796e-05,5,1
-9.438378e-05,5.957827e-05,5,1
-0.0001415448,2.716521e-05,5,1
-0.0001551583,-2.238346e-07,5,1
-0.0001588858,-1.724069e-05,5,1
-0.0001737958,-2.485776e-05,5,1
-0.0002039399,-3.004385e-05,5,1
-0.0002433218,-3.749886e-05,5,1
-0.00027849,-4.641245e-05,5,1
-0.0003000446,-5.451572e-05,5,1
-0.0003063652,-5.872941e-05,5,1
-0.000305879,-5.856735e-05,5,1
-0.0003164132,-5.629844e-05,5,1
-0.0003425058,-5.710876e-05,5,1
-0.0003732982,-6.326724e-05,5,1
-0.0003937184,-7.347736e-05,5,1
-0.0004011734,-8.255302e-05,5,1
-0.0004061974,-8.368748e-05,5,1
-0.0004147869,-7.55842e-05,5,1
-0.0004162455,-6.472583e-05,5,1
-0.0004006872,-5.613637e-05,5,1
-0.0003676259,-5.338126e-05,5,1
-0.0003246786,-6.164659e-05,5,1
-0.0002718453,-7.931171e-05,5,1
-0.0002026434,-0.0001000561,5,1
-0.0001120489,-0.0001182074,5,1
-1.140634e-05,-0.0001316588,5,1
7.076078e-05,-0.0001373311,5,1
0.0001075496,-0.0001340898,5,1
8.534666e-05,-0.0001229073,5,1
9.338019e-06,-0.0001099421,5,1
-9.616651e-05,-0.0001028112,5,1
-0.0001940539,-0.0001018388,5,1
-0.0002580697,-0.0001008664,5,1
-0.0002802727,-9.616651e-05,5,1
-0.0002729798,-8.676672e-05,5,1
-0.0002558008,-7.526008e-05,5,1
-0.0002429977,-6.521203e-05,5,1
-0.0002282497,-6.0188e-05,5,1
-0.0001937298,-5.710876e-05,5,1
-0.0001300382,-4.770897e-05,5,1
-4.511593e-05,-2.826114e-05,5,1
3.834771e-05,1.002961e-07,5,1
0.0001091703,2.862379e-05,5,1
0.0001864754,4.969229e-05,5,1
0.0003021901,5.633696e-05,5,1
0.0004794896,5.017848e-05,5,1
0.0007186982,3.818565e-05,5,1
0.0009896717,2.76514e-05,5,1
0.001254811,2.311357e-05,5,1
0.001483972,2.230325e-05,5,1
0.001665485,1.889987e-05,5,1
0.001801621,9.986281e-06,5,1
0.001877954,-1.520357e-06,5,1
0.001863368,-7.516774e-06,5,1
0.00173258,-3.951337e-06,5,1
0.001500827,7.717366e-06,5,1
0.001223046,2.34377e-05,5,1
0.0009747617,4.126489e-05,5,1
0.0008008654,5.860588e-05,5,1
0.0006989262,7.335383e-05,5,1
0.0006295622,8.275361e-05,5,1
0.0005535535,8.356394e-05,5,1
0.0004444835,7.708133e-05,5,1
0.0003052694,6.930219e-05,5,1
0.0001602208,6.78436e-05,5,1
3.624086e-05,7.546067e-05,5,1
-5.970181e-05,8.858796e-05,5,1
-0.0001410586,9.993253e-05,5,1
-0.000224036,0.0001096565,5,1
-0.0003123616,0.0001201907,5,1
-0.0004070078,0.0001342904,5,1
-0.0005014918,0.0001487142,5,1
-0.0005843072,0.0001504969,5,1
-0.0006467023,0.0001316974,5,1
-0.0006948357,9.361199e-05,5,1
-0.0007418346,4.790957e-05,5,1
-0.0007992057,6.258778e-06,5,1
-0.0008651663,-2.42095e-05,5,1
-0.0009244822,-4.203669e-05,5,1
-0.0009552746,-5.127441e-05,5,1
-0.0009371233,-5.759496e-05,5,1
-0.0008666249,-6.602235e-05,5,1
-0.0007596618,-7.639453e-05,5,1
-0.0006450817,-8.255302e-05,5,1
-0.000549301,-7.963584e-05,5,1
-0.0004826922,-6.796714e-05,5,1
-0.0004450931,-5.22468e-05,5,1
-0.0004279142,-3.911951e-05,5,1
-0.0004215936,-3.26369e-05,5,1
-0.0004120317,-2.89094e-05,5,1
-0.0003912874,-2.550602e-05,5,1
-0.0003713534,-2.42095e-05,5,1
-0.000372974,-2.696461e-05,5,1
-0.0004073319,-3.506788e-05,5,1
-0.0004681064,-4.398147e-05,5,1
-0.0005309877,-4.819517e-05,5,1
-0.0005637249,-4.641245e-05,5,1
-0.0005554595,-4.365734e-05,5,1
-0.0005146191,-4.300908e-05,5,1
-0.0004574101,-4.462973e-05,5,1
-0.0004018217,-4.80331e-05,5,1
-0.0003569296,-5.338126e-05,5,1
-0.0003160891,-6.0188e-05,5,1
-0.0002707109,-6.861539e-05,5,1
-0.0002185258,-7.785312e-05,5,1
-0.0001673132,-8.498399e-05,5,1
-0.0001303623,-8.984595e-05,5,1
-0.0001178833,-9.584238e-05,5,1
-0.0001292278,-0.0001036215,5,1
-0.0001538618,-0.0001104282,5,1
-0.000174444,-0.000114804,5,1
-0.0001827094,-0.0001157764,5,1
-0.0001771992,-0.0001138316,5,1
-0.000159534,-0.000112373,5,1
-0.0001340898,-0.0001156143,5,1
-9.778715e-05,-0.0001250141,5,1
-4.770897e-05,-0.0001342519,5,1
1.614476e-05,-0.000134738,5,1
9.507057e-05,-0.0001203142,5,1
0.0001858272,-9.341139e-05,5,1
0.0002905214,-6.164659e-05,5,1
0.0004059119,-3.247483e-05,5,1
0.0005148199,-9.299493e-06,5,1
0.0005864528,1.144487e-05,5,1
0.0005973112,3.235129e-05,5,1
0.0005407503,5.455425e-05,5,1
0.0004373526,7.497447e-05,5,1
0.0003218,8.777764e-05,5,1
0.0002203471,9.053275e-05,5,1
0.0001378558,8.502253e-05,5,1
6.41161e-05,7.756752e-05,5,1
-5.409925e-06,7.157111e-05,5,1
-6.81292e-05,6.865393e-05,5,1
-0.000112373,6.541262e-05,5,1
-0.000127121,6.119892e-05,5,1
-9.973194e-05,5.552663e-05,5,1
-2.194059e-05,5.082674e-05,5,1
9.409818e-05,5.244739e-05,5,1
0.0002106232,6.330578e-05,5,1
0.0002801492,7.52986e-05,5,1
0.0002709115,8.145709e-05,5,1
0.0001809652,7.837785e-05,5,1
3.93201e-05,6.589881e-05,5,1
-0.0001118868,4.72613e-05,5,1
-0.0002344082,2.376183e-05,5,1
-0.0002958309,1.720949e-06,5,1
-0.0002768693,-1.286493e-05,5,1
-0.0001859507,-1.707863e-05,5,1
-5.775702e-05,-1.010982e-05,5,1
6.508849e-05,1.883015e-06,5,1
0.0001492004,1.355172e-05,5,1
0.0001842065,2.34377e-05,5,1
0.0001822617,3.364782e-05,5,1
0.0001738343,4.888196e-05,5,1
0.000187772,7.335383e-05,5,1
0.0002436845,0.0001103047,5,1
0.0003467581,0.0001603829,5,1
0.0004956961,0.0002180782,5,1
0.0006819093,0.0002757735,5,1
0.0008788189,0.0003245551,5,1
0.001041857,0.0003569682,5,1
0.001116569,0.0003686369,5,1
0.001074594,0.0003556717,5,1
0.0009355418,0.000319369,5,1
0.0007538663,0.0002688046,5,1
0.0005867769,0.0002154851,5,1
0.0004652279,0.0001652449,5,1
0.0003885709,0.0001203528,5,1
0.0003347652,7.967438e-05,5,1
0.0002791768,4.499239e-05,5,1
0.0002124059,1.484824e-05,5,1
0.0001415833,-1.140634e-05,5,1
8.323981e-05,-3.652646e-05,5,1
4.758544e-05,-6.197072e-05,5,1
2.603075e-05,-8.741498e-05,5,1
-1.092015e-05,-0.0001104282,5,1
-8.741498e-05,-0.0001327933,5,1
-0.000206533,-0.0001543479,5,1
-0.0003465574,-0.000176875,5,1
-0.0004766958,-0.0002024813,5,1
-0.0005648594,-0.0002280877,5,1
-0.0005977586,-0.0002467252,5,1
-0.0005812279,-0.0002489941,5,1
-0.0005374703,-0.0002344082,5,1
-0.0004987367,-0.0002068571,5,1
-0.0004893369,-0.0001746061,5,1
-0.0005164018,-0.000149486,5,1
-0.0005643732,-0.000142031,5,1
-0.0006016482,-0.0001515928,5,1
-0.0005950035,-0.0001697442,5,1
-0.0005230465,-0.0001835197,5,1
-0.0003770257,-0.0001862748,5,1
-0.0001637477,-0.0001754164,5,1
9.426025e-05,-0.0001580754,5,1
0.0003694472,-0.0001361966,5,1
0.0006357207,-0.0001133454,5,1
0.000864557,-9.049421e-05,5,1
0.001027271,-7.120844e-05,5,1
0.001094204,-5.548811e-05,5,1
0.00104445,-4.754691e-05,5,1
0.0008875704,-4.770897e-05,5,1
0.0006674855,-5.095028e-05,5,1
0.0004540453,-4.916756e-05,5,1
0.0003209897,-3.68506e-05,5,1
0.0003107795,-1.075808e-05,5,1
0.0004177427,2.278944e-05,5,1
0.0005953664,5.471631e-05,5,1
0.0007958413,8.016057e-05,5,1
0.0009909682,9.782569e-05,5,1
0.001147361,0.0001088461,5,1
0.001215753,0.0001163011,5,1
0.00115822,0.0001239182,5,1
0.0009686031,0.0001365593,5,1
0.0006796404,0.0001535762,5,1
0.00035162,0.000170431,5,1
4.677511e-05,0.0001840444,5,1
-0.0001955125,0.0001885823,5,1
-0.0003664914,0.0001832341,5,1
-0.000474589,0.0001731861,5,1
-0.0005248293,0.000165569,5,1
-0.0005225603,0.0001702689,5,1
-0.000484475,0.0001884202,5,1
-0.0004441207,0.0002140265,5,1
-0.0004353692,0.0002357433,5,1
-0.00047702,0.0002488706,5,1
-0.0005572423,0.0002475741,5,1
-0.000645892,0.0002263435,5,1
-0.0007167145,0.0001822617,5,1
-0.0007556102,0.0001222976,5,1
-0.0007569068,5.763349e-05,5,1
-0.0007238454,2.693341e-06,5,1
-0.0006661501,-3.312309e-05,5,1
-0.0006008379,-5.078821e-05,5,1
-0.0005436288,-5.970181e-05,5,1
-0.0004980884,-7.007399e-05,5,1
-0.0004681064,-8.563225e-05,5,1
-0.0004600031,-0.0001036215,5,1
-0.0004817198,-0.0001170729,5,1
-0.0005403875,-0.0001233935,5,1
-0.0006330888,-0.000122097,5,1
-0.0007466965,-0.0001180453,5,1
-0.0008560906,-0.0001169109,5,1
-0.0009397164,-0.0001193418,5,1
-0.0009769914,-0.0001164247,5,1
-0.0009505748,-9.649064e-05,5,1
-0.0008463667,-5.257093e-05,5,1
-0.000675874,1.322759e-05,5,1
-0.0004794509,8.972242e-05,5,1
-0.000300855,0.0001628139,5,1
-0.0001796301,0.000217754,5,1
-0.0001339277,0.0002412535,5,1
-0.0001600202,0.0002248849,5,1
-0.0002295462,0.0001723757,5,1
-0.0003039342,9.814982e-05,5,1
-0.0003609812,2.34377e-05,5,1
-0.0004034423,-3.928157e-05,5,1
-0.0004446069,-8.709085e-05,5,1
-0.0004929024,-0.000122097,5,1
-0.0005407116,-0.0001509446,5,1
-0.0005679386,-0.0001770371,5,1
-0.0005637249,-0.000199078,5,1
-0.0005389289,-0.0002128535,5,1
-0.0005233706,-0.0002167431,5,1
-0.000541684,-0.0002133397,5,1
-0.0005963,-0.000208964,5,1
-0.0006640433,-0.0002058847,5,1
-0.0007099077,-0.0001998883,5,1
-0.0007065044,-0.0001914609,5,1
-0.0006429748,-0.0001806025,5,1
-0.0005251534,-0.0001663408,5,1
-0.0003755671,-0.0001512687,5,1
-0.0002225774,-0.000137007,5,1
-8.579432e-05,-0.0001204763,5,1
3.202716e-05,-9.762509e-05,5,1
0.0001440143,-6.974985e-05,5,1
0.0002684805,-4.317115e-05,5,1
0.0004140152,-2.356124e-05,5,1
0.0005632775,-1.318906e-05,5,1
0.0006793162,-9.623623e-06,5,1
0.0007308531,-8.489166e-06,5,1
0.0007097846,-5.247859e-06,5,1
0.0006400964,1.396819e-06,5,1
0.0005530673,8.689758e-06,5,1
0.0004806241,1.517237e-05,5,1
0.00044578,1.9224e-05,5,1
0.0004517764,2.667901e-05,5,1
0.0004861343,4.013043e-05,5,1
0.0005276231,6.022653e-05,5,1
0.000564736,8.145709e-05,5,1
0.0005942319,9.879808e-05,5,1
0.0006225934,0.0001098185,5,1
0.0006546823,0.000118408,5,1
0.000690823,0.0001286181,5,1
0.0007221015,0.0001391524,5,1
0.0007357151,0.0001440143,5,1
0.0007169155,0.0001406109,5,1
0.0006571133,0.0001244044,5,1
0.0005509604,9.847395e-05,5,1
0.0004004017,6.995045e-05,5,1
0.0002140265,4.72613e-05,5,1
1.322759e-05,3.769945e-05,5,1
-0.0001723372,4.807163e-05,5,1
-0.0003110651,7.967438e-05,5,1
-0.0003823738,0.0001245665,5,1
-0.0003789705,0.0001735102,5,1
-0.0003081479,0.0002167816,5,1
-0.0001788198,0.0002454672,5,1
9.338019e-06,0.0002568118,5,1
0.0002503292,0.0002556773,5,1
0.0005258403,0.0002469258,5,1
0.0008143168,0.0002359054,5,1
0.001095825,0.0002227781,5,1
0.001363719,0.0002057612,5,1
0.001613786,0.0001861513,5,1
0.00183452,0.0001692965,5,1
0.002009227,0.000155683,5,1
0.002122511,0.000145797,5,1
0.002156383,0.00013818,5,1
0.002098687,0.0001266733,5,1
0.001932894,0.000105929,5,1
0.00165722,7.610894e-05,5,1
0.001294517,3.721326e-05,5,1
0.0008912979,-6.868513e-06,5,1
0.0005029891,-5.338126e-05,5,1
0.0001722137,-0.0001002181,5,1
-8.44978e-05,-0.0001374932,5,1
-0.0002715212,-0.0001579134,5,1
-0.0004031182,-0.0001596961,5,1
-0.0004995471,-0.0001498101,5,1
-0.0005794452,-0.0001384655,5,1
-0.0006593434,-0.0001352242,5,1
-0.0007486413,-0.0001400862,5,1
-0.0008416669,-0.000151917,5,1
-0.0009196203,-0.0001639098,5,1
-0.0009688881,-0.0001684476,5,1
-0.000986067,-0.0001614788,5,1
-0.0009771534,-0.0001454344,5,1
-0.0009520333,-0.0001255003,5,1
-0.0009175134,-0.0001054042,5,1
-0.0008747282,-9.098041e-05,5,1
-0.0008303223,-8.271508e-05,5,1
-0.0007975851,-7.461182e-05,5,1
-0.0007831613,-6.456377e-05,5,1
-0.0007864026,-5.905355e-05,5,1
-0.000809902,-6.39155e-05,5,1
-0.0008572251,-7.882551e-05,5,1
-0.0009272373,-9.649064e-05,5,1
-0.001006163,-0.0001125351,5,1
-0.001076824,-0.0001229073,5,1
-0.00111653,-0.0001276072,5,1
-0.001103888,-0.0001259865,5,1
-0.001021397,-0.0001169109,5,1
-0.0008752144,-9.924574e-05,5,1
-0.0007000218,-7.23429e-05,5,1
-0.0005369841,-3.782299e-05,5,1
-0.0004152731,-3.303076e-06,5,1
-0.0003413713,2.100672e-05,5,1
-0.0003049066,2.797553e-05,5,1
-0.0002977757,2.197911e-05,5,1
-0.0003112272,7.069105e-06,5,1
-0.0003384541,-6.220252e-06,5,1
-0.0003713534,-1.286493e-05,5,1
-0.0004045768,-8.975362e-06,5,1
-0.0004284004,7.393236e-06,5,1
-0.000442338,3.170304e-05,5,1
-0.0004418518,5.633696e-05,5,1
-0.0004112214,7.756752e-05,5,1
-0.0003392644,9.782569e-05,5,1
-0.0002392702,0.0001229458,5,1
-0.0001326312,0.0001543865,5,1
-3.393342e-05,0.000187772,5,1
5.795762e-05,0.0002135403,5,1
0.0001511452,0.0002245608,5,1
0.0002436845,0.000220023,5,1
0.0003324963,0.0002013854,5,1
0.0004179048,0.0001722137,5,1
0.000495372,0.0001422316,5,1
0.0005571189,0.0001201907,5,1
0.0005922872,0.0001090082,5,1
0.0005867769,0.0001093323,5,1
0.0005363746,0.0001211631,5,1
0.0004639314,0.0001368834,5,1
0.0004133669,0.0001451488,5,1
0.0004211461,0.0001375317,5,1
0.000487917,0.0001174356,5,1
0.0005859666,9.134307e-05,5,1
0.0006700786,6.768154e-05,5,1
0.0006963331,5.666109e-05,5,1
0.0006569512,6.200925e-05,5,1
0.0005953664,8.307774e-05,5,1
0.0005914768,0.0001143563,5,1
0.0007062191,0.000145635,5,1
0.0009370004,0.0001633001,5,1
0.001223856,0.0001597346,5,1
0.00147911,0.0001368834,5,1
0.001629021,0.0001023635,5,1
0.001639879,6.800567e-05,5,1
0.001516871,4.969229e-05,5,1
0.001294031,5.601284e-05,5,1
0.001017871,8.583286e-05,5,1
0.0007266394,0.0001235941,5,1
0.0004430249,0.0001453108,5,1
0.0001822617,0.0001347766,5,1
-4.511593e-05,9.26396e-05,5,1
-0.0002301945,3.040651e-05,5,1
-0.0003682741,-3.652646e-05,5,1
-0.0004606514,-9.66527e-05,5,1
-0.0005107295,-0.0001374932,5,1
-0.0005285567,-0.0001577513,5,1
-0.0005316359,-0.0001658546,5,1
-0.0005358497,-0.0001702304,5,1
-0.0005518941,-0.0001775233,5,1
-0.0005752315,-0.0001883817,5,1
-0.0006018102,-0.0002036158,5,1
-0.0006306578,-0.0002224154,5,1
-0.0006617744,-0.0002428356,5,1
-0.0006893255,-0.0002580697,5,1
-0.0007034251,-0.0002629317,5,1
-0.0006888393,-0.0002558008,5,1
-0.0006369784,-0.0002399184,5,1
-0.0005433047,-0.0002230636,5,1
-0.0004162455,-0.0002113949,5,1
-0.0002729798,-0.0002060468,5,1
-0.0001358725,-0.0002050744,5,1
-3.279896e-05,-0.0002088019,5,1
8.689758e-06,-0.0002175534,5,1
-2.161646e-05,-0.0002324634,5,1
-0.0001104282,-0.000246401,5,1
-0.0002267911,-0.0002577456,5,1
-0.00033813,-0.0002663351,5,1
-0.0004141386,-0.0002713591,5,1
-0.0004303451,-0.0002713591,5,1
-0.0003694086,-0.0002656868,5,1
-0.0002310048,-0.000256287,5,1
-4.106429e-05,-0.0002442942,5,1
0.000140773,-0.0002316531,5,1
0.0002553532,-0.0002173914,5,1
0.0002749631,-0.0001938919,5,1
0.0002107852,-0.0001592099,5,1
9.409818e-05,-0.000119666,5,1
-3.247483e-05,-8.579432e-05,5,1
-0.0001392759,-6.180866e-05,5,1
-0.0002186879,-4.706071e-05,5,1
-0.0002828657,-3.733679e-05,5,1
-0.0003439643,-2.485776e-05,5,1
-0.0004003631,-5.734056e-06,5,1
-0.0004416897,2.586868e-05,5,1
-0.0004624341,6.78436e-05,5,1
-0.0004664857,0.0001140322,5,1
-0.0004606514,0.0001587623,5,1
-0.0004583824,0.0001947408,5,1
-0.0004687546,0.0002182402,5,1
-0.0004967919,0.0002287745,5,1
-0.0005420081,0.0002297469,5,1
-0.000598893,0.000227478,5,1
-0.0006494574,0.0002281262,5,1
-0.0006669604,0.000234933,5,1
-0.000618665,0.0002441707,5,1
-0.0004906334,0.000252436,5,1
-0.0002992343,0.0002587566,5,1
-8.40116e-05,0.0002684805,5,1
0.0001154908,0.0002814457,5,1
0.0002785285,0.0002936006,5,1
0.0004063981,0.0003012177,5,1
0.0004901859,0.0003054314,5,1
0.0005211404,0.000304459,5,1
0.0005088235,0.0002992729,5,1
0.0004773828,0.0002905214,5,1
0.0004579349,0.0002801492,5,1
0.0004809482,0.0002678322,5,1
0.0005579292,0.0002550291,5,1
0.0006819093,0.0002440086,5,1
0.0008264717,0.0002312055,5,1
0.0009613102,0.0002112714,5,1
0.001061467,0.0001820997,5,1
0.001115759,0.0001495245,5,1
0.001124186,0.0001237561,5,1
0.001091287,0.0001117633,5,1
0.001019168,0.0001098185,5,1
0.0009107458,0.000113384,5,1
0.0007660213,0.0001180839,5,1
0.0005853184,0.000121001,5,1
0.0003828986,0.0001120874,5,1
0.0001882582,8.372601e-05,5,1
2.81376e-05,3.948217e-05,5,1
-8.757704e-05,-3.303076e-06,5,1
-0.0001682856,-2.858527e-05,5,1
-0.0002310048,-3.279896e-05,5,1
-0.000298424,-2.113026e-05,5,1
-0.0003854531,-5.734056e-06,5,1
-0.0004893369,3.341602e-06,5,1
-0.0005932208,1.558884e-06,5,1
-0.0006750637,-5.89612e-06,5,1
-0.0007298418,-1.529591e-05,5,1
-0.000755124,-2.566809e-05,5,1
-0.0007473448,-3.814712e-05,5,1
-0.0007053699,-4.868137e-05,5,1
-0.0006374646,-5.581224e-05,5,1
-0.0005634008,-6.294311e-05,5,1
-0.0004987367,-7.23429e-05,5,1
-0.000452224,-8.514606e-05,5,1
-0.0004215936,-9.811128e-05,5,1
-0.0003961493,-0.0001107524,5,1
-0.000350447,-0.0001211246,5,1
-0.0002632558,-0.0001292278,5,1
-0.0001332795,-0.0001361966,5,1
1.419998e-05,-0.0001433275,5,1
0.0001362352,-0.0001486757,5,1
0.0001947408,-0.0001493239,5,1
0.0001806411,-0.0001493239,5,1
0.0001248906,-0.0001468929,5,1
7.837785e-05,-0.0001383035,5,1
6.897806e-05,-0.0001258245,5,1
0.0001044704,-0.0001136696,5,1
0.0001827479,-0.0001057284,5,1
0.0002924662,-0.0001036215,5,1
0.000411098,-0.0001050801,5,1
0.0005036374,-0.0001076731,5,1
0.0005355643,-0.0001091317,5,1
0.0004861343,-0.0001101041,5,1
0.0003600474,-0.0001144799,5,1
0.0001898788,-0.0001233935,5,1
1.22552e-05,-0.0001391138,5,1
-0.000144624,-0.0001598582,5,1
-0.0002617972,-0.0001801163,5,1
-0.0003327818,-0.0001932436,5,1
-0.0003577399,-0.0002002124,5,1
-0.0003386162,-0.0002023193,5,1
-0.0002770314,-0.0001971332,5,1
-0.0001778474,-0.000184168,5,1
-4.722278e-05,-0.000161965,5,1
0.0001017153,-0.0001310105,5,1
0.0002443328,-8.984595e-05,5,1
0.0003535648,-4.187462e-05,5,1
0.0004177427,5.448452e-06,5,1
0.0004452938,4.547859e-05,5,1
0.0004559901,7.643307e-05,5,1
0.0004632831,0.0001056048,5,1
0.0004650658,0.000138342,5,1
0.00044578,0.0001788584,5,1
0.0003900295,0.0002258573,5,1
0.0002957075,0.000274801,5,1
0.0001764274,0.0003136967,5,1
6.087479e-05,0.0003323342,5,1
-2.275091e-05,0.0003273102,5,1
-5.69467e-05,0.0003025142,5,1
-3.814712e-05,0.0002663737,5,1
2.133085e-05,0.000227478,5,1
9.944634e-05,0.0001902029,5,1
0.0001692965,0.000153252,5,1
0.000210299,0.0001177597,5,1
0.0002090025,8.631905e-05,5,1
0.0001639484,6.184718e-05,5,1
9.409818e-05,4.904402e-05,5,1
3.656499e-05,5.277153e-05,5,1
2.295151e-05,7.043665e-05,5,1
5.277153e-05,9.26396e-05,5,1
8.388807e-05,0.0001052807,5,1
7.351589e-05,0.0001022015,5,1
9.986281e-06,8.291568e-05,5,1
-8.984595e-05,5.374392e-05,5,1
-0.0001921092,1.825161e-05,5,1
-0.000258718,-1.983374e-05,5,1
-0.0002624455,-5.69467e-05,5,1
-0.0002002124,-9.162867e-05,5,1
-9.211487e-05,-0.0001131834,5,1
2.992031e-05,-0.0001110765,5,1
0.0001328318,-8.206682e-05,5,1
0.0001861513,-3.360929e-05,5,1
0.000173024,1.808955e-05,5,1
9.944634e-05,5.730935e-05,5,1
-8.651231e-06,7.189524e-05,5,1
-0.0001211246,6.492643e-05,5,1
-0.0002143121,4.385793e-05,5,1
-0.0002799486,1.22552e-05,5,1
-0.0003173856,-2.404744e-05,5,1
-0.0003259751,-5.59743e-05,5,1
-0.0003081479,-7.461182e-05,5,1
-0.0002713591,-7.850138e-05,5,1
-0.0002280877,-7.23429e-05,5,1
-0.0001870851,-6.164659e-05,5,1
-0.0001609926,-5.32192e-05,5,1
-0.0001650443,-5.062615e-05,5,1
-0.0002026434,-5.386745e-05,5,1
-0.0002650386,-6.0188e-05,5,1
-0.0003408851,-6.699475e-05,5,1
-0.0004181903,-7.18567e-05,5,1
-0.0004852853,-7.688073e-05,5,1
-0.0005290429,-8.530812e-05,5,1
-0.0005499493,-9.875954e-05,5,1
-0.0005580526,-0.0001146419,5,1
-0.0005603215,-0.0001298761,5,1
-0.0005531906,-0.0001404103,5,1
-0.0005311498,-0.0001451102,5,1
-0.0005014918,-0.0001473791,5,1
-0.0004867439,-0.0001468929,5,1
-0.0004971161,-0.0001434896,5,1
-0.0005206155,-0.0001378173,5,1
-0.0005222362,-0.000134738,5,1
-0.0004640547,-0.0001337657,5,1
-0.0003235441,-0.0001331174,5,1
-0.0001204763,-0.0001293899,5,1
9.490851e-05,-0.0001199901,5,1
0.0002694529,-0.0001036215,5,1
0.0003744712,-8.109443e-05,5,1
0.0004153117,-5.22468e-05,5,1
0.0004149876,-2.09682e-05,5,1
0.0003974845,1.160693e-05,5,1
0.0003827366,4.790957e-05,5,1
0.0003717161,8.84259e-05,5,1
0.0003545372,0.0001380179,5,1
0.0003247172,0.0001971717,5,1
0.0002866318,0.0002581083,5,1
0.0002616738,0.00030689,5,1
0.0002701012,0.0003360618,5,1
0.0003180725,0.0003509718,5,1
0.0003832228,0.0003582647,5,1
0.0004237391,0.0003551855,5,1
0.0004080188,0.0003337929,5,1
0.000331848,0.0002936006,5,1
0.0002171058,0.0002386605,5,1
0.0001039842,0.0001820997,5,1
3.089271e-05,0.0001368834,5,1
4.962256e-06,0.0001091703,5,1
9.986281e-06,9.733949e-05,5,1
1.306552e-05,9.523264e-05,5,1
-1.594417e-05,9.701536e-05,5,1
-8.384954e-05,9.669123e-05,5,1
-0.0001747682,9.020862e-05,5,1
-0.0002545043,7.319176e-05,5,1
-0.000286107,4.693717e-05,5,1
-0.0002558008,1.419998e-05,5,1
-0.0001763888,-2.129233e-05,5,1
-7.039812e-05,-5.467778e-05,5,1
5.876794e-05,-8.109443e-05,5,1
0.0002213195,-9.746302e-05,5,1
0.0004203358,-0.000104756,5,1
0.000634262,-0.0001036215,5,1
0.0008175581,-9.66527e-05,5,1
0.0009246834,-8.44978e-05,5,1
0.0009425106,-7.250496e-05,5,1
0.0008844911,-6.715681e-05,5,1
0.000775421,-7.380149e-05,5,1
0.0006405826,-8.968389e-05,5,1
0.0004958582,-0.0001062146,5,1
0.0003485408,-0.0001089697,5,1
0.0002038164,-9.373552e-05,5,1
6.719535e-05,-6.521203e-05,5,1
-5.629844e-05,-3.944364e-05,5,1
-0.0001653684,-2.923353e-05,5,1
-0.0002635799,-3.830919e-05,5,1
-0.0003536883,-5.953974e-05,5,1
-0.0004331002,-8.158062e-05,5,1
-0.0004904714,-9.66527e-05,5,1
-0.0005123502,-0.000104756,5,1
-0.0004935506,-0.0001084835,5,1
-0.0004392588,-0.0001135075,5,1
-0.0003651949,-0.0001204763,5,1
-0.000298424,-0.0001295519,5,1
-0.0002588801,-0.0001342519,5,1
-0.0002501286,-0.0001280934,5,1
-0.0002590421,-0.0001144799,5,1
-0.0002724935,-9.875954e-05,5,1
-0.0002851347,-8.628052e-05,5,1
-0.0002948586,-7.898758e-05,5,1
-0.0002891863,-7.282909e-05,5,1
-0.0002434839,-6.48879e-05,5,1
-0.000129714,-4.949169e-05,5,1
5.795762e-05,-2.631635e-05,5,1
0.0002872801,-3.465141e-06,5,1
0.0004992616,1.306552e-05,5,1
0.0006486859,2.181705e-05,5,1
0.0007216153,2.408596e-05,5,1
0.0007353909,2.327564e-05,5,1
0.000735553,2.311357e-05,5,1
0.0007739625,2.586868e-05,5,1
0.0008760638,3.073064e-05,5,1
0.001023219,3.867184e-05,5,1
0.001155141,4.904402e-05,5,1
0.00120765,5.666109e-05,5,1
0.001140069,6.022653e-05,5,1
0.0009452657,5.811968e-05,5,1
0.0006571133,4.82337e-05,5,1
0.0003334687,3.397195e-05,5,1
2.700314e-05,2.278944e-05,5,1
-0.0002266291,1.679302e-05,5,1
-0.0004117076,1.533444e-05,5,1
-0.0005386047,1.695509e-05,5,1
-0.0006300096,2.133085e-05,5,1
-0.0007006701,2.473423e-05,5,1
-0.0007439415,3.089271e-05,5,1
-0.0007371347,4.191315e-05,5,1
-0.000655778,6.136099e-05,5,1
-0.000509595,8.79397e-05,5,1
-0.0003378059,0.0001239182,5,1
-0.0001846542,0.0001589243,5,1
-8.206682e-05,0.0001801549,5,1
-3.847125e-05,0.0001845306,5,1
-4.43056e-05,0.0001803169,5,1
-8.174268e-05,0.0001761032,5,1
-0.00012469,0.0001733481,5,1
-0.0001571031,0.0001725378,5,1
-0.0001682856,0.0001731861,5,1
-0.0001507825,0.0001731861,5,1
-0.0001052422,0.0001702689,5,1
-4.835724e-05,0.0001641104,5,1
-7.678839e-06,0.0001508211,5,1
-4.113403e-06,0.0001310491,5,1
-4.592625e-05,0.0001091703,5,1
-0.0001274451,8.956036e-05,5,1
-0.0002323013,7.335383e-05,5,1
-0.0003442885,6.249545e-05,5,1
-0.0004507654,5.876794e-05,5,1
-0.0005457356,6.087479e-05,5,1
-0.00062612,6.768154e-05,5,1
-0.0006875428,8.129502e-05,5,1
-0.0007335693,0.0001009049,5,1
-0.0007664686,0.0001235941,5,1
-0.0007846198,0.0001501728,5,1
-0.0007786234,0.0001830721,5,1
-0.0007450759,0.0002158093,5,1
-0.0006933771,0.0002378501,5,1
-0.0006400577,0.0002420638,5,1
-0.0006003517,0.0002260194,5,1
-0.0005760419,0.0001876099,5,1
-0.0005635628,0.0001295905,5,1
-0.0005439529,5.649903e-05,5,1
-0.0004940368,-2.323711e-05,5,1
-0.0003992286,-0.0001007043,5,1
-0.0002650386,-0.0001642339,5,1
-0.0001162626,-0.0002047502,5,1
1.695509e-05,-0.0002207947,5,1
0.0001171115,-0.0002211189,5,1
0.0001871237,-0.0002194982,5,1
0.000239957,-0.0002253326,5,1
0.0002879283,-0.0002415391,5,1
0.0003337929,-0.0002652006,5,1
0.0003650715,-0.0002893484,5,1
0.0003718782,-0.0003134961,5,1
0.0003556717,-0.0003353749,5,1
0.0003237448,-0.0003512573,5,1
0.0002760976,-0.00035304,5,1
0.000205275,-0.0003298647,5,1
0.0001056048,-0.0002768693,5,1
-2.858527e-05,-0.0002021572,5,1
-0.0001987538,-0.000127121,5,1
-0.0003891806,-7.153257e-05,5,1
-0.0005685869,-3.960571e-05,5,1
-0.0006924047,-2.453363e-05,5,1
-0.0007186593,-1.367526e-05,5,1
-0.0006238511,2.369211e-06,5,1
-0.0004202971,2.862379e-05,5,1
-0.0001580754,6.314371e-05,5,1
8.74535e-05,9.604298e-05,5,1
0.0002517878,0.0001151667,5,1
0.0003240689,0.0001122495,5,1
0.0003509718,8.567078e-05,5,1
0.0004016982,4.045456e-05,5,1
0.0005167646,-1.367526e-05,5,1
0.0006927677,-6.261898e-05,5,1
0.0008843291,-9.211487e-05,5,1
0.001030674,-9.535618e-05,5,1
0.001080266,-7.509801e-05,5,1
0.001019816,-4.025397e-05,5,1
0.0008765499,-2.978945e-06,5,1
0.0007062191,3.008238e-05,5,1
0.0005605224,5.341979e-05,5,1
0.0004576108,6.476436e-05,5,1
0.0003841952,6.006447e-05,5,1
0.0003148312,3.494434e-05,5,1
0.0002331503,-6.058186e-06,5,1
0.0001414213,-4.916756e-05,5,1
5.050261e-05,-7.704279e-05,5,1
-3.393342e-05,-8.158062e-05,5,1
-0.0001118868,-6.375344e-05,5,1
-0.0001833576,-3.458168e-05,5,1
-0.0002485079,-2.168618e-06,5,1
-0.0003002067,2.489629e-05,5,1
-0.0003165753,4.207521e-05,5,1
-0.000276221,5.293359e-05,5,1
-0.0001752544,6.492643e-05,5,1
-3.814712e-05,8.42122e-05,5,1
0.0001015532,0.0001099806,5,1
0.0002154851,0.0001347766,5,1
0.000289549,0.0001498487,5,1
0.0003252034,0.0001475797,5,1
0.0003355756,0.0001279698,5,1
0.0003363859,9.555677e-05,5,1
0.0003407616,6.314371e-05,5,1
0.0003495132,4.612685e-05,5,1
0.000349027,5.034055e-05,5,1
0.0003295791,7.140904e-05,5,1
0.0002905214,9.280167e-05,5,1
0.0002292607,0.0001030118,5,1
0.0001472556,0.0001005808,5,1
5.163707e-05,8.631905e-05,5,1
-3.63644e-05,6.330578e-05,5,1
-9.098041e-05,3.818565e-05,5,1
-8.141856e-05,1.1769e-05,5,1
6.096713e-06,-1.67545e-05,5,1
0.0001586002,-4.155049e-05,5,1
0.0003336308,-5.240886e-05,5,1
0.0004694416,-4.300908e-05,5,1
0.000520168,-1.092015e-05,5,1
0.0004791655,3.60788e-05,5,1
0.0003825745,8.210535e-05,5,1
0.0002830664,0.0001145184,5,1
0.0002106232,0.0001269974,5,1
0.0001658931,0.0001206769,5,1
0.0001351007,9.782569e-05,5,1
9.733949e-05,6.573675e-05,5,1
2.586868e-05,3.040651e-05,5,1
-9.568031e-05,-7.100305e-07,5,1
-0.000263742,-2.404744e-05,5,1
-0.0004446069,-4.187462e-05,5,1
-0.0005891691,-5.565017e-05,5,1
-0.0006679329,-6.423963e-05,5,1
-0.000685436,-6.618442e-05,5,1
-0.0006671225,-6.051213e-05,5,1
-0.0006340612,-5.062615e-05,5,1
-0.0005859278,-4.155049e-05,5,1
-0.000511864,-3.63644e-05,5,1
-0.0004183523,-3.701266e-05,5,1
-0.0003233821,-4.576419e-05,5,1
-0.0002331117,-6.326724e-05,5,1
-0.0001300382,-8.514606e-05,5,1
4.244267e-07,-0.0001052422,5,1
0.0001470936,-0.0001191798,5,1
0.00027707,-0.0001285796,5,1
0.0003488649,-0.0001336036,5,1
0.0003355756,-0.0001326312,5,1
0.0002386605,-0.0001267968,5,1
7.772959e-05,-0.0001191798,5,1
-0.0001167488,-0.0001092938,5,1
-0.0003123616,-9.681477e-05,5,1
-0.0004869059,-8.190475e-05,5,1
-0.0006309819,-6.926366e-05,5,1
-0.0007368106,-6.197072e-05,5,1
-0.0008017988,-5.921561e-05,5,1
-0.0008252983,-5.775702e-05,5,1
-0.0007995299,-5.2733e-05,5,1
-0.0007197938,-4.349527e-05,5,1
-0.0006014861,-3.020592e-05,5,1
-0.0004713477,-1.643037e-05,5,1
-0.0003587123,-7.516774e-06,5,1
-0.0002912931,-5.085794e-06,5,1
-0.0002822175,-5.89612e-06,5,1
-0.0003240303,-7.030578e-06,5,1
-0.0003967976,-5.409925e-06,5,1
-0.0004685925,1.396819e-06,5,1
-0.0005086227,1.533444e-05,5,1
-0.000504409,3.964424e-05,5,1
-0.0004541688,7.221937e-05,5,1
-0.0003627639,0.0001099806,5,1
-0.0002344082,0.0001511452,5,1
-5.889148e-05,0.0001919856,5,1
0.0001840444,0.0002278021,5,1
0.0005078511,0.0002584324,5,1
0.0008979426,0.000282256,5,1
0.001311534,0.0002974902,5,1
0.001689309,0.0003064038,5,1
0.001990265,0.0003132105,5,1
0.002207758,0.0003177483,5,1
0.002341624,0.0003187208,5,1
0.002392999,0.0003159656,5,1
0.002362531,0.0003075383,5,1
0.002249895,0.0002942489,5,1
0.002049095,0.0002726942,5,1
0.001778283,0.0002410915,5,1
0.001482513,0.0002025199,5,1
0.001219967,0.0001668655,5,1
0.001036995,0.0001415833,5,1
0.0009441312,0.000128456,5,1
0.0009019942,0.0001268354,5,1
0.0008455954,0.0001320215,5,1
0.0007217774,0.0001347766,5,1
0.0005128751,0.0001281319,5,1
0.0002341226,0.000113384,5,1
-7.201877e-05,9.393612e-05,5,1
-0.0003470436,7.465034e-05,5,1
-0.0005377944,5.552663e-05,5,1
-0.0006220684,3.316162e-05,5,1
-0.0006295234,7.879432e-06,5,1
-0.0006241752,-1.853722e-05,5,1
-0.0006567503,-4.398147e-05,5,1
-0.0007400519,-6.407757e-05,5,1
-0.0008466908,-7.769106e-05,5,1
-0.0009316131,-8.530812e-05,5,1
-0.0009693743,-8.676672e-05,5,1
-0.0009646744,-8.82253e-05,5,1
-0.0009397164,-9.811128e-05,5,1
-0.0009277235,-0.0001185315,5,1
-0.0009515471,-0.0001465688,5,1
-0.001004543,-0.0001812508,5,1
-0.001061265,-0.0002203085,5,1
-0.001095785,-0.0002603387,5,1
-0.001098054,-0.0002911311,5,1
-0.001073258,-0.0003091203,5,1
-0.001037604,-0.0003125237,5,1
-0.0009998425,-0.0003065273,5,1
-0.0009669433,-0.0002990722,5,1
-0.0009474955,-0.0002921034,5,1
-0.0009521954,-0.0002857829,5,1
-0.0009844464,-0.000278652,5,1
-0.001034362,-0.0002731418,5,1
-0.001079255,-0.0002669833,5,1
-0.001099837,-0.000261149,5,1
-0.001089627,-0.0002574215,5,1
-0.001063858,-0.0002549905,5,1
-0.001042628,-0.0002476975,5,1
-0.001029014,-0.0002321393,5,1
-0.001008108,-0.0002112329,5,1
-0.0009648365,-0.0001934057,5,1
-0.0008998482,-0.000186761,5,1
-0.0008168708,-0.0001896782,5,1
-0.000707963,-0.0001987538,5,1
-0.0005616181,-0.0002117191,5,1
-0.0003805911,-0.0002261429,5,1
-0.0001862748,-0.0002348944,5,1
-1.335113e-05,-0.0002310048,5,1
0.0001044704,-0.0002120432,5,1
0.0001573037,-0.0001820611,5,1
0.0001628139,-0.0001491618,5,1
0.000155521,-0.0001201522,5,1
0.0001644345,-9.405965e-05,5,1
0.0002055991,-6.699475e-05,5,1
0.0002788527,-3.749886e-05,5,1
0.0003730126,-8.975362e-06,5,1
0.0004640934,1.776542e-05,5,1
0.0005268127,4.304761e-05,5,1
0.0005490156,6.670914e-05,5,1
0.0005381573,8.875003e-05,5,1
0.0005157923,0.0001096565,5,1
0.0004979651,0.0001323456,5,1
0.0004900239,0.0001540623,5,1
0.0004900239,0.0001714034,5,1
0.0004969927,0.0001874478,5,1
0.0005063924,0.0002060853,5,1
0.0005096338,0.0002281262,5,1
0.0005000719,0.0002477361,5,1
0.0004765725,0.0002602152,5,1
0.0004438352,0.0002658874,5,1
0.0004120704,0.000267184,5,1
0.0003880847,0.0002688046,5,1
0.0003707437,0.0002749631,5,1
0.0003532407,0.0002837146,5,1
0.0003227724,0.000289387,5,1
0.0002713977,0.000284525,5,1
0.0002031682,0.0002689667,5,1
0.0001341283,0.0002483844,5,1
7.90261e-05,0.0002316917,5,1
4.02925e-05,0.0002271538,5,1
8.203562e-06,0.0002328261,5,1
-2.761287e-05,0.0002391467,5,1
-7.720486e-05,0.0002315296,5,1
-0.0001305243,0.0002046267,5,1
-0.000166989,0.0001616794,5,1
-0.0001686097,0.0001167873,5,1
-0.0001305243,8.405014e-05,5,1
-5.727083e-05,7.059871e-05,5,1
3.624086e-05,7.076078e-05,5,1
0.0001302388,7.481241e-05,5,1
0.0002034923,7.124698e-05,5,1
0.0002448189,5.601284e-05,5,1
0.0002542187,3.445814e-05,5,1
0.0002472499,2.035846e-05,5,1
0.0002430362,2.862379e-05,5,1
0.0002603772,6.281957e-05,5,1
0.00030689,0.000111115,5,1
0.0003718782,0.0001527658,5,1
0.0004294114,0.0001686482,5,1
0.000453235,0.000150659,5,1
0.0004318424,0.0001069013,5,1
0.000368799,5.115087e-05,5,1
0.000274639,-7.100305e-07,5,1
0.0001658931,-3.814712e-05,5,1
5.763349e-05,-5.370539e-05,5,1
-3.441962e-05,-5.127441e-05,5,1
-9.551824e-05,-4.495386e-05,5,1
-0.0001224211,-4.738484e-05,5,1
-0.0001157764,-6.261898e-05,5,1
-8.952183e-05,-8.530812e-05,5,1
-6.326724e-05,-0.0001065387,5,1
-4.106429e-05,-0.0001193418,5,1
-4.599598e-06,-0.000122097,5,1
6.379197e-05,-0.0001126972,5,1
0.0001545486,-9.357346e-05,5,1
0.0002363916,-6.845333e-05,5,1
0.0002765838,-4.171256e-05,5,1
0.0002684805,-1.335113e-05,5,1
0.0002265056,1.565857e-05,5,1
0.000168162,4.580272e-05,5,1
0.0001023635,7.20573e-05,5,1
4.110282e-05,8.907416e-05,5,1
-2.81688e-06,9.101894e-05,5,1
-2.826114e-05,7.546067e-05,5,1
-4.284701e-05,4.434413e-05,5,1
-5.629844e-05,3.179537e-06,5,1
-7.736692e-05,-3.895745e-05,5,1
-0.0001007043,-7.428769e-05,5,1
-0.0001110765,-9.908367e-05,5,1
-8.563225e-05,-0.0001118868,5,1
-5.734056e-06,-0.0001136696,5,1
0.0001367214,-0.0001094559,5,1
0.0003386548,-0.0001034594,5,1
0.0005702463,-9.940781e-05,5,1
0.0007832003,-9.762509e-05,5,1
0.000938459,-9.859748e-05,5,1
0.001025002,-0.0001024871,5,1
0.001062115,-0.0001076731,5,1
0.001089504,-0.0001054042,5,1
0.001131479,-8.628052e-05,5,1
0.001187554,-4.90055e-05,5,1
0.001243466,-2.168618e-06,5,1
0.001277986,4.272347e-05,5,1
0.001264859,8.680524e-05,5,1
0.001185609,0.0001320215,5,1
0.001033591,0.0001764274,5,1
0.0008146409,0.0002114335,5,1
0.0005589016,0.0002248849,5,1
0.0003145071,0.0002135403,5,1
0.0001154908,0.0001812893,5,1
-3.004385e-05,0.0001373696,5,1
-0.0001439758,9.280167e-05,5,1
-0.0002504527,5.730935e-05,5,1
-0.0003577399,3.170304e-05,5,1
-0.0004525481,1.452411e-05,5,1
-0.0005227224,3.989864e-06,5,1
-0.0005629146,2.369211e-06,5,1
-0.0005731247,9.338019e-06,5,1
-0.0005658317,2.522042e-05,5,1
-0.0005690731,4.402e-05,5,1
-0.000601162,5.893001e-05,5,1
-0.0006544815,6.751948e-05,5,1
-0.0007082871,7.270556e-05,5,1
-0.0007411864,7.384002e-05,5,1
-0.0007445897,6.946425e-05,5,1
-0.0007306521,5.763349e-05,5,1
-0.000720442,3.98063e-05,5,1
-0.0007219006,2.214118e-05,5,1
-0.000727897,1.095867e-05,5,1
-0.0007243316,4.47606e-06,5,1
-0.0007021286,-4.761664e-06,5,1
-0.0006569124,-2.275091e-05,5,1
-0.0005886829,-5.2733e-05,5,1
-0.0005099192,-9.260107e-05,5,1
-0.0004496309,-0.0001363587,5,1
-0.0004335865,-0.0001770371,5,1
-0.0004718339,-0.0002050744,5,1
-0.0005548113,-0.0002144742,5,1
-0.0006586951,-0.0002075054,5,1
-0.0007583653,-0.0001911368,5,1
-0.0008303223,-0.0001721751,5,1
-0.000864518,-0.0001546721,5,1
-0.0008672731,-0.0001451102,5,1
-0.0008533355,-0.000144462,5,1
-0.0008350222,-0.0001438137,5,1
-0.0008176812,-0.0001277692,5,1
-0.0007888335,-8.952183e-05,5,1
-0.0007223868,-3.571614e-05,5,1
-0.0005997034,1.841368e-05,5,1
-0.0004331002,5.714729e-05,5,1
-0.0002601766,7.173317e-05,5,1
-0.0001136696,6.119892e-05,5,1
2.207145e-06,3.008238e-05,5,1
9.993253e-05,-1.610624e-05,5,1
0.0001942546,-6.748094e-05,5,1
0.0002898731,-0.0001164247,5,1
0.0003702575,-0.0001558065,5,1
0.0004055878,-0.0001835197,5,1
0.0003781987,-0.000199078,5,1
0.0003051073,-0.0002042641,5,1
0.0002279642,-0.0001995642,5,1
0.0001914995,-0.0001851404,5,1
0.0002125679,-0.0001632615,5,1
0.0002759355,-0.0001366828,5,1
0.0003397893,-0.0001099421,5,1
0.0003660439,-8.465986e-05,5,1
0.0003444891,-5.69467e-05,5,1
0.0002916559,-2.680255e-05,5,1
0.0002363916,4.962256e-06,5,1
0.0002138645,3.786152e-05,5,1
0.0002396328,6.83298e-05,5,1
0.0002986247,8.907416e-05,5,1
0.0003582647,9.701536e-05,5,1
0.000383709,9.31258e-05,5,1
0.0003537269,8.097089e-05,5,1
0.0002649151,6.362991e-05,5,1
0.0001354248,4.72613e-05,5,1
-9.947754e-06,3.429608e-05,5,1
-0.0001442999,2.181705e-05,5,1
-0.0002519113,6.744974e-06,5,1
-0.0003288923,-1.383732e-05,5,1
-0.0003839945,-4.446767e-05,5,1
-0.0004293727,-8.352541e-05,5,1
-0.0004749131,-0.0001243659,5,1
-0.000526774,-0.0001541859,5,1
-0.0005786349,-0.0001562927,5,1
-0.0006165582,-0.000119828,5,1
-0.0006291993,-4.219875e-05,5,1
-0.0006069963,6.087479e-05,5,1
-0.0005434667,0.0001668655,5,1
-0.0004387725,0.0002537325,5,1
-0.0003039342,0.0003075383,5,1
-0.0001622891,0.0003277964,5,1
-3.733679e-05,0.0003253654,5,1
6.573675e-05,0.0003135347,5,1
0.0001720516,0.000304459,5,1
0.0003260137,0.0003049452,5,1
0.0005576051,0.0003135347,5,1
0.0008566159,0.0003227724,5,1
0.001166323,0.000324231,5,1
0.001415418,0.0003140208,5,1
0.001555929,0.0002931144,5,1
0.001571163,0.0002679943,5,1
0.001475544,0.0002410915,5,1
0.001313803,0.0002128921,5,1
0.001154654,0.0001827479,5,1
0.001052715,0.0001540623,5,1
0.00101155,0.0001294284,5,1
0.0009935612,0.000110953,5,1
0.0009579068,9.474644e-05,5,1
0.0008925945,7.805372e-05,5,1
0.0008055653,5.763349e-05,5,1
0.0007042743,3.348575e-05,5,1
0.0005854804,8.041497e-06,5,1
0.0004474007,-1.318906e-05,5,1
0.0002992729,-2.761287e-05,5,1
0.0001576278,-3.425755e-05,5,1
3.769945e-05,-3.555408e-05,5,1
-4.819517e-05,-3.879538e-05,5,1
-0.0001011905,-4.819517e-05,5,1
-0.0001336036,-6.197072e-05,5,1
-0.000156941,-7.914964e-05,5,1
-0.0001784957,-9.616651e-05,5,1
-0.0002044261,-0.0001079973,5,1
-0.0002475355,-0.0001110765,5,1
-0.0003188442,-0.0001099421,5,1
-0.0004215936,-0.0001117248,5,1
-0.0005520562,-0.0001199901,5,1
-0.0006938633,-0.0001311726,5,1
-0.0008186536,-0.0001391138,5,1
-0.0009034137,-0.0001368449,5,1
-0.0009474955,-0.0001258245,5,1
-0.0009619193,-0.0001178833,5,1
-0.0009596504,-0.0001235555,5,1
-0.0009496023,-0.000142031,5,1
-0.0009416611,-0.0001645581,5,1
-0.0009374474,-0.0001784957,5,1
-0.0009316131,-0.0001776853,5,1
-0.000921403,-0.0001603444,5,1
-0.0009137859,-0.0001349001,5,1
-0.0009162169,-0.0001161005,5,1
-0.0009252926,-0.0001138316,5,1
-0.0009233478,-0.0001267968,5,1
-0.0008797522,-0.0001486757,5,1
-0.0007645238,-0.0001663408,5,1
-0.0005674524,-0.0001708786,5,1
-0.0003084721,-0.0001598582,5,1
-2.339918e-05,-0.0001384655,5,1
0.0002543808,-0.0001169109,5,1
0.0004965065,-0.0001002181,5,1
0.0006804507,-9.098041e-05,5,1
0.0007929241,-8.806324e-05,5,1
0.0008361956,-9.179074e-05,5,1
0.0008276062,-0.0001032974,5,1
0.0007934103,-0.0001214487,5,1
0.0007472217,-0.0001389517,5,1
0.0006801266,-0.0001413827,5,1
0.0005757565,-0.000119828,5,1
0.0004243874,-7.493595e-05,5,1
0.0002284504,-1.821308e-05,5,1
-1.682422e-06,4.094075e-05,5,1
-0.0002509389,9.588091e-05,5,1
-0.000484637,0.0001372076,5,1
-0.0006719845,0.0001590864,5,1
-0.0008006644,0.0001647587,5,1
-0.0008787798,0.0001621656,5,1
-0.0009196203,0.0001584381,5,1
-0.0009272373,0.0001566554,5,1
-0.0009040619,0.0001598967,5,1
-0.0008583596,0.0001765894,5,1
-0.0008043919,0.0002192126,5,1
-0.000752855,0.0002877662,5,1
-0.0007009942,0.0003653956,5,1
-0.0006392473,0.0004245494,5,1
-0.0005480045,0.0004474007,5,1
-0.0003958252,0.0004339493,5,1
-0.0001666649,0.0003963501,5,1
0.0001245665,0.0003519442,5,1
0.0004441593,0.0003109416,5,1
0.0007629421,0.0002798251,5,1
0.001068435,0.0002556773,5,1
0.00135205,0.0002329882,5,1
0.001615893,0.000207706,5,1
0.001870499,0.000180479,5,1
0.002129966,0.0001540623,5,1
0.002391865,0.0001367214,5,1
0.002633992,0.0001331559,5,1
0.002828633,0.0001402868,5,1
0.002954073,0.0001469315,5,1
0.002985513,0.000145797,5,1
0.002885518,0.0001344524,5,1
0.002628319,0.0001128978,5,1
0.002226882,7.805372e-05,5,1
0.001727719,2.862379e-05,5,1
0.001202626,-2.777494e-05,5,1
0.0007224257,-7.947377e-05,5,1
0.0003331446,-0.0001138316,5,1
4.547859e-05,-0.0001279313,5,1
-0.0001697442,-0.0001232314,5,1
-0.0003637363,-0.0001102662,5,1
-0.0005742591,-0.0001002181,5,1
-0.0007975851,-9.956988e-05,5,1
-0.0009998425,-0.000112211,5,1
-0.001148132,-0.0001394379,5,1
-0.001229813,-0.0001754164,5,1
-0.001243913,-0.0002122053,5,1
-0.001204531,-0.0002428356,5,1
-0.00114165,-0.0002619593,5,1
-0.001100161,-0.000266011,5,1
-0.001120581,-0.0002559629,5,1
-0.001206476,-0.0002381357,5,1
-0.001325918,-0.0002186879,5,1
-0.001434988,-0.0002000504,5,1
-0.001500138,-0.0001861127,5,1
-0.001512293,-0.0001818991,5,1
-0.001478745,-0.0001880575,5,1
-0.00140922,-0.0001979435,5,1
-0.001314736,-0.0002052365,5,1
-0.001212958,-0.0002057227,5,1
-0.001128847,-0.0002005366,5,1
-0.00108363,-0.000186761,5,1
-0.001080065,-0.0001632615,5,1
-0.001099189,-0.0001318209,5,1
-0.001115881,-0.0001010285,5,1
-0.001108588,-8.303922e-05,5,1
-0.001063048,-8.255302e-05,5,1
-0.000968726,-9.405965e-05,5,1
-0.0008314567,-0.0001107524,5,1
-0.0006687432,-0.0001233935,5,1
-0.0005108916,-0.0001269589,5,1
-0.0003925839,-0.0001240417,5,1
-0.0003295405,-0.0001190177,5,1
-0.0003143064,-0.0001126972,5,1
-0.0003152788,-0.0001007043,5,1
-0.0003079858,-8.628052e-05,5,1
-0.0002846485,-7.18567e-05,5,1
-0.0002522354,-5.986387e-05,5,1
-0.0002182017,-5.289507e-05,5,1
-0.0001746061,-4.90055e-05,5,1
-0.0001081593,-5.111234e-05,5,1
-2.307504e-05,-5.69467e-05,5,1
6.589881e-05,-6.278104e-05,5,1
0.0001521176,-6.569822e-05,5,1
0.0002370398,-6.423963e-05,5,1
0.000321638,-5.500191e-05,5,1
0.0004046154,-3.182657e-05,5,1
0.0004796517,1.063454e-05,5,1
0.0005389676,6.330578e-05,5,1
0.0005814288,0.0001077117,5,1
0.0006076833,0.0001351007,5,1
0.0006185417,0.0001498487,5,1
0.0006097901,0.000168,5,1
0.0005824011,0.0001987924,5,1
0.0005371849,0.0002430362,5,1
0.0004717105,0.0002906835,5,1
0.000393757,0.000329255,5,1
0.0003227724,0.0003475684,5,1
0.0002777182,0.0003454615,5,1
0.0002660495,0.0003302274,5,1
0.0002848491,0.0003077003,5,1
0.0003213138,0.0002837146,5,1
0.0003581026,0.0002628082,5,1
0.0003819262,0.0002461155,5,1
0.0003922984,0.0002328261,5,1
0.0003897054,0.0002195368,5,1
0.0003765781,0.0002062474,5,1
0.0003577785,0.000192796,5,1
0.0003362238,0.0001806411,5,1
0.0003138588,0.0001756171,5,1
0.0002931144,0.0001808031,5,1
0.0002744769,0.0001931201,5,1
0.0002582704,0.0002034923,5,1
0.0002483844,0.0002005751,5,1
0.0002427121,0.0001817755,5,1
0.0002359054,0.0001501728,5,1
0.0002231022,0.0001130598,5,1
0.0001916615,7.351589e-05,5,1
0.0001329939,3.316162e-05,5,1
5.001642e-05,-9.137427e-06,5,1
-4.203669e-05,-5.581224e-05,5,1
-0.0001186936,-0.000104918,5,1
-0.0001504584,-0.0001527273,5,1
-0.0001206384,-0.000194216,5,1
-4.187462e-05,-0.0002246843,5,1
5.098881e-05,-0.0002382978,5,1
0.0001232699,-0.0002295462,5,1
0.0001551968,-0.000201671,5,1
0.0001483901,-0.0001665028,5,1
0.0001174356,-0.0001379794,5,1
7.756752e-05,-0.0001229073,5,1
4.499239e-05,-0.0001214487,5,1
4.045456e-05,-0.0001300382,5,1
8.064677e-05,-0.0001415448,5,1
0.0001624898,-0.0001522411,5,1
0.0002543808,-0.0001637477,5,1
0.0003148312,-0.0001783336,5,1
0.0003149933,-0.0001976194,5,1
0.0002477361,-0.0002180396,5,1
0.0001188942,-0.0002345703,5,1
-5.370539e-05,-0.0002441321,5,1
-0.0002347323,-0.0002452666,5,1
-0.0003836704,-0.0002335979,5,1
-0.0004788027,-0.0002123673,5,1
-0.000524181,-0.0001883817,5,1
-0.0005428185,-0.0001674752,5,1
-0.000546546,-0.0001501342,5,1
-0.0005300153,-0.0001357104,5,1
-0.0004831784,-0.0001227452,5,1
-0.0004141386,-0.0001060525,5,1
-0.0003475298,-8.174268e-05,5,1
-0.0003060411,-3.68506e-05,5,1
-0.0002980999,3.624086e-05,5,1
-0.0003125237,0.0001312112,5,1
-0.0003262992,0.0002316917,5,1
-0.0003092824,0.0003151553,5,1
-0.0002399184,0.0003631267,5,1
-0.0001125351,0.0003670162,5,1
6.800567e-05,0.0003363859,5,1
0.0003010556,0.0002887387,5,1
0.0005828873,0.0002433604,5,1
0.0008909738,0.0002128921,5,1
0.001186257,0.0002007372,5,1
0.001436973,0.0002017096,5,1
0.001634531,0.0002125679,5,1
0.001786224,0.0002237505,5,1
0.00190356,0.0002221298,5,1
0.002007444,0.0002008992,5,1
0.002113759,0.0001673517,5,1
0.002210837,0.0001334801,5,1
0.002253947,0.0001049566,5,1
0.002192037,8.161915e-05,5,1
0.001998368,6.427817e-05,5,1
0.001681044,5.228533e-05,5,1
0.001281066,4.126489e-05,5,1
0.0008653674,3.121684e-05,5,1
0.0005093097,2.489629e-05,5,1
0.0002639427,2.667901e-05,5,1
0.000125863,3.850978e-05,5,1
4.758544e-05,6.006447e-05,5,1
-2.534396e-05,8.518459e-05,5,1
-0.0001253383,0.0001081979,5,1
-0.0002606628,0.0001242423,5,1
-0.0004256453,0.0001281319,5,1
-0.0006052136,0.0001224596,5,1
-0.0007755442,0.0001119254,5,1
-0.0009137859,0.0001009049,5,1
-0.001010053,9.361199e-05,5,1
-0.001063858,8.972242e-05,5,1
-0.001080551,8.534666e-05,5,1
-0.001070827,7.740546e-05,5,1
-0.001050731,6.622294e-05,5,1
-0.001031769,4.855783e-05,5,1
-0.001017832,2.165498e-05,5,1
-0.001007946,-1.367526e-05,5,1
-0.0009967634,-4.981582e-05,5,1
-0.0009716432,-8.109443e-05,5,1
-0.0009261029,-0.0001016767,5,1
-0.0008580354,-0.0001138316,5,1
-0.0007789475,-0.0001280934,5,1
-0.0007103939,-0.0001475412,5,1
-0.0006752257,-0.0001622891,5,1
-0.0006875428,-0.0001577513,5,1
-0.0007546378,-0.0001324691,5,1
-0.0008650042,-9.535618e-05,5,1
-0.0009875257,-6.375344e-05,5,1
-0.001083468,-4.80331e-05,5,1
-0.001134519,-4.722278e-05,5,1
-0.001146998,-6.278104e-05,5,1
-0.001138408,-9.227693e-05,5,1
-0.001121878,-0.0001311726,5,1
-0.001097568,-0.0001702304,5,1
-0.001056403,-0.0002031296,5,1
-0.0009977358,-0.0002253326,5,1
-0.0009296683,-0.0002350565,5,1
-0.0008612768,-0.0002368392,5,1
-0.0008009885,-0.0002374874,5,1
-0.0007471828,-0.0002423494,5,1
-0.0006888393,-0.0002520733,5,1
-0.0006152617,-0.0002624455,5,1
-0.0005236948,-0.0002694143,5,1
-0.0004193247,-0.0002708729,5,1
-0.0003138202,-0.0002655248,5,1
-0.0002135018,-0.0002527216,5,1
-0.0001240417,-0.0002321393,5,1
-4.738484e-05,-0.0002028055,5,1
1.744129e-05,-0.0001707166,5,1
7.562274e-05,-0.0001410586,5,1
0.0001328318,-0.000114804,5,1
0.0001921477,-9.065628e-05,5,1
0.0002558394,-6.715681e-05,5,1
0.0003255275,-4.05781e-05,5,1
0.0003982949,-8.327101e-06,5,1
0.0004697657,3.364782e-05,5,1
0.0005336195,8.080883e-05,5,1
0.0005830494,0.0001266733,5,1
0.0006164349,0.0001671896,5,1
0.0006289139,0.0001986303,5,1
0.0006133557,0.0002208333,5,1
0.0005681394,0.0002344468,5,1
0.0005037994,0.0002394708,5,1
0.0004271425,0.0002354192,5,1
0.0003459477,0.0002273159,5,1
0.0002723701,0.0002171058,5,1
0.0002154851,0.0002068957,5,1
0.0001757791,0.0001955511,5,1
0.0001441764,0.0001837203,5,1
0.000108522,0.0001748067,5,1
6.071273e-05,0.0001702689,5,1
5.286387e-06,0.0001667035,5,1
-3.814712e-05,0.0001574657,5,1
-4.576419e-05,0.0001373696,5,1
-5.57199e-06,0.0001124116,5,1
8.275361e-05,9.037068e-05,5,1
0.000205275,7.789165e-05,5,1
0.000341572,7.821578e-05,5,1
0.0004700898,8.599492e-05,5,1
0.0005752703,9.393612e-05,5,1
0.0006512789,9.831188e-05,5,1
0.0006911471,9.960841e-05,5,1
0.000693416,9.896015e-05,5,1
0.0006700786,9.977047e-05,5,1
0.0006412309,0.0001030118,5,1
0.0006172452,0.0001044704,5,1
0.0006033076,0.0001013911,5,1
0.0006024973,9.458438e-05,5,1
0.0006076833,8.631905e-05,5,1
0.0005966629,7.67572e-05,5,1
0.0005430193,6.768154e-05,5,1
0.0004342734,6.006447e-05,5,1
0.0002848491,5.277153e-05,5,1
0.0001266733,4.369587e-05,5,1
-9.947754e-06,2.959619e-05,5,1
-0.0001045939,9.175954e-06,5,1
-0.0001535376,-1.545797e-05,5,1
-0.0001656925,-4.284701e-05,5,1
-0.0001572651,-6.877746e-05,5,1
-0.0001509446,-8.984595e-05,5,1
-0.0001562927,-0.0001050801,5,1
-0.0001622891,-0.0001161005,5,1
-0.0001464067,-0.0001224211,5,1
-9.681477e-05,-0.0001238797,5,1
-1.124428e-05,-0.000122259,5,1
0.0001049566,-0.0001216107,5,1
0.000237526,-0.0001204763,5,1
0.0003678266,-0.0001175591,5,1
0.000485486,-0.0001120489,5,1
0.0005819149,-0.0001029732,5,1
0.000641393,-9.568031e-05,5,1
0.0006469032,-9.081835e-05,5,1
0.000591963,-8.871149e-05,5,1
0.0004922928,-8.628052e-05,5,1
0.0003660439,-8.563225e-05,5,1
0.0002269918,-9.130454e-05,5,1
8.486046e-05,-0.000104918,5,1
-4.738484e-05,-0.0001237176,5,1
-0.0001524032,-0.0001410586,5,1
-0.000219012,-0.0001533756,5,1
-0.0002519113,-0.0001553203,5,1
-0.0002653627,-0.0001449482,5,1
-0.0002793003,-0.0001269589,5,1
-0.0003000446,-0.0001083214,5,1
-0.0003274337,-9.19528e-05,5,1
-0.0003551469,-7.639453e-05,5,1
-0.0003771877,-6.06742e-05,5,1
-0.0003969597,-4.203669e-05,5,1
-0.0004212695,-1.643037e-05,5,1
-0.0004609755,1.144487e-05,5,1
-0.0005138087,3.462021e-05,5,1
-0.0005595111,4.385793e-05,5,1
-0.0005728005,3.948217e-05,5,1
-0.0005371462,2.76514e-05,5,1
-0.000444931,1.582063e-05,5,1
-0.0003003688,4.313994e-06,5,1
-0.0001204763,-6.382317e-06,5,1
6.978839e-05,-1.545797e-05,5,1
0.0002357433,-1.950961e-05,5,1
0.000339303,-1.805102e-05,5,1
0.0003629646,-7.354709e-06,5,1
0.0003248792,1.112074e-05,5,1
0.0002592428,3.235129e-05,5,1
0.0001913374,5.244739e-05,5,1
0.0001247285,7.416415e-05,5,1
4.402e-05,9.717743e-05,5,1
-6.731888e-05,0.000121001,5,1
-0.0002113949,0.0001438522,5,1
-0.0003577399,0.0001624898,5,1
-0.0004588687,0.0001725378,5,1
-0.0004773441,0.0001803169,5,1
-0.0003989045,0.0001937684,5,1
-0.0002455907,0.0002169437,5,1
-6.845333e-05,0.0002433604,5,1
7.189524e-05,0.0002631324,5,1
0.0001454729,0.0002676702,5,1
0.0001652449,0.0002555152,5,1
0.0001722137,0.0002333123,5,1
0.0002070577,0.0002072198,5,1
0.0002950592,0.0001819376,5,1
0.0004420525,0.0001592484,5,1
0.0006410689,0.0001404489,5,1
0.000866664,0.0001257009,5,1
0.001074594,0.0001132219,5,1
0.001213646,0.0001020394,5,1
0.001258052,9.31258e-05,5,1
0.001217212,8.972242e-05,5,1
0.001122079,8.84259e-05,5,1
0.001008633,8.939829e-05,5,1
0.0009023183,8.84259e-05,5,1
0.0008113996,8.340187e-05,5,1
0.000725667,7.52986e-05,5,1
0.0006234037,6.78436e-05,5,1
0.000485324,6.508849e-05,5,1
0.000319207,6.670914e-05,5,1
0.0001526038,6.573675e-05,5,1
1.419998e-05,5.374392e-05,5,1
-8.44978e-05,2.635488e-05,5,1
-0.0001613168,-9.299493e-06,5,1
-0.0002392702,-4.219875e-05,5,1
-0.0003322956,-6.375344e-05,5,1
-0.0004431483,-7.056019e-05,5,1
-0.0005611319,-6.650855e-05,5,1
-0.0006684191,-5.710876e-05,5,1
-0.0007614446,-4.722278e-05,5,1
-0.0008487977,-4.138842e-05,5,1
-0.0009421473,-4.155049e-05,5,1
-0.001042142,-5.22468e-05,5,1
-0.00113225,-7.18567e-05,5,1
-0.001193024,-9.66527e-05,5,1
-0.001209879,-0.0001263107,5,1
-0.001177466,-0.0001566169,5,1
-0.001105347,-0.0001794681,5,1
-0.001010215,-0.0001861127,5,1
-0.0009126515,-0.0001733096,5,1
-0.0008353463,-0.000151917,5,1
-0.0007930472,-0.0001360346,5,1
-0.0007888335,-0.0001349001,5,1
-0.000814602,-0.0001455964,5,1
-0.0008538218,-0.0001571031,5,1
-0.0008820211,-0.000159534,5,1
-0.0008781315,-0.0001483515,5,1
-0.0008283774,-0.0001295519,5,1
-0.0007392416,-0.0001101041,5,1
-0.0006282268,-9.730096e-05,5,1
-0.0005188328,-9.600444e-05,5,1
-0.0004360174,-0.0001032974,5,1
-0.000395339,-0.0001083214,5,1
-0.000387884,-0.0001045939,5,1
-0.0003836704,-9.276313e-05,5,1
-0.0003514194,-7.007399e-05,5,1
-0.0002793003,-3.652646e-05,5,1
-0.000176713,-6.176923e-08,5,1
-6.731888e-05,2.910999e-05,5,1
4.061663e-05,4.434413e-05,5,1
0.0001461212,4.288554e-05,5,1
0.0002540567,3.073064e-05,5,1
0.0003686369,1.889987e-05,5,1
0.0004762483,1.679302e-05,5,1
0.0005438296,3.13789e-05,5,1
0.000537347,6.200925e-05,5,1
0.0004499937,0.0001038221,5,1
0.0003138588,0.0001445005,5,1
0.0001850168,0.0001735102,5,1
0.0001094944,0.000187772,5,1
0.0001031738,0.0001880961,5,1
0.0001466074,0.0001785342,5,1
0.0002138645,0.0001654069,5,1
0.0002765838,0.0001521176,5,1
0.0003203414,0.0001420695,5,1
0.0003443271,0.0001336421,5,1
0.0003480546,0.0001232699,5,1
0.0003287688,0.0001067393,5,1
0.000292142,8.761557e-05,5,1
0.0002491947,7.092284e-05,5,1
0.0002099749,6.379197e-05,5,1
0.000177886,7.076078e-05,5,1
0.0001550348,9.053275e-05,5,1
0.0001389903,0.0001166253,5,1
0.0001274836,0.000140773,5,1
0.0001171115,0.0001560072,5,1
0.0001067393,0.0001566554,5,1
9.442231e-05,0.0001453108,5,1
7.52986e-05,0.0001252147,5,1
4.693717e-05,9.847395e-05,5,1
2.197911e-05,6.606088e-05,5,1
2.473423e-05,3.056858e-05,5,1
8.178122e-05,-1.034161e-06,5,1
0.000200251,-2.599222e-05,5,1
0.0003555096,-4.284701e-05,5,1
0.0005086614,-5.516398e-05,5,1
0.0006350724,-6.326724e-05,5,1
0.0007295565,-6.780507e-05,5,1
0.0007960034,-6.81292e-05,5,1
0.0008331164,-6.731888e-05,5,1
0.0008230684,-7.137051e-05,5,1
0.0007460872,-8.498399e-05,5,1
0.0005956905,-0.0001039456,5,1
0.000386302,-0.0001224211,5,1
0.0001385041,-0.000137007,5,1
-0.0001219349,-0.0001454344,5,1
-0.0003694086,-0.0001462447,5,1
-0.000583983,-0.0001415448,5,1
-0.0007536653,-0.0001308485,5,1
-0.0008724593,-0.0001133454,5,1
-0.000943768,-9.470791e-05,5,1
-0.000983636,-8.255302e-05,5,1
-0.001008108,-8.303922e-05,5,1
-0.001018642,-9.778715e-05,5,1
-0.001003732,-0.0001219349,5,1
-0.0009533298,-0.000144624,5,1
-0.0008697041,-0.0001585616,5,1
-0.0007669547,-0.0001601823,5,1
-0.0006648536,-0.0001541859,5,1
-0.0005708557,-0.0001493239,5,1
-0.0004744269,-0.0001511067,5,1
-0.000353202,-0.0001566169,5,1
-0.0001922712,-0.0001621271,5,1
2.04508e-06,-0.0001616409,5,1
0.0002153231,-0.0001475412,5,1
0.0004347596,-0.0001208004,5,1
0.0006627856,-9.357346e-05,5,1
0.0009107458,-7.752899e-05,5,1
0.001197116,-7.574627e-05,5,1
0.001530161,-8.547019e-05,5,1
0.001899184,-9.859748e-05,5,1
0.00226837,-0.0001091317,5,1
0.002600444,-0.000112373,5,1
0.002869312,-0.0001062146,5,1
0.003051637,-9.535618e-05,5,1
0.003131049,-8.352541e-05,5,1
0.003101553,-7.153257e-05,5,1
0.002968173,-5.500191e-05,5,1
0.002742252,-3.150244e-05,5,1
0.002438378,-1.358292e-06,5,1
0.002071298,3.656499e-05,5,1
0.001666458,8.242948e-05,5,1
0.001265507,0.0001295905,5,1
0.0009084769,0.0001675138,5,1
0.0006127074,0.0001916615,5,1
0.0003720403,0.0002043026,5,1
0.0001636242,0.0002114335,5,1
-3.587821e-05,0.0002174299,5,1
-0.0002306807,0.0002184023,5,1
-0.0004144627,0.0002062474,5,1
-0.000576528,0.0001748067,5,1
-0.0007056941,0.0001244044,5,1
-0.0007951541,6.152305e-05,5,1
-0.0008497701,1.720949e-06,5,1
-0.0008833176,-3.652646e-05,5,1
-0.0009060067,-4.009191e-05,5,1
-0.0009304786,-1.173047e-05,5,1
-0.0009708329,3.380988e-05,5,1
-0.001039873,7.870197e-05,5,1
-0.001137598,0.0001140322,5,1
-0.001254771,0.0001375317,5,1
-0.001377941,0.0001513072,5,1
-0.001493818,0.0001582761,5,1
-0.001585547,0.0001641104,5,1
-0.001638704,0.0001733481,5,1
-0.00164778,0.000190365,5,1
-0.001617798,0.0002140265,5,1
-0.001554916,0.0002393087,5,1
-0.001462863,0.0002615117,5,1
-0.001341152,0.0002769079,5,1
-0.001186704,0.0002850112,5,1
-0.001001625,0.0002874421,5,1
-0.0008058504,0.0002838767,5,1
-0.0006298475,0.0002728562,5,1
-0.0005026262,0.0002538946,5,1
-0.0004434724,0.0002286124,5,1
-0.0004528722,0.0002036544,5,1
-0.0005027883,0.000185503,5,1
-0.0005426564,0.0001788584,5,1
-0.0005339049,0.0001840444,5,1
-0.0004788027,0.00019782,5,1
-0.0004036044,0.0002128921,5,1
-0.0003327818,0.0002193747,5,1
-0.0002852967,0.0002122438,5,1
-0.0002630937,0.000192796,5,1
-0.0002619593,0.0001628139,5,1
-0.0002713591,0.0001227837,5,1
-0.0002791382,7.30297e-05,5,1
-0.0002771934,2.052053e-05,5,1
-0.0002668213,-2.826114e-05,5,1
-0.0002564491,-6.893953e-05,5,1
-0.0002566112,-0.0001005423,5,1
-0.0002757348,-0.0001267968,5,1
-0.000313334,-0.0001512687,5,1
-0.0003613053,-0.0001778474,5,1
-0.0004073319,-0.0002104225,5,1
-0.0004402311,-0.0002498044,5,1
-0.0004570859,-0.0002934,5,1
-0.0004601652,-0.0003371576,5,1
-0.0004549791,-0.0003749188,5,1
-0.000444931,-0.0004011734,5,1
-0.0004301831,-0.00041268,5,1
-0.0004099249,-0.0004096008,5,1
-0.0003848048,-0.0003914495,5,1
-0.0003557951,-0.0003614674,5,1
-0.0003196545,-0.0003272716,5,1
-0.000271197,-0.0002976137,5,1
-0.0002032917,-0.0002765452,5,1
-0.0001170729,-0.0002642282,5,1
-2.599222e-05,-0.0002579077,5,1
4.677511e-05,-0.0002549905,5,1
9.409818e-05,-0.0002519113,5,1
0.0001323456,-0.0002439701,5,1
0.0001783722,-0.0002258187,5,1
0.000232502,-0.000194216,5,1
0.0002762596,-0.0001481895,5,1
0.0002897111,-9.357346e-05,5,1
0.0002657254,-4.106429e-05,5,1
0.0002137024,-1.358292e-06,5,1
0.0001589243,2.116879e-05,5,1
0.0001269974,2.846173e-05,5,1
0.0001276457,2.862379e-05,5,1
0.0001464453,3.024445e-05,5,1
0.0001645966,4.110282e-05,5,1
0.0001741585,5.860588e-05,5,1
0.0001814514,8.032264e-05,5,1
0.0001966855,0.0001020394,5,1
0.0002271538,0.0001205148,5,1
0.0002670219,0.0001349386,5,1
0.0003054314,0.0001423936,5,1
0.0003336308,0.0001412592,5,1
0.0003459477,0.0001368834,5,1
0.0003420582,0.0001376938,5,1
0.0003289309,0.0001490383,5,1
0.0003232586,0.0001673517,5,1
0.0003376824,0.0001837203,5,1
0.0003649094,0.0001918236,5,1
0.0003827366,0.0001932822,5,1
0.0003720403,0.0001908512,5,1
0.0003274723,0.0001833962,5,1
0.0002621599,0.000170431,5,1
0.0001958752,0.000155521,5,1
0.0001461212,0.0001385041,5,1
0.0001182459,0.0001206769,5,1
0.0001116012,0.000105929,5,1
0.0001158149,9.977047e-05,5,1
0.0001148425,0.000103498,5,1
9.53947e-05,0.000111115,5,1
6.152305e-05,0.0001174356,5,1
3.073064e-05,0.0001247285,5,1
3.413401e-05,0.0001378558,5,1
9.247754e-05,0.0001545486,5,1
0.0001989545,0.0001637863,5,1
0.0003151553,0.0001586002,5,1
0.0003989431,0.0001409351,5,1
0.0004367043,0.0001201907,5,1
0.0004449697,0.0001078737,5,1
0.0004474007,0.0001091703,5,1
0.0004512903,0.000120839,5,1
0.0004496696,0.0001362352,5,1
0.0004313562,0.0001540623,5,1
0.0003973225,0.0001676758,5,1
0.0003602095,0.000168162,5,1
0.0003329825,0.000153252,5,1
0.0003174242,0.0001237561,5,1
0.0003213138,8.486046e-05,5,1
0.0003600474,4.596478e-05,5,1
0.0004470765,1.419998e-05,5,1
0.0005738117,-6.706447e-06,5,1
0.0007070294,-1.918548e-05,5,1
0.0008057273,-2.923353e-05,5,1
0.0008447851,-3.458168e-05,5,1
0.0008334405,-3.036798e-05,5,1
0.0007997309,-2.080613e-05,5,1
0.0007681281,-1.286493e-05,5,1
0.0007655351,-1.20546e-05,5,1
0.0008031343,-1.886135e-05,5,1
0.0008574262,-3.312309e-05,5,1
0.0008786568,-5.111234e-05,5,1
0.000817234,-7.007399e-05,5,1
0.0006614891,-8.838737e-05,5,1
0.0004349216,-0.0001099421,5,1
0.0001880961,-0.0001334415,5,1
-3.134038e-05,-0.0001585616,5,1
-0.0001925954,-0.0001854645,5,1
-0.0002820554,-0.0002131776,5,1
-0.0002998826,-0.0002402425,5,1
-0.0002626076,-0.000266011,5,1
-0.0002032917,-0.0002916173,5,1
-0.0001622891,-0.0003186821,5,1
-0.0001630995,-0.0003454229,5,1
-0.0002013469,-0.0003673017,5,1
-0.0002540181,-0.0003762153,5,1
-0.0003018274,-0.000370381,5,1
-0.0003316474,-0.0003473677,5,1
-0.0003368335,-0.0003044204,5,1
-0.0003204649,-0.0002429977,5,1
-0.0003006929,-0.0001724993,5,1
-0.0003006929,-0.000102325,5,1
-0.0003339163,-3.312309e-05,5,1
-0.0003893426,3.834771e-05,5,1
-0.0004408794,0.0001125736,5,1
-0.0004637306,0.0001783722,5,1
-0.0004429862,0.0002209954,5,1
-0.0003836704,0.0002258573,5,1
-0.0003073376,0.0001892305,5,1
-0.0002506147,0.0001250527,5,1
-0.0002514251,5.779555e-05,5,1
-0.0003295405,4.47606e-06,5,1
-0.0004786406,-2.664048e-05,5,1
-0.0006680949,-3.847125e-05,5,1
-0.0008526873,-3.63644e-05,5,1
-0.0009894704,-2.518189e-05,5,1
-0.001053,-6.706447e-06,5,1
-0.001038414,1.9224e-05,5,1
-0.0009645124,5.244739e-05,5,1
-0.0008612768,8.550872e-05,5,1
-0.0007541516,0.0001073875,5,1
-0.0006530228,0.0001117633,5,1
-0.000549139,0.000103498,5,1
-0.0004335865,9.118101e-05,5,1
-0.0003024756,8.405014e-05,5,1
-0.0001587237,8.680524e-05,5,1
-9.461558e-06,9.912221e-05,5,1
0.0001376938,0.0001172735,5,1
0.000282256,0.0001389903,5,1
0.0004273046,0.0001636242,5,1
0.0005712186,0.0001897167,5,1
0.0007101087,0.0002130541,5,1
0.0008402473,0.0002286124,5,1
0.0009598516,0.0002313675,5,1
0.001067787,0.0002234263,5,1
0.001152223,0.0002057612,5,1
0.001196629,0.0001827479,5,1
0.001186419,0.0001608691,5,1
0.001104576,0.0001435281,5,1
0.0009451036,0.0001304008,5,1
0.0007255049,0.0001205148,5,1
0.0004861343,0.0001119254,5,1
0.0002790148,9.782569e-05,5,1
0.0001493625,7.076078e-05,5,1
0.0001043083,3.478228e-05,5,1
0.0001164632,-1.034161e-06,5,1
0.0001372076,-3.036798e-05,5,1
0.0001128978,-5.078821e-05,5,1
3.665733e-06,-6.44017e-05,5,1
-0.0001929195,-7.072225e-05,5,1
-0.0004446069,-7.169464e-05,5,1
-0.0007128249,-7.444975e-05,5,1
-0.0009630537,-8.40116e-05,5,1
-0.001178276,-9.697683e-05,5,1
-0.001358007,-0.0001086455,5,1
-0.001509538,-0.0001143178,5,1
-0.001635463,-0.0001190177,5,1
-0.001724437,-0.0001282554,5,1
-0.001760091,-0.0001421931,5,1
-0.001729299,-0.0001532135,5,1
-0.001628494,-0.0001559686,5,1
-0.001467239,-0.0001489998,5,1
-0.001247154,-0.0001391138,5,1
-0.0009583539,-0.0001319829,5,1
-0.0005909518,-0.0001305243,5,1
-0.0001579134,-0.0001324691,5,1
0.0002863077,-0.0001389517,5,1
0.0006653786,-0.0001481895,5,1
0.0009243593,-0.0001553203,5,1
0.001052229,-0.0001548341,5,1
0.001067625,-0.0001491618,5,1
0.001002313,-0.0001386276,5,1
0.0008909738,-0.0001230693,5,1
0.0007652109,-0.0001026491,5,1
0.0006459308,-8.255302e-05,5,1
0.0005384815,-6.748094e-05,5,1
0.000435732,-5.840528e-05,5,1
0.0003260137,-5.338126e-05,5,1
0.0002057612,-5.22468e-05,5,1
8.826383e-05,-5.143648e-05,5,1
-1.059602e-05,-4.689865e-05,5,1
-7.914964e-05,-3.766092e-05,5,1
-0.0001118868,-2.647842e-05,5,1
-0.0001115627,-1.513384e-05,5,1
-9.746302e-05,-7.354709e-06,5,1
-8.82253e-05,-1.358292e-06,5,1
-0.0001032974,9.013889e-06,5,1
-0.000149486,2.797553e-05,5,1
-0.0002182017,5.325772e-05,5,1
-0.0002908069,7.967438e-05,5,1
-0.0003397507,0.0001031738,5,1
-0.000333106,0.0001239182,5,1
-0.0002420253,0.0001436902,5,1
-5.872941e-05,0.0001613553,5,1
0.0001911753,0.0001757791,5,1
0.0004640934,0.0001882582,5,1
0.0007105949,0.0002034923,5,1
0.000894053,0.0002158093,5,1
0.0009932371,0.0002221298,5,1
0.0009997197,0.000222616,5,1
0.0009201455,0.000220185,5,1
0.0007723419,0.0002169437,5,1
0.0005877494,0.0002141886,5,1
0.0004021844,0.0002143507,5,1
0.0002467637,0.0002188885,5,1
0.0001373696,0.0002268297,5,1
6.541262e-05,0.0002336365,5,1
1.695509e-05,0.0002383363,5,1
-1.092015e-05,0.0002409294,5,1
-6.868513e-06,0.0002359054,5,1
4.223728e-05,0.0002184023,5,1
0.0001227837,0.0001900409,5,1
0.0001970097,0.0001539003,5,1
0.0002290986,0.0001185701,5,1
0.0002112714,9.150514e-05,5,1
0.0001722137,7.076078e-05,5,1
0.0001558451,5.309566e-05,5,1
0.0001974959,3.494434e-05,5,1
0.0003102934,1.808955e-05,5,1
0.0004770586,6.582909e-06,5,1
0.0006575995,-1.682422e-06,5,1
0.0007990826,-6.706447e-06,5,1
0.0008517539,-1.124428e-05,5,1
0.0007924379,-1.788895e-05,5,1
0.0006311828,-2.339918e-05,5,1
0.0004073705,-2.501983e-05,5,1
0.0001733481,-2.939559e-05,5,1
-3.101625e-05,-3.717473e-05,5,1
-0.0001912988,-5.062615e-05,5,1
-0.0003117133,-6.650855e-05,5,1
-0.0004086284,-8.384954e-05,5,1
-0.0004956574,-9.940781e-05,5,1
-0.0005770142,-0.00010978,5,1
-0.0006517263,-0.0001130213,5,1
-0.0007193076,-0.0001055663,5,1
-0.0007864026,-8.644259e-05,5,1
-0.0008512287,-6.083626e-05,5,1
-0.0009107067,-3.425755e-05,5,1
-0.0009568953,-1.108221e-05,5,1
-0.000978774,5.610517e-06,5,1
-0.0009625676,1.484824e-05,5,1
-0.0008996862,1.452411e-05,5,1
-0.0008005023,9.106227e-07,5,1
-0.0006890013,-2.647842e-05,5,1
-0.000586414,-6.44017e-05,5,1
-0.0004943609,-0.0001067007,5,1
-0.0004086284,-0.0001436516,5,1
-0.0003287302,-0.0001684476,5,1
-0.0002528836,-0.0001859507,5,1
-0.0001788198,-0.0002058847,5,1
-0.0001021629,-0.0002326255,5,1
-2.242678e-05,-0.0002616352,5,1
5.325772e-05,-0.0002817312,5,1
0.0001107909,-0.0002818933,5,1
0.0001334801,-0.0002603387,5,1
0.0001081979,-0.0002282497,5,1
3.478228e-05,-0.0001981056,5,1
-5.516398e-05,-0.0001788198,5,1
-0.0001154523,-0.0001679614,5,1
-0.0001177212,-0.0001616409,5,1
-6.375344e-05,-0.0001571031,5,1
1.663096e-05,-0.0001464067,5,1
8.307774e-05,-0.0001199901,5,1
0.0001064152,-7.266703e-05,5,1
8.016057e-05,-9.785688e-06,5,1
2.505836e-05,5.536457e-05,5,1
-2.145439e-05,0.000110953,5,1
-2.809907e-05,0.0001513072,5,1
7.069105e-06,0.0001756171,5,1
6.314371e-05,0.0001871237,5,1
0.0001141943,0.0001889064,5,1
0.0001534141,0.0001840444,5,1
0.0001824238,0.0001738343,5,1
0.0002128921,0.0001586002,5,1
0.0002624841,0.0001378558,5,1
0.0003438409,0.0001156529,5,1
0.0004550177,9.669123e-05,5,1
0.0005781874,8.453633e-05,5,1
0.0006896885,7.886404e-05,5,1
0.0007687764,7.821578e-05,5,1
0.000814803,8.145709e-05,5,1
0.0008348991,9.004655e-05,5,1
0.0008339267,0.0001041462,5,1
0.00081221,0.0001198666,5,1
0.0007668316,0.0001336421,5,1
0.0006943883,0.0001445005,5,1
0.0005827253,0.0001551968,5,1
0.0004098015,0.000168162,5,1
0.0001589243,0.0001824238,5,1
-0.0001642339,0.0001965235,5,1
-0.0005164018,0.0002107852,5,1
-0.0008361567,0.0002242366,5,1
-0.001068882,0.0002281262,5,1
-0.001183949,0.0002159713,5,1
-0.001188162,0.0001866375,5,1
-0.001109885,0.0001428799,5,1
-0.0009889842,8.891209e-05,5,1
-0.0008606284,2.943412e-05,5,1
-0.0007423208,-3.101625e-05,5,1
-0.0006342233,-8.968389e-05,5,1
-0.0005152673,-0.0001423551,5,1
-0.00036795,-0.0001846542,5,1
-0.0001887058,-0.0002130156,5,1
1.517237e-05,-0.0002233878,5,1
0.0002243987,-0.0002130156,5,1
0.0004115842,-0.0001862748,5,1
0.000552419,-0.0001532135,5,1
0.0006336138,-0.0001240417,5,1
0.0006579236,-0.0001028112,5,1
0.0006326414,-8.547019e-05,5,1
0.0005736496,-6.650855e-05,5,1
0.0005097958,-4.884343e-05,5,1
0.0004717105,-4.398147e-05,5,1
0.0004697657,-6.294311e-05,5,1
0.0004937514,-0.0001063766,5,1
0.0005295678,-0.0001639098,5,1
0.0005708945,-0.0002152845,5,1
0.0006214589,-0.0002459149,5,1
0.0006856368,-0.0002519113,5,1
0.0007561353,-0.0002428356,5,1
0.0008136685,-0.0002271153,5,1
0.0008293889,-0.000206695,5,1
0.0007882243,-0.0001814128,5,1
0.0007018434,-0.0001546721,5,1
0.0005984457,-0.0001323071,5,1
0.0005050959,-0.0001186936,5,1
0.0004255218,-0.0001167488,5,1
0.0003410858,-0.0001250141,5,1
0.0002341226,-0.0001384655,5,1
0.0001000946,-0.0001498101,5,1
-5.176061e-05,-0.0001551583,5,1
-0.0002024813,-0.0001507825,5,1
-0.0003321336,-0.0001306864,5,1
-0.0004295348,-8.709085e-05,5,1
-0.0004961436,-2.323711e-05,5,1
-0.0005345531,5.179914e-05,5,1
-0.0005429805,0.0001219734,5,1
-0.0005225603,0.0001707551,5,1
-0.0004810716,0.000187934,5,1
-0.0004327761,0.0001752929,5,1
-0.0003906392,0.0001449867,5,1
-0.0003613053,0.0001125736,5,1
-0.0003499608,8.74535e-05,5,1
-0.0003527159,7.108491e-05,5,1
-0.0003525538,6.03886e-05,5,1
-0.000328082,5.374392e-05,5,1
-0.0002750866,5.115087e-05,5,1
-0.0001989159,5.406805e-05,5,1
-0.0001131834,6.78436e-05,5,1
-3.555408e-05,9.426025e-05,5,1
9.986281e-06,0.0001316974,5,1
4.151929e-06,0.0001761032,5,1
-6.132246e-05,0.000220185,5,1
-0.0001724993,0.0002521119,5,1
-0.0002874036,0.0002621599,5,1
-0.0003501228,0.0002490327,5,1
-0.0003240303,0.0002218057,5,1
-0.0002172293,0.0001923098,5,1
-7.347736e-05,0.0001691344,5,1
5.374392e-05,0.0001534141,5,1
0.0001250527,0.0001446626,5,1
0.0001279698,0.0001440143,5,1
7.416415e-05,0.0001535762,5,1
-1.25408e-05,0.0001741585,5,1
-0.0001060525,0.0002010613,5,1
-0.0001883817,0.0002281262,5,1
-0.0002506147,0.0002513016,5,1
-0.000290969,0.0002655633,5,1
-0.0003126857,0.0002723701,5,1
-0.0003206269,0.0002691288,5,1
-0.0003209511,0.0002555152,5,1
-0.0003185201,0.0002312055,5,1
-0.0003149546,0.0001981441,5,1
-0.0003120375,0.0001590864,5,1
-0.0003102548,0.0001193804,5,1
-0.0003160891,8.210535e-05,5,1
-0.0003366714,4.564065e-05,5,1
-0.0003728119,7.23117e-06,5,1
-0.0004181903,-3.231277e-05,5,1
-0.0004638926,-6.650855e-05,5,1
-0.0004959816,-8.692878e-05,5,1
-0.0004997091,-8.952183e-05,5,1
-0.0004676201,-8.109443e-05,5,1
-0.0004121938,-7.218083e-05,5,1
-0.0003627639,-7.137051e-05,5,1
-0.0003439643,-7.882551e-05,5,1
-0.0003613053,-8.498399e-05,5,1
-0.0003964735,-8.352541e-05,5,1
-0.000422566,-7.60704e-05,5,1
-0.0004168937,-6.780507e-05,5,1
-0.0003663294,-6.326724e-05,5,1
-0.0002750866,-7.056019e-05,5,1
-0.0001621271,-9.098041e-05,5,1
-5.889148e-05,-0.0001190177,5,1
1.22552e-05,-0.0001428413,5,1
5.504044e-05,-0.0001540238,5,1
9.960841e-05,-0.0001525652,5,1
0.0001770756,-0.0001438137,5,1
0.0002968419,-0.0001350622,5,1
0.0004448076,-0.0001290658,5,1
0.0006007145,-0.0001255003,5,1
0.0007457631,-0.0001225832,5,1
0.0008592089,-0.0001237176,5,1
0.0009245213,-0.0001274451,5,1
0.0009355418,-0.0001326312,5,1
0.0009023183,-0.0001407345,5,1
0.0008489988,-0.0001543479,5,1
0.0007990826,-0.0001712027,5,1
0.0007648868,-0.0001861127,5,1
0.0007503009,-0.0001935677,5,1
0.0007514353,-0.0001938919,5,1
0.0007671557,-0.0001865989,5,1
0.0007874139,-0.0001720131,5,1
0.0007872519,-0.0001512687,5,1
0.000745439,-0.0001279313,5,1
0.0006569512,-0.0001076731,5,1
0.000534916,-9.422172e-05,5,1
0.0004083429,-8.935975e-05,5,1
0.0003039728,-8.595638e-05,5,1
0.0002299089,-7.785312e-05,5,1
0.0001801549,-6.44017e-05,5,1
0.0001328318,-5.095028e-05,5,1
6.962632e-05,-3.814712e-05,5,1
-6.382317e-06,-2.615429e-05,5,1
-6.164659e-05,-1.416145e-05,5,1
-5.840528e-05,1.002961e-07,5,1
1.565857e-05,1.630683e-05,5,1
0.0001385041,3.008238e-05,5,1
0.0002670219,3.948217e-05,5,1
0.0003700955,4.645098e-05,5,1
0.0004311941,5.406805e-05,5,1
0.0004480489,6.233338e-05,5,1
0.0004214702,7.124698e-05,5,1
0.0003511338,8.242948e-05,5,1
0.0002363916,0.0001000946,5,1
8.680524e-05,0.000123432,5,1
-8.206682e-05,0.0001501728,5,1
-0.0002525595,0.0001739964,5,1
-0.0004031182,0.0001910133,5,1
-0.0005206155,0.000200413,5,1
-0.0006032689,0.0002025199,5,1
-0.0006606399,0.0001983062,5,1
-0.0007063423,0.0001908512,5,1
-0.0007496137,0.0001845306,5,1
-0.0007915886,0.0001817755,5,1
-0.0008265948,0.0001851789,5,1
-0.0008465288,0.000192958,5,1
-0.000836967,0.0002015475,5,1
-0.0007881853,0.0002080301,5,1
-0.0007009942,0.0002112714,5,1
-0.0005946793,0.0002111094,5,1
-0.0004911196,0.0002073819,5,1
-0.0003974459,0.0001996027,5,1
-0.0003060411,0.0001919856,5,1
-0.0002083157,0.0001869616,5,1
-0.0001028112,0.0001848548,5,1
-3.951337e-06,0.0001825859,5,1
6.849186e-05,0.0001764274,5,1
0.0001065772,0.000162976,5,1
0.0001201907,0.0001428799,5,1
0.0001260251,0.0001197045,5,1
0.0001380179,9.652917e-05,5,1
0.0001613553,7.027458e-05,5,1
0.0001884202,3.964424e-05,5,1
0.0002043026,8.365628e-06,5,1
0.000195227,-1.416145e-05,5,1
0.00015309,-2.42095e-05,5,1
8.696731e-05,-2.761287e-05,5,1
2.846173e-05,-3.377136e-05,5,1
6.582909e-06,-4.738484e-05,5,1
2.975825e-05,-7.088431e-05,5,1
9.134307e-05,-0.0001011905,5,1
0.0001694586,-0.0001336036,5,1
0.0002188885,-0.0001621271,5,1
0.0001970097,-0.0001831956,5,1
9.21534e-05,-0.0001971332,5,1
-6.472583e-05,-0.0002021572,5,1
-0.0002156086,-0.0002013469,5,1
-0.0003023136,-0.0001921092,5,1
-0.0002914552,-0.0001713648,5,1
-0.0001900023,-0.0001413827,5,1
-4.981582e-05,-0.0001107524,5,1
6.78436e-05,-8.611845e-05,5,1
0.0001305629,-7.120844e-05,5,1
0.000138342,-6.861539e-05,5,1
0.0001086841,-7.785312e-05,5,1
5.925414e-05,-9.438378e-05,5,1
-5.479652e-07,-0.0001157764,5,1
-5.775702e-05,-0.0001386276,5,1
-9.098041e-05,-0.0001546721,5,1
-8.692878e-05,-0.0001572651,5,1
-5.64605e-05,-0.0001483515,5,1
-2.712668e-05,-0.0001357104,5,1
-2.971972e-05,-0.0001264727,5,1
-7.33153e-05,-0.0001235555,5,1
-0.0001417068,-0.0001255003,5,1
-0.0002029675,-0.0001266348,5,1
-0.000238784,-0.0001175591,5,1
-0.0002545043,-9.616651e-05,5,1
-0.0002645523,-6.942573e-05,5,1
-0.0002757348,-4.85193e-05,5,1
-0.000290969,-4.05781e-05,5,1
-0.0003070135,-4.236082e-05,5,1
-0.0003188442,-4.722278e-05,5,1
-0.0003188442,-4.576419e-05,5,1
-0.0003055549,-3.425755e-05,5,1
-0.0002862691,-1.869928e-05,5,1
-0.0002673075,-6.868513e-06,5,1
-0.0002498044,-2.006553e-06,5,1
-0.0002250084,3.341602e-06,5,1
-0.0001715269,1.468618e-05,5,1
-6.845333e-05,3.299956e-05,5,1
8.972242e-05,5.374392e-05,5,1
0.000284525,7.416415e-05,5,1
0.0004845136,9.21534e-05,5,1
0.0006608408,0.000105929,5,1
0.0007966516,0.0001161391,5,1
0.0008822222,0.0001287802,5,1
0.0009170663,0.0001483901,5,1
0.0009045873,0.0001728619,5,1
0.0008528884,0.0001999268,5,1
0.0007671557,0.0002260194,5,1
0.0006517651,0.0002453052,5,1
0.0005193577,0.000254867,5,1
0.000398619,0.0002491947,5,1
0.0003198552,0.0002269918,5,1
0.0002866318,0.0001934442,5,1
0.0002786906,0.0001542244,5,1
0.000277232,0.0001153287,5,1
0.0002705873,8.097089e-05,5,1
0.000259891,5.390598e-05,5,1
0.0002491947,3.721326e-05,5,1
0.0002417397,3.024445e-05,5,1
0.0002263435,3.105477e-05,5,1
0.0001773998,3.769945e-05,5,1
8.210535e-05,4.239934e-05,5,1
-4.981582e-05,4.612685e-05,5,1
-0.0001898403,4.904402e-05,5,1
-0.000301017,4.904402e-05,5,1
-0.0003525538,4.580272e-05,5,1
-0.0003489884,3.705119e-05,5,1
-0.0003105789,2.133085e-05,5,1
-0.0002519113,-2.81688e-06,5,1
-0.0001705545,-3.166451e-05,5,1
-6.780507e-05,-6.051213e-05,5,1
4.596478e-05,-8.40116e-05,5,1
0.0001547106,-0.0001020008,5,1
0.0002438466,-0.0001161005,5,1
0.0002926282,-0.0001267968,5,1
0.0002809595,-0.0001308485,5,1
0.0002117576,-0.0001280934,5,1
0.0001081979,-0.000122259,5,1
3.665733e-06,-0.000119828,5,1
-7.850138e-05,-0.0001201522,5,1
-0.000134576,-0.000112373,5,1
-0.0001652063,-8.919769e-05,5,1
-0.0001784957,-5.565017e-05,5,1
-0.000191785,-2.307504e-05,5,1
-0.0002177155,-3.789272e-06,5,1
-0.000256287,-3.627206e-06,5,1
-0.0002971275,-1.659243e-05,5,1
-0.0003295405,-2.631635e-05,5,1
-0.0003470436,-2.161646e-05,5,1
-0.000355471,2.623614e-07,5,1
-0.0003626019,3.024445e-05,5,1
-0.00036795,5.633696e-05,5,1
-0.0003671397,6.865393e-05,5,1
-0.0003601709,6.41161e-05,5,1
-0.0003561192,4.645098e-05,5,1
-0.0003700569,2.084466e-05,5,1
-0.0004159214,-5.734056e-06,5,1
-0.0004927403,-2.907146e-05,5,1
-0.000591438,-4.916756e-05,5,1
-0.0007019666,-6.731888e-05,5,1
-0.0008069849,-8.417367e-05,5,1
-0.0008876934,-0.000102325,5,1
-0.0009295062,-0.0001203142,5,1
-0.0009270753,-0.0001352242,5,1
-0.0008838038,-0.0001434896,5,1
-0.00080974,-0.0001421931,5,1
-0.0007175248,-0.0001360346,5,1
-0.0006167202,-0.000129714,5,1
-0.0005152673,-0.0001243659,5,1
-0.0004147869,-0.0001169109,5,1
-0.0003117133,-0.0001044318,5,1
-0.0001995642,-8.660465e-05,5,1
-7.931171e-05,-6.359137e-05,5,1
4.677511e-05,-3.830919e-05,5,1
0.0001822617,-1.318906e-05,5,1
0.0003321722,1.355172e-05,5,1
0.0005008822,4.142696e-05,5,1
0.0006911471,7.076078e-05,5,1
0.0008924323,0.0001002567,5,1
0.001088532,0.0001281319,5,1
0.001254163,0.0001501728,5,1
0.001357885,0.000160707,5,1
0.001378629,0.0001621656,5,1
0.001321096,0.0001639484,5,1
0.001217698,0.0001751309,5,1
0.001111221,0.000192958,5,1
0.001022085,0.0002083542,5,1
0.0009412141,0.0002140265,5,1
0.0008439748,0.0002051129,5,1
0.0007118915,0.0001856651,5,1
0.0005459364,0.0001692965,5,1
0.0003585888,0.0001667035,5,1
0.0001602208,0.0001757791,5,1
-3.312309e-05,0.0001866375,5,1
-0.0002008607,0.0001947408,5,1
-0.0003204649,0.0002018716,5,1
-0.0003784843,0.0002125679,5,1
-0.000375405,0.0002278021,5,1
-0.0003327818,0.0002427121,5,1
-0.0002872415,0.0002446569,5,1
-0.0002695764,0.0002265056,5,1
-0.0002851347,0.0001893926,5,1
-0.0003235441,0.0001378558,5,1
-0.0003731361,8.032264e-05,5,1
-0.0004245108,2.554455e-05,5,1
-0.0004669719,-1.902341e-05,5,1
-0.000482044,-4.414354e-05,5,1
-0.0004544929,-4.90055e-05,5,1
-0.0003838324,-4.009191e-05,5,1
-0.0002922655,-2.453363e-05,5,1
-0.0002070192,-8.327101e-06,5,1
-0.0001430034,1.014835e-05,5,1
-9.956988e-05,3.040651e-05,5,1
-6.342931e-05,5.293359e-05,5,1
-2.177852e-05,7.367795e-05,5,1
2.408596e-05,8.696731e-05,5,1
6.735741e-05,9.296373e-05,5,1
0.0001090082,9.101894e-05,5,1
0.0001615174,7.918817e-05,5,1
0.0002359054,5.779555e-05,5,1
0.0003289309,2.81376e-05,5,1
0.0004196875,-4.923729e-06,5,1
0.0004734932,-3.911951e-05,5,1
0.000450804,-7.299116e-05,5,1
0.0003328204,-0.0001052422,5,1
0.000135749,-0.0001376552,5,1
-9.276313e-05,-0.0001703924,5,1
-0.0002995585,-0.0002023193,5,1
-0.0004426621,-0.0002298704,5,1
-0.0004993849,-0.0002499665,5,1
-0.00046211,-0.0002622834,5,1
-0.0003342404,-0.0002689281,5,1
-0.0001295519,-0.000268604,5,1
0.0001174356,-0.0002635799,5,1
0.0003592371,-0.0002556388,5,1
0.0005501501,-0.0002451045,5,1
0.0006632718,-0.0002342462,5,1
0.000696009,-0.0002245222,5,1
0.0006642442,-0.0002193361,5,1
0.0005843459,-0.0002230636,5,1
0.0004736553,-0.0002324634,5,1
0.0003394651,-0.0002423494,5,1
0.0001895547,-0.0002499665,5,1
4.191315e-05,-0.0002525595,5,1
-7.671866e-05,-0.0002475355,5,1
-0.000152079,-0.0002352185,5,1
-0.0001869231,-0.0002172293,5,1
-0.0002062088,-0.0001909747,5,1
-0.000236353,-0.0001559686,5,1
-0.0002872415,-0.0001186936,5,1
-0.0003481781,-8.806324e-05,5,1
-0.0003956632,-6.715681e-05,5,1
-0.0004060354,-5.2733e-05,5,1
-0.0003707051,-4.106429e-05,5,1
-0.0002942103,-2.923353e-05,5,1
-0.0001890299,-1.416145e-05,5,1
-7.60704e-05,6.582909e-06,5,1
2.522042e-05,3.380988e-05,5,1
9.344993e-05,6.768154e-05,5,1
0.0001140322,0.0001051186,5,1
8.323981e-05,0.0001448246,5,1
1.014835e-05,0.0001830721,5,1
-8.530812e-05,0.0002162954,5,1
-0.0001794681,0.0002412535,5,1
-0.0002558008,0.0002594049,5,1
-0.0003006929,0.0002709115,5,1
-0.000305879,0.00027707,5,1
-0.000273628,0.0002795009,5,1
-0.0002173914,0.0002801492,5,1
-0.0001603444,0.0002832284,5,1
-0.0001229073,0.0002859836,5,1
-0.0001101041,0.0002838767,5,1
-0.0001086455,0.0002751252,5,1
-0.0001076731,0.0002594049,5,1
-0.0001083214,0.000239957,5,1
-0.0001217728,0.0002185644,5,1
-0.0001525652,0.0001914995,5,1
-0.0001912988,0.000158114,5,1
-0.0002156086,0.0001248906,5,1
-0.0002117191,9.458438e-05,5,1
-0.0001890299,6.444023e-05,5,1
-0.0001739578,3.640293e-05,5,1
-0.0001900023,1.403791e-05,5,1
-0.0002402425,-8.720959e-07,5,1
-0.0002987481,-1.335113e-05,5,1
-0.0003201407,-2.809907e-05,5,1
-0.0002733039,-4.317115e-05,5,1
-0.000159372,-5.062615e-05,5,1
-1.62683e-05,-4.80331e-05,5,1
0.0001018773,-3.63644e-05,5,1
0.0001641104,-2.09682e-05,5,1
0.0001791825,-5.409925e-06,5,1
0.0001786963,9.824215e-06,5,1
0.0001958752,1.987227e-05,5,1
0.0002428742,1.9224e-05,5,1
0.0003028383,8.527692e-06,5,1
0.0003499994,-5.247859e-06,5,1
0.0003649094,-1.691656e-05,5,1
0.0003457857,-2.599222e-05,5,1
0.0003111037,-3.701266e-05,5,1
0.0002809595,-5.078821e-05,5,1
0.000267184,-6.504996e-05,5,1
0.0002684805,-7.850138e-05,5,1
0.0002637806,-9.470791e-05,5,1
0.0002287745,-0.0001138316,5,1
0.0001573037,-0.0001340898,5,1
6.184718e-05,-0.0001514308,5,1
-3.68506e-05,-0.0001652063,5,1
-0.0001185315,-0.0001770371,5,1
-0.0001791439,-0.0001875713,5,1
-0.000221605,-0.0001964849,5,1
-0.0002433218,-0.0002024813,5,1
-0.0002400805,-0.0002060468,5,1
-0.0002147983,-0.000206695,5,1
-0.0001831956,-0.0002049123,5,1
-0.0001556445,-0.0002011848,5,1
-0.0001319829,-0.0001951884,5,1
-0.0001109144,-0.0001788198,5,1
-8.919769e-05,-0.0001455964,5,1
-6.06742e-05,-9.811128e-05,5,1
-2.258885e-05,-4.625038e-05,5,1
3.040651e-05,-4.599598e-06,5,1
0.0001038221,1.387585e-05,5,1
0.0002012234,5.448452e-06,5,1
0.0003130485,-2.210265e-05,5,1
0.0004164462,-5.078821e-05,5,1
0.0004943996,-6.699475e-05,5,1
0.0005407503,-6.780507e-05,5,1
0.0005538776,-4.90055e-05,5,1
0.0005342677,-8.813297e-06,5,1
0.0004819206,5.260946e-05,5,1
0.0003971604,0.0001287802,5,1
0.0002887387,0.0002057612,5,1
0.0001791825,0.0002683184,5,1
9.069481e-05,0.0003055935,5,1
3.850978e-05,0.0003136967,5,1
2.01964e-05,0.0002966799,5,1
2.489629e-05,0.0002694529,5,1
3.721326e-05,0.0002490327,5,1
4.110282e-05,0.0002427121,5,1
2.003433e-05,0.0002483844,5,1
-3.830919e-05,0.0002571359,5,1
-0.0001368449,0.0002587566,5,1
-0.0002617972,0.000252274,5,1
-0.0003873979,0.0002419018,5,1
-0.0004849611,0.000234933,5,1
-0.0005386047,0.0002346088,5,1
-0.000554163,0.0002404432,5,1
-0.0005505976,0.0002482223,5,1
-0.0005497872,0.0002513016,5,1
-0.0005638869,0.0002461155,5,1
-0.0005992171,0.0002302331,5,1
-0.000650916,0.0002030061,5,1
-0.0007021286,0.0001670276,5,1
-0.0007330831,0.0001269974,5,1
-0.0007298418,8.907416e-05,5,1
-0.0006893255,5.828175e-05,5,1
-0.0006183409,3.591673e-05,5,1
-0.00052175,2.035846e-05,5,1
-0.0004045768,1.306552e-05,5,1
-0.0002716832,9.824215e-06,5,1
-0.0001310105,9.338019e-06,5,1
9.500085e-06,1.241726e-05,5,1
0.0001406109,1.582063e-05,5,1
0.0002560015,1.808955e-05,5,1
0.0003628026,1.679302e-05,5,1
0.0004749518,1.371378e-05,5,1
0.000606711,7.555301e-06,5,1
0.0007661834,-2.168618e-06,5,1
0.0009473725,-1.270286e-05,5,1
0.001130993,-2.356124e-05,5,1
0.001277014,-3.377136e-05,5,1
0.001348323,-4.673658e-05,5,1
0.001324823,-6.504996e-05,5,1
0.001212674,-8.854943e-05,5,1
0.001037967,-0.0001130213,5,1
0.0008355473,-0.0001331174,5,1
0.0006438239,-0.0001468929,5,1
0.0004922928,-0.0001556445,5,1
0.0003892192,-0.0001639098,5,1
0.0003190449,-0.0001737958,5,1
0.0002475741,-0.0001890299,5,1
0.0001433661,-0.0002113949,5,1
-1.286493e-05,-0.0002374874,5,1
-0.0002212809,-0.0002650386,5,1
-0.0004520619,-0.0002878898,5,1
-0.0006640433,-0.000301017,5,1
-0.0008214086,-0.0003031239,5,1
-0.0009022792,-0.0002951827,5,1
-0.0009017931,-0.0002822175,5,1
-0.000837129,-0.0002682799,5,1
-0.0007363244,-0.0002566112,5,1
-0.0006306578,-0.0002428356,5,1
-0.0005447632,-0.0002256567,5,1
-0.0004836646,-0.0002045882,5,1
-0.0004407173,-0.0001818991,5,1
-0.0004045768,-0.0001603444,5,1
-0.0003632501,-0.0001447861,5,1
-0.0003016653,-0.0001373311,5,1
-0.0002120432,-0.0001336036,5,1
-9.892161e-05,-0.0001293899,5,1
3.575467e-05,-0.0001180453,5,1
0.0001897167,-9.535618e-05,5,1
0.0003543751,-5.986387e-05,5,1
0.0005195198,-1.707863e-05,5,1
0.0006733199,2.522042e-05,5,1
0.0008063756,5.795762e-05,5,1
0.0009081527,7.6271e-05,5,1
0.0009592033,7.967438e-05,5,1
0.0009404037,7.254349e-05,5,1
0.0008567779,5.893001e-05,5,1
0.0007332841,4.807163e-05,5,1
0.0006028214,4.45062e-05,5,1
0.0004862963,4.790957e-05,5,1
0.0003859779,5.406805e-05,5,1
0.0002932765,6.022653e-05,5,1
0.0002012234,6.557468e-05,5,1
0.0001153287,7.254349e-05,5,1
3.883391e-05,8.388807e-05,5,1
-2.728874e-05,0.0001015532,5,1
-8.141856e-05,0.0001239182,5,1
-0.0001243659,0.0001443384,5,1
-0.0001710407,0.0001603829,5,1
-0.0002405667,0.0001731861,5,1
-0.000335537,0.0001843686,5,1
-0.0004371519,0.0001984683,5,1
-0.0005154294,0.0002122438,5,1
-0.0005496252,0.0002219677,5,1
-0.0005337428,0.0002260194,5,1
-0.000487068,0.0002279642,5,1
-0.0004462276,0.0002307193,5,1
-0.0004434724,0.000235095,5,1
-0.0004886886,0.0002433604,5,1
-0.0005705316,0.0002529222,5,1
-0.0006676087,0.0002595669,5,1
-0.000750424,0.0002592428,5,1
-0.0007792717,0.0002495189,5,1
-0.0007267626,0.0002286124,5,1
-0.0005932208,0.0001987924,5,1
-0.0004036044,0.0001665414,5,1
-0.0001888679,0.0001365593,5,1
2.846173e-05,0.0001088461,5,1
0.0002444948,8.372601e-05,5,1
0.0004543695,6.492643e-05,5,1
0.0006366931,5.358185e-05,5,1
0.0007689385,4.969229e-05,5,1
0.0008439748,4.77475e-05,5,1
0.0008775223,4.110282e-05,5,1
0.0009063699,2.667901e-05,5,1
0.0009601758,6.096713e-06,5,1
0.001045098,-1.464765e-05,5,1
0.001142824,-3.409549e-05,5,1
0.001219967,-5.046408e-05,5,1
0.001244925,-6.310517e-05,5,1
0.001197278,-7.704279e-05,5,1
0.001066329,-0.0001002181,5,1
0.000861964,-0.0001344139,5,1
0.0006115729,-0.0001724993,5,1
0.0003543751,-0.0002039399,5,1
0.0001331559,-0.0002230636,5,1
-3.117831e-05,-0.0002267911,5,1
-0.000137169,-0.0002188499,5,1
-0.0002029675,-0.0002068571,5,1
-0.0002580697,-0.0001979435,5,1
-0.0003254889,-0.0001945401,5,1
-0.0004123559,-0.0001969711,5,1
-0.000509595,-0.0002037779,5,1
-0.0006027826,-0.0002112329,5,1
-0.0006794395,-0.0002136638,5,1
-0.0007408622,-0.0002079916,5,1
-0.0008000161,-0.0001943781,5,1
-0.0008732696,-0.0001739578,5,1
-0.0009594883,-0.0001509446,5,1
-0.001039549,-0.0001267968,5,1
-0.001094975,-0.000104918,5,1
-0.001114423,-8.514606e-05,5,1
-0.00109692,-6.91016e-05,5,1
-0.001057052,-4.754691e-05,5,1
-0.001017832,-1.950961e-05,5,1
-0.0009967634,1.679302e-05,5,1
-0.0009949806,5.374392e-05,5,1
-0.001000653,7.983644e-05,5,1
-0.001005029,8.567078e-05,5,1
-0.00100746,7.043665e-05,5,1
-0.001007784,4.239934e-05,5,1
-0.0009906049,1.160693e-05,5,1
-0.0009316131,-1.497178e-05,5,1
-0.000807471,-3.458168e-05,5,1
-0.0006277406,-4.754691e-05,5,1
-0.0004386105,-5.2733e-05,5,1
-0.000286107,-4.738484e-05,5,1
-0.0001929195,-3.474375e-05,5,1
-0.00015451,-2.242678e-05,5,1
-0.0001480274,-1.20546e-05,5,1
-0.0001524032,1.072688e-06,5,1
-0.0001572651,2.359977e-05,5,1
-0.0001655305,5.844381e-05,5,1
-0.0001870851,0.0001022015,5,1
-0.0002271153,0.0001475797,5,1
-0.0002757348,0.0001843686,5,1
-0.0003138202,0.0002070577,5,1
-0.00032322,0.0002174299,5,1
-0.0002979378,0.0002182402,5,1
-0.0002410529,0.0002138645,5,1
-0.000159372,0.0002039785,5,1
-5.629844e-05,0.000190365,5,1
5.828175e-05,0.0001770756,5,1
0.0001691344,0.0001691344,5,1
0.0002576221,0.0001697827,5,1
0.0003077003,0.0001751309,5,1
0.0003195311,0.0001842065,5,1
0.0003132105,0.0001923098,5,1
0.0003226103,0.0002013854,5,1
0.0003759298,0.0002111094,5,1
0.0004777069,0.000217592,5,1
0.0006128695,0.000215161,5,1
0.0007584042,0.0002051129,5,1
0.0008857877,0.0001939304,5,1
0.0009711962,0.0001824238,5,1
0.001010092,0.0001652449,5,1
0.001007823,0.0001398006,5,1
0.0009720065,0.0001091703,5,1
0.0009058838,7.740546e-05,5,1
0.0008133444,4.855783e-05,5,1
0.0007037881,2.862379e-05,5,1
0.0005872631,1.9224e-05,5,1
0.0004699278,1.760335e-05,5,1
0.0003684748,1.727922e-05,5,1
0.0003182346,1.257933e-05,5,1
0.0003482167,3.017472e-06,5,1
0.000458097,-1.156841e-05,5,1
0.0005981215,-2.583016e-05,5,1
0.0006930918,-3.312309e-05,5,1
0.0006872575,-3.668853e-05,5,1
0.0005775391,-3.960571e-05,5,1
0.0004002396,-4.592625e-05,5,1
0.0002132162,-5.629844e-05,5,1
6.346784e-05,-6.796714e-05,5,1
-1.967167e-05,-7.817725e-05,5,1
-2.988179e-05,-8.563225e-05,5,1
2.684107e-05,-8.952183e-05,5,1
0.0001375317,-8.968389e-05,5,1
0.0002759355,-8.919769e-05,5,1
0.0004117463,-8.935975e-05,5,1
0.0005227611,-9.033215e-05,5,1
0.0006047662,-9.2439e-05,5,1
0.0006597064,-9.875954e-05,5,1
0.0006828817,-0.0001086455,5,1
0.0006721854,-0.0001161005,5,1
0.0006235657,-0.0001195039,5,1
0.0005294057,-0.0001180453,5,1
0.0003892192,-0.0001183694,5,1
0.000220023,-0.0001258245,5,1
5.19612e-05,-0.0001452723,5,1
-8.935975e-05,-0.0001757406,5,1
-0.0001912988,-0.000206533,5,1
-0.0002506147,-0.0002303566,5,1
-0.0002655248,-0.0002428356,5,1
-0.0002483458,-0.0002515871,5,1
-0.0002199844,-0.0002663351,5,1
-0.0002019951,-0.0002862691,5,1
-0.0002042641,-0.0003096065,5,1
-0.0002272773,-0.0003295405,5,1
-0.0002632558,-0.000342992,5,1
-0.0003040963,-0.0003493125,5,1
-0.0003347266,-0.0003509331,5,1
-0.0003352128,-0.0003478539,5,1
-0.0002857829,-0.0003358611,5,1
-0.000191785,-0.0003091203,5,1
-8.757704e-05,-0.0002679557,5,1
-9.785688e-06,-0.0002199844,5,1
2.81376e-05,-0.0001739578,5,1
3.445814e-05,-0.0001323071,5,1
2.376183e-05,-9.308726e-05,5,1
9.013889e-06,-5.22468e-05,5,1
-6.868513e-06,-5.085794e-06,5,1
-1.578211e-05,5.293359e-05,5,1
-9.623623e-06,0.0001229458,5,1
8.041497e-06,0.0002013854,5,1
2.181705e-05,0.0002814457,5,1
1.306552e-05,0.0003571303,5,1
-2.680255e-05,0.0004204978,5,1
-9.081835e-05,0.0004710622,5,1
-0.0001624512,0.0005080132,5,1
-0.0002251705,0.0005329712,5,1
-0.0002632558,0.0005460985,5,1
-0.0002666592,0.0005477191,5,1
-0.0002357047,0.0005386435,5,1
-0.0001770371,0.0005174129,5,1
-0.0001086455,0.000487755,5,1
-5.192267e-05,0.0004521006,5,1
-2.210265e-05,0.0004122325,5,1
-1.869928e-05,0.000368961,5,1
-2.550602e-05,0.0003263378,5,1
-3.198864e-05,0.0002884145,5,1
-3.020592e-05,0.0002569738,5,1
-2.226472e-05,0.0002318537,5,1
-1.416145e-05,0.0002094887,5,1
-1.497178e-05,0.0001874478,5,1
-3.036798e-05,0.0001610312,5,1
-5.921561e-05,0.0001281319,5,1
-9.454585e-05,8.891209e-05,5,1
-0.0001269589,4.693717e-05,5,1
-0.0001473791,8.203562e-06,5,1
-0.0001541859,-2.145439e-05,5,1
-0.0001551583,-4.300908e-05,5,1
-0.0001585616,-5.678463e-05,5,1
-0.0001587237,-6.81292e-05,5,1
-0.0001506204,-7.947377e-05,5,1
-0.0001383035,-9.19528e-05,5,1
-0.0001412206,-0.0001037836,5,1
-0.0001780095,-0.0001114006,5,1
-0.0002475355,-0.0001135075,5,1
-0.0003322956,-0.0001130213,5,1
-0.0004060354,-0.0001133454,5,1
-0.000447362,-0.0001182074,5,1
-0.0004459034,-0.0001295519,5,1
-0.0004063595,-0.0001468929,5,1
-0.0003408851,-0.0001700683,5,1
-0.0002673075,-0.0001953505,5,1
-0.0001953505,-0.000216581,5,1
-0.0001232314,-0.0002335979,5,1
-4.236082e-05,-0.0002483458,5,1
4.985435e-05,-0.0002655248,5,1
0.0001448246,-0.0002843243,5,1
0.0002169437,-0.0002925897,5,1
0.0002448189,-0.0002805968,5,1
0.0002255332,-0.0002485079,5,1
0.0001676758,-0.0002100984,5,1
9.037068e-05,-0.0001773612,5,1
1.257933e-05,-0.0001548341,5,1
-5.257093e-05,-0.0001423551,5,1
-0.0001020008,-0.0001342519,5,1
-0.0001434896,-0.0001282554,5,1
-0.000184168,-0.0001242038,5,1
-0.0002206326,-0.0001216107,5,1
-0.0002391081,-0.0001186936,5,1
-0.0002254946,-0.0001133454,5,1
-0.0001715269,-0.0001042698,5,1
-7.704279e-05,-9.616651e-05,5,1
4.45062e-05,-9.179074e-05,5,1
0.0001671896,-8.368748e-05,5,1
0.0002660495,-6.650855e-05,5,1
0.0003205035,-4.203669e-05,5,1
0.0003201794,-1.691656e-05,5,1
0.0002704253,1.558884e-06,5,1
0.0001825859,1.014835e-05,5,1
6.930219e-05,1.047248e-05,5,1
-5.727083e-05,7.23117e-06,5,1
-0.0001830335,5.448452e-06,5,1
-0.0002818933,7.555301e-06,5,1
-0.0003149546,1.241726e-05,5,1
-0.0002446183,1.711715e-05,5,1
-6.81292e-05,1.792748e-05,5,1
0.0001688103,1.274139e-05,5,1
0.0003840331,5.448452e-06,5,1
0.0005115786,2.369211e-06,5,1
0.0005358884,1.047248e-05,5,1
0.0004866205,2.910999e-05,5,1
0.0004004017,5.19612e-05,5,1
0.0003021901,7.20573e-05,5,1
0.0001968476,8.810177e-05,5,1
8.534666e-05,0.0001009049,5,1
-3.279896e-05,0.0001122495,5,1
-0.0001574272,0.0001222976,5,1
-0.0002776796,0.0001305629,5,1
-0.0003833462,0.0001385041,5,1
-0.0004703753,0.0001479039,5,1
-0.0005272602,0.0001558451,5,1
-0.0005352014,0.0001597346,5,1
-0.000474589,0.0001571416,5,1
-0.0003517435,0.0001529279,5,1
-0.0001961608,0.0001504969,5,1
-4.090223e-05,0.000150659,5,1
9.814982e-05,0.0001509831,5,1
0.0002109473,0.0001488763,5,1
0.000299597,0.0001438522,5,1
0.0003807918,0.0001323456,5,1
0.0004702519,0.0001145184,5,1
0.0005619809,9.53947e-05,5,1
0.0006358828,8.178122e-05,5,1
0.0006838542,7.400208e-05,5,1
0.000718212,6.476436e-05,5,1
0.0007501388,4.304761e-05,5,1
0.0007736384,7.717366e-06,5,1
0.00077769,-3.344723e-05,5,1
0.0007613214,-6.877746e-05,5,1
0.0007222636,-9.260107e-05,5,1
0.0006541961,-0.0001045939,5,1
0.0005499881,-0.0001057284,5,1
0.0004083429,-0.0001007043,5,1
0.0002402811,-8.984595e-05,5,1
6.865393e-05,-7.347736e-05,5,1
-8.206682e-05,-5.565017e-05,5,1
-0.0002013469,-4.025397e-05,5,1
-0.0002874036,-2.89094e-05,5,1
-0.0003287302,-1.99958e-05,5,1
-0.0003180339,-5.57199e-06,5,1
-0.0002763831,2.068259e-05,5,1
-0.0002454286,5.601284e-05,5,1
-0.0002627696,9.053275e-05,5,1
-0.0003334301,0.0001119254,5,1
-0.0004305072,0.0001180839,5,1
-0.0005151053,0.0001128978,5,1
-0.0005617801,0.0001025256,5,1
-0.0005695592,8.972242e-05,5,1
-0.0005489769,7.513654e-05,5,1
-0.0005047331,5.666109e-05,5,1
-0.0004314796,3.575467e-05,5,1
-0.0003138202,1.517237e-05,5,1
-0.0001473791,-3.303076e-06,5,1
3.98063e-05,-1.788895e-05,5,1
0.0001979821,-3.101625e-05,5,1
0.0002791768,-4.219875e-05,5,1
0.0002694529,-5.532604e-05,5,1
0.0001968476,-7.461182e-05,5,1
0.0001065772,-9.616651e-05,5,1
3.915804e-05,-0.0001081593,5,1
1.468618e-05,-0.0001002181,5,1
3.55926e-05,-7.428769e-05,5,1
9.588091e-05,-4.155049e-05,5,1
0.000177886,-1.043395e-05,5,1
0.0002600531,1.371378e-05,5,1
0.0003333067,3.332369e-05,5,1
0.0003916502,5.001642e-05,5,1
0.0004214702,6.362991e-05,5,1
0.0004089912,7.092284e-05,5,1
0.0003508097,6.995045e-05,5,1
0.0002511395,6.200925e-05,5,1
0.0001260251,5.179914e-05,5,1
-5.247859e-06,4.191315e-05,5,1
-0.0001314967,3.235129e-05,5,1
-0.000248832,2.408596e-05,5,1
-0.0003583881,1.403791e-05,5,1
-0.0004632444,4.80019e-06,5,1
-0.0005635628,1.883015e-06,5,1
-0.0006570745,1.031041e-05,5,1
-0.0007410243,2.959619e-05,5,1
-0.0008090917,5.795762e-05,5,1
-0.0008491218,8.858796e-05,5,1
-0.0008562527,0.0001140322,5,1
-0.000836967,0.0001300767,5,1
-0.0008110365,0.0001320215,5,1
-0.0008008264,0.0001226217,5,1
-0.0008155743,0.0001065772,5,1
-0.0008458805,8.664318e-05,5,1
-0.0008752144,6.525056e-05,5,1
-0.0008936898,4.499239e-05,5,1
-0.0008998482,3.462021e-05,5,1
-0.0008964449,4.223728e-05,5,1
-0.0008868831,7.059871e-05,5,1
-0.00086938,0.0001148425,5,1
-0.0008243258,0.0001665414,5,1
-0.0007288694,0.0002145127,5,1
-0.0005711799,0.0002495189,5,1
-0.0003523917,0.0002636185,5,1
-7.639453e-05,0.0002561635,5,1
0.0002397949,0.0002329882,5,1
0.0005666808,0.0002000889,5,1
0.0008695811,0.0001616794,5,1
0.001112355,0.0001219734,5,1
0.001268262,8.502253e-05,5,1
0.001336006,5.471631e-05,5,1
0.001337789,3.18651e-05,5,1
0.001298569,1.582063e-05,5,1
0.00123358,3.827799e-06,5,1
0.00115352,-2.978945e-06,5,1
0.001064546,-7.678839e-06,5,1
0.0009737893,-1.383732e-05,5,1
0.0008840049,-2.534396e-05,5,1
0.0007895208,-4.300908e-05,5,1
0.0006872575,-6.278104e-05,5,1
0.0005747841,-8.109443e-05,5,1
0.0004504799,-9.470791e-05,5,1
0.0003218,-0.0001034594,5,1
0.0002107852,-0.0001091317,5,1
0.0001394765,-0.000117235,5,1
0.0001077117,-0.0001314967,5,1
0.0001017153,-0.0001465688,5,1
0.0001156529,-0.0001567789,5,1
0.0001517934,-0.0001601823,5,1
0.0002111094,-0.0001621271,5,1
0.0002923041,-0.0001637477,5,1
0.0003875985,-0.0001656925,5,1
0.000482893,-0.000169258,5,1
0.0005676532,-0.0001776853,5,1
0.0006376655,-0.000191623,5,1
0.0006869333,-0.0002117191,5,1
0.0007020054,-0.0002347323,5,1
0.0006676476,-0.0002548284,5,1
0.00057446,-0.0002699005,5,1
0.0004318424,-0.0002765452,5,1
0.0002613496,-0.0002773555,5,1
9.085688e-05,-0.0002788141,5,1
-4.868137e-05,-0.0002825416,5,1
-0.0001334415,-0.0002843243,5,1
-0.000159534,-0.0002836761,5,1
-0.0001467309,-0.0002757348,5,1
-0.0001360346,-0.0002585559,5,1
-0.0001681235,-0.0002311669,5,1
-0.000263742,-0.0001958367,5,1
-0.000407656,-0.000159534,5,1
-0.0005705316,-0.0001303623,5,1
-0.0007199558,-0.0001118868,5,1
-0.0008329154,-0.0001031353,5,1
-0.0009026034,-9.649064e-05,5,1
-0.0009309648,-8.709085e-05,5,1
-0.0009241581,-7.266703e-05,5,1
-0.0008920691,-5.32192e-05,5,1
-0.0008452323,-2.939559e-05,5,1
-0.0007974231,-7.100305e-07,5,1
-0.0007583653,3.202716e-05,5,1
-0.0007332452,6.346784e-05,5,1
-0.0007193076,8.907416e-05,5,1
-0.0007069906,0.0001062531,5,1
-0.0006841394,0.0001171115,5,1
-0.0006421645,0.0001244044,5,1
-0.0005823624,0.0001323456,5,1
-0.0005073262,0.0001394765,5,1
-0.0004162455,0.0001414213,5,1
-0.0003091203,0.0001417454,5,1
-0.0001869231,0.0001474177,5,1
-4.835724e-05,0.0001633001,5,1
0.00010366,0.0001866375,5,1
0.0002595669,0.0002120818,5,1
0.0003914881,0.0002289366,5,1
0.0004640934,0.0002333123,5,1
0.0004555039,0.0002237505,5,1
0.000371392,0.0002031682,5,1
0.0002336365,0.0001808031,5,1
7.108491e-05,0.0001678379,5,1
-7.817725e-05,0.0001717275,5,1
-0.000171851,0.0001926339,5,1
-0.0001822232,0.0002243987,5,1
-0.0001126972,0.000257298,5,1
3.179537e-06,0.0002791768,5,1
0.0001240803,0.000284687,5,1
0.0002221298,0.0002744769,5,1
0.000289549,0.0002534084,5,1
0.0003230965,0.0002316917,5,1
0.0003166139,0.0002148369,5,1
0.0002621599,0.0002039785,5,1
0.0001650828,0.0001968476,5,1
4.320967e-05,0.0001900409,5,1
-7.817725e-05,0.0001889064,5,1
-0.0001731475,0.0001966855,5,1
-0.0002246843,0.0002143507,5,1
-0.0002347323,0.0002360674,5,1
-0.0002152845,0.000252436,5,1
-0.0001684476,0.0002532463,5,1
-9.049421e-05,0.0002337985,5,1
9.986281e-06,0.0001987924,5,1
0.0001012291,0.0001553589,5,1
0.0001561692,0.0001146805,5,1
0.0001726999,8.097089e-05,5,1
0.0001676758,5.034055e-05,5,1
0.0001592484,1.59827e-05,5,1
0.0001598967,-2.42095e-05,5,1
0.0001777239,-6.375344e-05,5,1
0.0002051129,-9.762509e-05,5,1
0.0002193747,-0.0001267968,5,1
0.0001983062,-0.0001517549,5,1
0.000135749,-0.0001731475,5,1
5.034055e-05,-0.0001904885,5,1
-2.161646e-05,-0.0002045882,5,1
-5.030202e-05,-0.0002173914,5,1
-3.377136e-05,-0.0002259808,5,1
8.203562e-06,-0.0002258187,5,1
4.402e-05,-0.000216581,5,1
4.920609e-05,-0.0002042641,5,1
2.424803e-05,-0.0001984297,5,1
-9.461558e-06,-0.0002044261,5,1
-1.62683e-05,-0.000223874,5,1
2.700314e-05,-0.0002491561,5,1
0.0001206769,-0.0002700626,5,1
0.0002394708,-0.0002820554,5,1
0.0003376824,-0.0002852967,5,1
0.0003645853,-0.0002880518,5,1
0.0002971661,-0.0002971275,5,1
0.0001577899,-0.0003143064,5,1
1.072688e-06,-0.0003369955,5,1
-0.0001173971,-0.0003569296,5,1
-0.0001587237,-0.0003627639,5,1
-0.0001104282,-0.0003470436,5,1
1.695509e-05,-0.0003078238,5,1
0.0001871237,-0.0002527216,5,1
0.0003522683,-0.0001963229,5,1
0.0004746277,-0.0001504584,5,1
0.0005362125,-0.0001182074,5,1
0.0005402642,-9.600444e-05,5,1
0.0004997478,-7.720486e-05,5,1
0.0004344354,-5.629844e-05,5,1
0.0003613439,-3.21507e-05,5,1
0.0002850112,-6.544382e-06,5,1
0.0001999268,1.889987e-05,5,1
0.0001005808,4.596478e-05,5,1
-6.220252e-06,7.173317e-05,5,1
-9.730096e-05,9.798775e-05,5,1
-0.0001464067,0.0001242423,5,1
-0.0001374932,0.0001493625,5,1
-8.174268e-05,0.0001694586,5,1
-4.113403e-06,0.0001812893,5,1
7.481241e-05,0.0001871237,5,1
0.0001498487,0.0001887444,5,1
0.0002125679,0.0001872858,5,1
0.0002451431,0.0001775618,5,1
0.0002316917,0.0001594105,5,1
0.0001725378,0.0001394765,5,1
7.853991e-05,0.0001291043,5,1
-3.863332e-05,0.0001436902,5,1
-0.0001596961,0.0001876099,5,1
-0.0002650386,0.0002527602,5,1
-0.0003488263,0.0003151553,5,1
-0.0004164075,0.0003532407,5,1
-0.0004797751,0.0003535648,5,1
-0.0005481666,0.0003148312,5,1
-0.0006074825,0.0002451431,5,1
-0.0006269303,0.0001597346,5,1
-0.0005930586,7.594687e-05,5,1
-0.0005183466,1.533444e-05,5,1
-0.0004293727,-4.437533e-06,5,1
-0.0003483401,2.230325e-05,5,1
-0.0002843243,8.356394e-05,5,1
-0.0002347323,0.0001545486,5,1
-0.0001898403,0.000207706,5,1
-0.0001404103,0.0002299089,5,1
-8.871149e-05,0.0002239125,5,1
-4.868137e-05,0.0001958752,5,1
-2.291298e-05,0.0001592484,5,1
2.855407e-06,0.0001242423,5,1
5.115087e-05,9.814982e-05,5,1
0.0001396385,8.113296e-05,5,1
0.000267184,7.270556e-05,5,1
0.0004081808,6.978839e-05,5,1
0.0005243817,7.189524e-05,5,1
0.0005909906,7.238143e-05,5,1
0.0006099523,6.265751e-05,5,1
0.0006062248,3.850978e-05,5,1
0.0006172452,2.04508e-06,5,1
0.0006697544,-4.041603e-05,5,1
0.0007572698,-8.158062e-05,5,1
0.0008512677,-0.0001152902,5,1
0.0009264661,-0.0001363587,5,1
0.0009745996,-0.0001430034,5,1
0.0009982612,-0.0001404103,5,1
0.0009825408,-0.0001342519,5,1
0.0008932427,-0.0001293899,5,1
0.0007099467,-0.0001311726,5,1
0.0004486972,-0.0001410586,5,1
0.0001548727,-0.0001546721,5,1
-0.0001284175,-0.0001632615,5,1
-0.0003724878,-0.0001639098,5,1
-0.0005643732,-0.0001585616,5,1
-0.0007003459,-0.0001512687,5,1
-0.0007836475,-0.0001462447,5,1
-0.000819788,-0.0001449482,5,1
-0.0008139537,-0.0001475412,5,1
-0.0007737615,-0.0001483515,5,1
-0.000710556,-0.000142031,5,1
-0.0006381128,-0.0001293899,5,1
-0.0005674524,-0.0001135075,5,1
-0.0005055434,-9.875954e-05,5,1
-0.0004580583,-8.660465e-05,5,1
-0.000430021,-7.639453e-05,5,1
-0.0004233763,-6.48879e-05,5,1
-0.0004308313,-5.305713e-05,5,1
-0.0004381243,-4.462973e-05,5,1
-0.0004342347,-4.041603e-05,5,1
-0.0004209454,-3.863332e-05,5,1
-0.0004039285,-3.960571e-05,5,1
-0.0003896668,-4.106429e-05,5,1
-0.0003783222,-3.895745e-05,5,1
-0.0003674638,-3.085418e-05,5,1
-0.0003502849,-1.562004e-05,5,1
-0.0003175477,3.989864e-06,5,1
-0.0002588801,2.424803e-05,5,1
-0.0001681235,4.385793e-05,5,1
-5.338126e-05,6.346784e-05,5,1
6.022653e-05,8.145709e-05,5,1
0.000140773,9.588091e-05,5,1
0.0001683241,0.000103498,5,1
0.0001534141,0.0001012291,5,1
0.0001245665,9.118101e-05,5,1
0.0001124116,8.161915e-05,5,1
0.0001297526,7.983644e-05,5,1
0.0001723757,8.534666e-05,5,1
0.0002143507,9.426025e-05,5,1
0.0002208333,0.0001020394,5,1
0.000168,0.0001083599,5,1
5.260946e-05,0.0001088461,5,1
-0.0001052422,0.0001013911,5,1
-0.0002702246,8.826383e-05,5,1
-0.0004120317,7.67572e-05,5,1
-0.0005138087,7.20573e-05,5,1
-0.0005762039,7.254349e-05,5,1
-0.0006113721,7.691926e-05,5,1
-0.0006363301,8.129502e-05,5,1
-0.0006585331,8.242948e-05,5,1
-0.0006747396,8.210535e-05,5,1
-0.0006740913,8.648112e-05,5,1
-0.0006475127,9.831188e-05,5,1
-0.0005964621,0.0001130598,5,1
-0.0005280706,0.0001227837,5,1
-0.0004421759,0.0001190562,5,1
-0.0003269475,0.0001017153,5,1
-0.0001736337,7.335383e-05,5,1
-7.100305e-07,3.640293e-05,5,1
0.000155683,-9.137427e-06,5,1
0.0002752873,-6.083626e-05,5,1
0.0003563199,-0.0001126972,5,1
0.0004081808,-0.0001567789,5,1
0.0004448076,-0.0001844921,5,1
0.0004765725,-0.0001865989,5,1
0.0005203301,-0.0001592099,5,1
0.0005974732,-0.0001136696,5,1
0.000710757,-6.359137e-05,5,1
0.000842192,-2.42095e-05,5,1
0.0009549896,-3.303076e-06,5,1
0.001022733,5.86492e-07,5,1
0.001041046,-3.951337e-06,5,1
0.001021112,-7.678839e-06,5,1
0.0009849718,-5.409925e-06,5,1
0.0009514242,-7.100305e-07,5,1
0.0009151215,-1.196227e-06,5,1
0.0008627744,-1.140634e-05,5,1
0.0007958413,-2.971972e-05,5,1
0.0007279359,-4.511593e-05,5,1
0.0006721854,-4.689865e-05,5,1
0.0006366931,-3.020592e-05,5,1
0.000626645,-8.720959e-07,5,1
0.0006423654,3.348575e-05,5,1
0.0006729957,6.281957e-05,5,1
0.0006998986,7.90261e-05,5,1
0.0006979538,7.90261e-05,5,1
0.000643986,6.281957e-05,5,1
0.0005234093,3.526847e-05,5,1
0.0003431926,3.503668e-06,5,1
0.0001336421,-2.42095e-05,5,1
-6.294311e-05,-4.187462e-05,5,1
-0.0002075054,-4.592625e-05,5,1
-0.0002804347,-3.766092e-05,5,1
-0.0002916173,-2.372331e-05,5,1
-0.0002681178,-1.043395e-05,5,1
-0.0002373254,1.234753e-06,5,1
-0.0002130156,1.063454e-05,5,1
-0.0001974573,1.630683e-05,5,1
-0.0001895161,1.792748e-05,5,1
-0.0001998883,1.938607e-05,5,1
-0.0002287359,2.424803e-05,5,1
-0.0002605007,3.18651e-05,5,1
-0.000278652,3.899597e-05,5,1
-0.0002849726,4.142696e-05,5,1
-0.0002955068,3.218923e-05,5,1
-0.0003295405,1.193106e-05,5,1
-0.0003963114,-1.707863e-05,5,1
-0.0004843129,-4.689865e-05,5,1
-0.0005723144,-6.586029e-05,5,1
-0.0006330888,-6.926366e-05,5,1
-0.0006486471,-5.856735e-05,5,1
-0.0006214201,-3.782299e-05,5,1
-0.0005690731,-1.286493e-05,5,1
-0.00051705,7.23117e-06,5,1
-0.0004878783,1.760335e-05,5,1
-0.0004914437,2.246531e-05,5,1
-0.0005211017,2.829966e-05,5,1
-0.0005543251,4.320967e-05,5,1
-0.0005692351,6.995045e-05,5,1
-0.0005530285,0.0001054428,5,1
-0.000501978,0.0001399627,5,1
-0.0004219178,0.0001668655,5,1
-0.0003178718,0.0001811273,5,1
-0.0001948643,0.0001840444,5,1
-6.942573e-05,0.0001765894,5,1
2.700314e-05,0.0001603829,5,1
6.622294e-05,0.0001422316,5,1
3.769945e-05,0.0001274836,5,1
-5.953974e-05,0.0001214872,5,1
-0.0002154466,0.0001269974,5,1
-0.0004071698,0.0001441764,5,1
-0.0005958138,0.0001688103,5,1
-0.0007460483,0.0001923098,5,1
-0.0008359946,0.0002078681,5,1
-0.0008651663,0.0002090025,5,1
-0.0008539838,0.0001937684,5,1
-0.0008249741,0.000168,5,1
-0.0007836475,0.0001347766,5,1
-0.0007197938,9.701536e-05,5,1
-0.0006248235,5.893001e-05,5,1
-0.0005050572,2.246531e-05,5,1
-0.0003810773,-9.137427e-06,5,1
-0.0002676316,-3.198864e-05,5,1
-0.0001665028,-4.560212e-05,5,1
-6.91016e-05,-5.208474e-05,5,1
3.235129e-05,-5.662256e-05,5,1
0.0001316974,-6.0188e-05,5,1
0.0002140265,-6.683268e-05,5,1
0.0002717218,-7.752899e-05,5,1
0.0003083486,-8.773911e-05,5,1
0.0003334687,-9.29252e-05,5,1
0.0003542131,-9.875954e-05,5,1
0.0003752816,-0.00010978,5,1
0.0004002396,-0.0001232314,5,1
0.0004337872,-0.0001336036,5,1
0.0004864584,-0.0001407345,5,1
0.0005564707,-0.0001477033,5,1
0.000646417,-0.0001541859,5,1
0.0007684522,-0.0001611547,5,1
0.0009391072,-0.0001695821,5,1
0.001164702,-0.0001780095,5,1
0.001423521,-0.0001801163,5,1
0.001655599,-0.0001710407,5,1
0.001796272,-0.0001524032,5,1
0.001812317,-0.0001332795,5,1
0.001706812,-0.0001201522,5,1
0.001511523,-0.0001156143,5,1
0.001265507,-0.0001203142,5,1
0.0009982612,-0.0001313347,5,1
0.0007195085,-0.000144624,5,1
0.0004354078,-0.0001575893,5,1
0.0001628139,-0.0001697442,5,1
-7.201877e-05,-0.0001771992,5,1
-0.0002397564,-0.0001724993,5,1
-0.0003217614,-0.0001536997,5,1
-0.0003201407,-0.0001266348,5,1
-0.0002655248,-0.0001000561,5,1
-0.0002031296,-7.963584e-05,5,1
-0.0001676373,-6.958779e-05,5,1
-0.0001652063,-6.261898e-05,5,1
-0.0001789819,-5.159854e-05,5,1
-0.0001877334,-2.971972e-05,5,1
-0.0001762268,2.369211e-06,5,1
-0.0001468929,4.142696e-05,5,1
-0.0001164247,7.983644e-05,5,1
-0.000112211,0.0001086841,5,1
-0.0001533756,0.0001231079,5,1
-0.0002311669,0.0001268354,5,1
-0.0003134961,0.000123432,5,1
-0.0003685983,0.0001192183,5,1
-0.0003843186,0.0001154908,5,1
-0.0003700569,0.0001198666,5,1
-0.0003491504,0.0001347766,5,1
-0.0003400748,0.000155521,5,1
-0.0003400748,0.0001751309,5,1
-0.0003264613,0.0001895547,5,1
-0.0002733039,0.0001987924,5,1
-0.0001724993,0.0002064095,5,1
-3.701266e-05,0.0002115956,5,1
0.00010366,0.0002130541,5,1
0.0002120818,0.0002122438,5,1
0.0002581083,0.0002043026,5,1
0.000227478,0.0001861513,5,1
0.000128294,0.0001574657,5,1
-1.740276e-05,0.000123432,5,1
-0.0001759026,9.150514e-05,5,1
-0.0003078238,6.638502e-05,5,1
-0.0003890185,4.758544e-05,5,1
-0.0004180282,3.299956e-05,5,1
-0.0004134903,2.165498e-05,5,1
-0.0003969597,1.095867e-05,5,1
-0.0003771877,7.485573e-07,5,1
-0.0003512573,-9.947754e-06,5,1
-0.000318196,-2.275091e-05,5,1
-0.0002888622,-3.717473e-05,5,1
-0.0002841623,-5.127441e-05,5,1
-0.0003196545,-6.002594e-05,5,1
-0.0003886944,-6.099833e-05,5,1
-0.0004674581,-5.467778e-05,5,1
-0.0005319601,-3.944364e-05,5,1
-0.0005608077,-1.513384e-05,5,1
-0.0005502735,1.047248e-05,5,1
-0.0005087847,3.478228e-05,5,1
-0.0004518998,5.779555e-05,5,1
-0.0003890185,8.275361e-05,5,1
-0.0003143064,0.0001086841,5,1
-0.0002261429,0.0001271595,5,1
-0.0001314967,0.0001265113,5,1
-4.009191e-05,9.782569e-05,5,1
4.207521e-05,4.596478e-05,5,1
0.0001182459,-1.950961e-05,5,1
0.0001882582,-8.368748e-05,5,1
0.0002469258,-0.000132145,5,1
0.0002801492,-0.0001598582,5,1
0.0002801492,-0.0001673132,5,1
0.0002602152,-0.0001624512,5,1
0.0002401191,-0.0001538618,5,1
0.0002313675,-0.0001489998,5,1
0.0002352571,-0.0001532135,5,1
0.0002372019,-0.0001682856,5,1
0.0002159713,-0.0001919471,5,1
0.0001598967,-0.0002177155,5,1
7.983644e-05,-0.000236353,5,1
-8.651231e-06,-0.0002412149,5,1
-0.0001062146,-0.0002305186,5,1
-0.000216419,-0.0002100984,5,1
-0.0003366714,-0.000186761,5,1
-0.0004559515,-0.0001661787,5,1
-0.0005692351,-0.000151917,5,1
-0.0006761982,-0.0001425172,5,1
-0.0007808923,-0.000137169,5,1
-0.0008778074,-0.0001340898,5,1
-0.0009515471,-0.0001331174,5,1
-0.0009855808,-0.0001314967,5,1
-0.0009708329,-0.0001250141,5,1
-0.0009188099,-0.0001094559,5,1
-0.0008551183,-8.563225e-05,5,1
-0.0008026091,-6.164659e-05,5,1
-0.0007564205,-4.47918e-05,5,1
-0.0006914323,-3.63644e-05,5,1
-0.0005883588,-3.344723e-05,5,1
-0.0004407173,-3.296103e-05,5,1
-0.0002554767,-2.971972e-05,5,1
-4.965376e-05,-1.610624e-05,5,1
0.0001623277,1.355172e-05,5,1
0.0003747954,5.585077e-05,5,1
0.0005929354,0.0001017153,5,1
0.0008232304,0.0001461212,5,1
0.001062763,0.0001871237,5,1
0.001298245,0.0002219677,5,1
0.001510551,0.000249843,5,1
0.001685419,0.0002709115,5,1
0.001819772,0.0002801492,5,1
0.001920577,0.0002730183,5,1
0.002020247,0.0002509774,5,1
0.002167889,0.0002196988,5,1
0.002385868,0.0001890685,5,1
0.002637881,0.0001692965,5,1
0.002843219,0.0001718896,5,1
0.002925873,0.0002054371,5,1
0.002835116,0.0002642668,5,1
0.002565276,0.0003200173,5,1
0.0021499,0.0003461098,5,1
0.001634207,0.0003308757,5,1
0.001075566,0.0002791768,5,1
0.0005464226,0.0002073819,5,1
0.0001242423,0.0001320215,5,1
-0.0001318209,6.46023e-05,5,1
-0.0002055606,1.306552e-05,5,1
-0.0001441378,-1.173047e-05,5,1
-4.025397e-05,2.855407e-06,5,1
1.160693e-05,5.341979e-05,5,1
-3.992984e-05,0.000121001,5,1
-0.0001869231,0.0001809652,5,1
-0.0003873979,0.0002156472,5,1
-0.0005899795,0.0002243987,5,1
-0.0007512344,0.0002138645,5,1
-0.0008562527,0.0001945787,5,1
-0.0009244822,0.0001783722,5,1
-0.0009878498,0.0001759412,5,1
-0.001076175,0.0001843686,5,1
-0.001190593,0.0001950649,5,1
-0.001309874,0.000200413,5,1
-0.001407599,0.0001971717,5,1
-0.001465294,0.000187934,5,1
-0.001475018,0.0001790204,5,1
-0.001442605,0.0001709172,5,1
-0.001386854,0.0001576278,5,1
-0.001319922,0.0001274836,5,1
-0.001241968,7.562274e-05,5,1
-0.001146187,6.420843e-06,5,1
-0.0010389,-6.861539e-05,5,1
-0.0009350164,-0.0001376552,5,1
-0.0008481495,-0.0001937298,5,1
-0.0007883473,-0.0002344082,5,1
-0.0007567446,-0.0002639041,5,1
-0.0007387554,-0.0002851347,5,1
-0.0007141214,-0.0002977757,5,1
-0.0006664743,-0.0003011791,5,1
-0.0005911139,-0.0002971275,5,1
-0.0005003574,-0.0002899966,5,1
-0.0004241867,-0.0002796244,5,1
-0.0003933943,-0.000266011,5,1
-0.0004159214,-0.0002485079,5,1
-0.0004775062,-0.0002310048,5,1
-0.0005463839,-0.0002136638,5,1
-0.0005940311,-0.0001979435,5,1
-0.0006074825,-0.0001875713,5,1
-0.0005980827,-0.0001838438,5,1
-0.0005836589,-0.0001862748,5,1
-0.0005737729,-0.0001940539,5,1
-0.0005695592,-0.0002003745,5,1
-0.0005650214,-0.0001981056,5,1
-0.0005572423,-0.0001818991,5,1
-0.0005382806,-0.0001553203,5,1
-0.0004951713,-0.0001212866,5,1
-0.000415111,-8.433573e-05,5,1
-0.0003005308,-5.354332e-05,5,1
-0.0001729855,-3.490581e-05,5,1
-6.051213e-05,-2.923353e-05,5,1
3.089271e-05,-3.085418e-05,5,1
0.0001182459,-3.63644e-05,5,1
0.000225047,-3.766092e-05,5,1
0.0003582647,-3.117831e-05,5,1
0.0004956961,-1.902341e-05,5,1
0.0006101143,-4.923729e-06,5,1
0.0006770474,8.527692e-06,5,1
0.0006879058,2.424803e-05,5,1
0.0006550064,4.223728e-05,5,1
0.0006003904,6.233338e-05,5,1
0.0005439916,7.821578e-05,5,1
0.0005023408,8.615699e-05,5,1
0.0004841895,8.42122e-05,5,1
0.0004926169,7.951231e-05,5,1
0.0005170888,7.935024e-05,5,1
0.0005402642,8.648112e-05,5,1
0.00053994,9.701536e-05,5,1
0.0004984512,0.0001072255,5,1
0.000411098,0.0001171115,5,1
0.0002931144,0.0001257009,5,1
0.0001722137,0.0001338042,5,1
7.335383e-05,0.0001422316,5,1
2.531276e-06,0.0001511452,5,1
-4.560212e-05,0.0001592484,5,1
-7.866345e-05,0.0001616794,5,1
-9.762509e-05,0.0001573037,5,1
-9.827335e-05,0.0001427178,5,1
-7.493595e-05,0.0001185701,5,1
-1.934754e-05,9.150514e-05,5,1
6.78436e-05,7.108491e-05,5,1
0.0001725378,6.168512e-05,5,1
0.0002726942,5.779555e-05,5,1
0.0003509718,4.888196e-05,5,1
0.0004089912,2.910999e-05,5,1
0.0004595556,-1.358292e-06,5,1
0.0005122268,-3.539201e-05,5,1
0.0005689497,-6.618442e-05,5,1
0.0006169211,-8.692878e-05,5,1
0.0006418792,-9.568031e-05,5,1
0.0006396103,-9.065628e-05,5,1
0.0006149763,-7.526008e-05,5,1
0.0005793219,-5.743289e-05,5,1
0.0005409124,-4.625038e-05,5,1
0.0005046097,-4.268495e-05,5,1
0.0004751139,-4.219875e-05,5,1
0.0004517764,-3.863332e-05,5,1
0.0004294114,-2.501983e-05,5,1
0.0004049396,-6.220252e-06,5,1
0.0003793332,8.689758e-06,5,1
0.0003551855,1.047248e-05,5,1
0.0003323342,-5.085794e-06,5,1
0.0003055935,-3.63644e-05,5,1
0.0002637806,-7.639453e-05,5,1
0.0001880961,-0.0001195039,5,1
6.849186e-05,-0.0001592099,5,1
-8.741498e-05,-0.0001900023,5,1
-0.0002614731,-0.0002063709,5,1
-0.0004322899,-0.0002075054,5,1
-0.0005828486,-0.0001985918,5,1
-0.0006996976,-0.0001849783,5,1
-0.0007817027,-0.000169258,5,1
-0.0008376152,-0.0001525652,5,1
-0.0008799143,-0.0001405724,5,1
-0.000909086,-0.0001358725,5,1
-0.0009192961,-0.0001386276,5,1
-0.0009026034,-0.000147055,5,1
-0.0008476633,-0.0001567789,5,1
-0.0007356761,-0.0001642339,5,1
-0.0005483287,-0.0001645581,5,1
-0.0002989102,-0.0001572651,5,1
-3.701266e-05,-0.0001415448,5,1
0.0001702689,-0.0001203142,5,1
0.0002756114,-9.535618e-05,5,1
0.0002728562,-6.731888e-05,5,1
0.0001958752,-4.041603e-05,5,1
0.00010366,-1.562004e-05,5,1
5.115087e-05,4.962256e-06,5,1
7.319176e-05,2.327564e-05,5,1
0.0001767515,4.272347e-05,5,1
0.0003457857,6.654708e-05,5,1
0.0005459364,9.604298e-05,5,1
0.0007391184,0.0001278078,5,1
0.000898915,0.0001584381,5,1
0.001023057,0.0001830721,5,1
0.001135207,0.0001999268,5,1
0.0012634,0.0002133783,5,1
0.001420604,0.00022764,5,1
0.001592394,0.00024255,5,1
0.001747815,0.0002579462,5,1
0.001853482,0.0002730183,5,1
0.001884112,0.0002864697,5,1
0.001824472,0.0002927903,5,1
0.001674885,0.0002942489,5,1
0.001448479,0.0002908455,5,1
0.001166323,0.00027707,5,1
0.0008601813,0.0002534084,5,1
0.0005529052,0.0002213195,5,1
0.0002581083,0.0001819376,5,1
-1.383732e-05,0.0001368834,5,1
-0.0002532078,9.199134e-05,5,1
-0.0004475241,5.374392e-05,5,1
-0.0005883588,2.992031e-05,5,1
-0.0006770085,2.149292e-05,5,1
-0.0007227109,2.538249e-05,5,1
-0.0007356761,3.672706e-05,5,1
-0.0007314624,5.19612e-05,5,1
-0.000730328,6.816773e-05,5,1
-0.0007463724,8.016057e-05,5,1
-0.0007839716,8.696731e-05,5,1
-0.0008374532,9.21534e-05,5,1
-0.0008959587,0.000103498,5,1
-0.0009560849,0.0001291043,5,1
-0.001019128,0.0001712413,5,1
-0.001090437,0.0002203471,5,1
-0.001170659,0.0002610255,5,1
-0.001245372,0.0002806354,5,1
-0.001290588,0.0002701012,5,1
-0.001279567,0.0002341226,5,1
-0.001210527,0.0001820997,5,1
-0.001104051,0.000128456,5,1
-0.0009875257,8.340187e-05,5,1
-0.0008752144,5.212327e-05,5,1
-0.0007632272,3.640293e-05,5,1
-0.000640868,3.413401e-05,5,1
-0.0005081365,3.867184e-05,5,1
-0.0003865875,3.429608e-05,5,1
-0.0003044204,1.274139e-05,5,1
-0.000278652,-2.583016e-05,5,1
-0.0003000446,-7.282909e-05,5,1
-0.000340561,-0.0001151281,5,1
-0.0003783222,-0.0001475412,5,1
-0.0004120317,-0.000171851,5,1
-0.0004515757,-0.0001921092,5,1
-0.000496954,-0.0002096122,5,1
-0.0005340669,-0.000226467,5,1
-0.0005489769,-0.0002410529,5,1
-0.0005356876,-0.0002515871,5,1
-0.0005032745,-0.0002575835,5,1
-0.0004651892,-0.0002592042,5,1
-0.0004360174,-0.0002553146,5,1
-0.0004215936,-0.0002501286,5,1
-0.0004130042,-0.0002447804,5,1
-0.000400201,-0.0002381357,5,1
-0.0003773498,-0.000228898,5,1
-0.000345585,-0.0002183637,5,1
-0.0003050687,-0.0002058847,5,1
-0.0002572594,-0.0001904885,5,1
-0.0002023193,-0.0001734716,5,1
-0.0001431655,-0.0001572651,5,1
-8.482193e-05,-0.0001418689,5,1
-2.7937e-05,-0.0001287416,5,1
3.040651e-05,-0.0001167488,5,1
9.409818e-05,-0.0001070249,5,1
0.000160707,-9.730096e-05,5,1
0.0002229401,-8.239095e-05,5,1
0.0002735045,-6.359137e-05,5,1
0.0003099692,-4.38194e-05,5,1
0.0003352514,-2.46957e-05,5,1
0.0003512959,-7.840905e-06,5,1
0.000356482,3.341602e-06,5,1
0.0003542131,7.23117e-06,5,1
0.0003503235,1.12828e-05,5,1
0.0003542131,2.197911e-05,5,1
0.0003675024,3.818565e-05,5,1
0.0003859779,5.504044e-05,5,1
0.0004104497,6.654708e-05,5,1
0.0004456179,7.30297e-05,5,1
0.000500396,7.853991e-05,5,1
0.0005799701,8.599492e-05,5,1
0.0006802886,9.344993e-05,5,1
0.0007903311,9.717743e-05,5,1
0.0008930806,9.555677e-05,5,1
0.0009734652,8.956036e-05,5,1
0.00102484,8.534666e-05,5,1
0.001048501,8.648112e-05,5,1
0.001054822,9.296373e-05,5,1
0.001047529,9.896015e-05,5,1
0.001019492,0.0001018773,5,1
0.0009564483,0.000101067,5,1
0.0008496471,0.0001007429,5,1
0.0007060571,0.0001023635,5,1
0.0005428572,0.0001057669,5,1
0.0003749574,0.0001067393,5,1
0.0002156472,0.0001065772,5,1
6.638502e-05,0.0001090082,5,1
-6.974985e-05,0.0001153287,5,1
-0.000186761,0.0001211631,5,1
-0.0002737901,0.0001201907,5,1
-0.0003224097,0.000110953,5,1
-0.0003309991,9.782569e-05,5,1
-0.00030831,8.907416e-05,5,1
-0.0002697385,8.939829e-05,5,1
-0.0002355427,9.847395e-05,5,1
-0.0002233878,0.0001117633,5,1
-0.0002358668,0.000121001,5,1
-0.0002590421,0.0001175977,5,1
-0.0002744383,9.53947e-05,5,1
-0.0002724935,5.779555e-05,5,1
-0.0002540181,1.9224e-05,5,1
-0.0002266291,-6.544382e-06,5,1
-0.0002044261,-1.027188e-05,5,1
-0.0002023193,6.582909e-06,5,1
-0.0002271153,3.316162e-05,5,1
-0.0002799486,5.844381e-05,5,1
-0.0003523917,7.140904e-05,5,1
-0.0004271038,6.816773e-05,5,1
-0.0004859335,4.82337e-05,5,1
-0.0005141329,1.64689e-05,5,1
-0.0004953333,-2.388537e-05,5,1
-0.0004237005,-6.537409e-05,5,1
-0.0003222476,-0.0001003802,5,1
-0.0002287359,-0.0001243659,5,1
-0.0001715269,-0.000137007,5,1
-0.000151917,-0.0001400862,5,1
-0.0001507825,-0.0001344139,5,1
-0.0001455964,-0.0001259865,5,1
-0.0001350622,-0.0001209625,5,1
-0.0001310105,-0.0001258245,5,1
-0.0001402483,-0.0001394379,5,1
-0.0001515928,-0.0001543479,5,1
-0.0001378173,-0.0001640719,5,1
-8.012204e-05,-0.0001665028,5,1
2.052053e-05,-0.0001603444,5,1
0.0001401247,-0.0001473791,5,1
0.0002451431,-0.0001314967,5,1
0.0003130485,-0.0001157764,5,1
0.0003409237,-0.0001015147,5,1
0.0003357376,-8.725291e-05,5,1
0.0003146691,-6.683268e-05,5,1
0.0003078624,-4.074016e-05,5,1
0.0003438409,-1.513384e-05,5,1
0.0004295735,4.80019e-06,5,1
0.0005418848,1.906194e-05,5,1
0.0006452826,3.18651e-05,5,1
0.0007041123,4.596478e-05,5,1
0.0007063812,5.585077e-05,5,1
0.0006655407,5.601284e-05,5,1
0.0006106006,4.515445e-05,5,1
0.000569598,3.462021e-05,5,1
0.00055485,3.591673e-05,5,1
0.0005653843,5.504044e-05,5,1
0.0005841838,8.858796e-05,5,1
0.0005861287,0.0001344524,5,1
0.0005593878,0.0001824238,5,1
0.0005050959,0.0002192126,5,1
0.0004229288,0.0002359054,5,1
0.0003051073,0.0002261814,5,1
0.0001438522,0.0001934442,5,1
-4.738484e-05,0.000150659,5,1
-0.0002378116,0.0001124116,5,1
-0.0003980942,8.777764e-05,5,1
-0.0005196431,7.691926e-05,5,1
-0.0006050515,7.708133e-05,5,1
-0.000648323,8.259155e-05,5,1
-0.0006361681,9.199134e-05,5,1
-0.0005632387,0.0001018773,5,1
-0.0004420138,0.000113546,5,1
-0.0002989102,0.0001247285,5,1
-0.000159534,0.0001386662,5,1
-3.004385e-05,0.0001568175,5,1
9.231547e-05,0.0001761032,5,1
0.0002125679,0.0001932822,5,1
0.0003240689,0.000207706,5,1
0.000406074,0.0002179161,5,1
0.0004420525,0.000222616,5,1
0.0004269804,0.000220023,5,1
0.0003749574,0.0002078681,5,1
0.0003064038,0.0001863134,5,1
0.0002422259,0.0001573037,5,1
0.0002031682,0.0001198666,5,1
0.0002044647,7.497447e-05,5,1
0.0002454672,2.797553e-05,5,1
0.0003133726,-1.659243e-05,5,1
0.0003960259,-5.467778e-05,5,1
0.000483055,-8.660465e-05,5,1
0.0005452881,-0.0001144799,5,1
0.000544802,-0.0001394379,5,1
0.0004537212,-0.000159534,5,1
0.0002765838,-0.0001775233,5,1
5.260946e-05,-0.0001977815,5,1
-0.0001645581,-0.0002194982,5,1
-0.0003358611,-0.0002391081,5,1
-0.0004515757,-0.000246401,5,1
-0.0005196431,-0.0002285739,5,1
-0.0005548113,-0.0001818991,5,1
-0.0005723144,-0.0001191798,5,1
-0.0005881967,-6.359137e-05,5,1
-0.0006134789,-3.150244e-05,5,1
-0.0006492953,-2.534396e-05,5,1
-0.0006800878,-3.717473e-05,5,1
-0.0006896496,-4.949169e-05,5,1
-0.0006774947,-5.143648e-05,5,1
-0.0006630709,-4.187462e-05,5,1
-0.0006630709,-2.858527e-05,5,1
-0.0006826808,-2.437157e-05,5,1
-0.0007165525,-3.571614e-05,5,1
-0.0007554481,-6.407757e-05,5,1
-0.0007876991,-0.0001028112,5,1
-0.0008024471,-0.0001418689,5,1
-0.0007959644,-0.0001750923,5,1
-0.000772465,-0.0001977815,5,1
-0.0007372968,-0.0002104225,5,1
-0.0006857601,-0.0002144742,5,1
-0.000608617,-0.0002107467,5,1
-0.0005047331,-0.0002036158,5,1
-0.0003895047,-0.0001977815,5,1
-0.0002870794,-0.0001947022,5,1
-0.0002212809,-0.0001940539,5,1
-0.0002081536,-0.0001888679,5,1
-0.0002467252,-0.0001754164,5,1
-0.0003128478,-0.0001554824,5,1
-0.0003711913,-0.0001311726,5,1
-0.0003972838,-0.0001054042,5,1
-0.00038286,-8.336335e-05,5,1
-0.0003267854,-7.088431e-05,5,1
-0.0002326255,-6.926366e-05,5,1
-0.0001032974,-7.428769e-05,5,1
4.628891e-05,-7.898758e-05,5,1
0.0001965235,-7.396356e-05,5,1
0.0003214759,-5.419158e-05,5,1
0.0004063981,-2.080613e-05,5,1
0.0004456179,1.792748e-05,5,1
0.0004462662,5.277153e-05,5,1
0.0004310321,7.886404e-05,5,1
0.0004226047,9.409818e-05,5,1
0.000435894,0.0001007429,5,1
0.0004723587,0.0001041462,5,1
0.0005157923,0.0001101427,5,1
0.0005420469,0.0001229458,5,1
0.000532485,0.0001419075,5,1
0.0004775448,0.0001621656,5,1
0.0003820883,0.0001798307,5,1
0.0002654013,0.0001944166,5,1
0.0001548727,0.0002012234,5,1
7.448828e-05,0.0001996027,5,1
3.786152e-05,0.0001916615,5,1
4.693717e-05,0.0001833962,5,1
8.518459e-05,0.0001767515,5,1
0.0001304008,0.000173024,5,1
0.0001696206,0.0001709172,5,1
0.0002044647,0.0001696206,5,1
0.0002431983,0.0001660552,5,1
0.0002859836,0.0001590864,5,1
0.0003260137,0.0001547106,5,1
0.0003511338,0.0001561692,5,1
0.0003478926,0.0001658931,5,1
0.0003117519,0.0001827479,5,1
0.0002435224,0.0002041406,5,1
0.0001443384,0.0002234263,5,1
1.727922e-05,0.0002310434,5,1
-0.0001164247,0.0002211574,5,1
-0.0002131776,0.0001914995,5,1
-0.0002217671,0.0001443384,5,1
-0.0001195039,8.891209e-05,5,1
5.876794e-05,3.575467e-05,5,1
0.0002378501,-8.813297e-06,5,1
0.0003503235,-4.155049e-05,5,1
0.0003712299,-6.310517e-05,5,1
0.0003146691,-7.493595e-05,5,1
0.0002141886,-8.433573e-05,5,1
0.0001039842,-9.973194e-05,5,1
3.503668e-06,-0.000127121,5,1
-7.752899e-05,-0.0001622891,5,1
-0.000132145,-0.0001938919,5,1
-0.0001564548,-0.0002100984,5,1
-0.0001548341,-0.000206695,5,1
-0.0001373311,-0.0001853024,5,1
-0.0001125351,-0.0001549962,5,1
-8.968389e-05,-0.0001230693,5,1
-8.465986e-05,-8.935975e-05,5,1
-0.000119666,-4.527799e-05,5,1
-0.000206533,1.290346e-05,5,1
-0.0003309991,7.967438e-05,5,1
-0.0004593548,0.0001394765,5,1
-0.0005557837,0.0001762653,5,1
-0.0005950035,0.0001842065,5,1
-0.0005700454,0.0001642725,5,1
-0.0004893369,0.0001248906,5,1
-0.0003682741,7.756752e-05,5,1
-0.0002157707,3.18651e-05,5,1
-2.874733e-05,-7.192643e-06,5,1
0.0001889064,-4.122636e-05,5,1
0.0004127187,-6.991193e-05,5,1
0.0006021731,-9.357346e-05,5,1
0.0007293945,-0.0001096179,5,1
0.0007924379,-0.0001167488,5,1
0.0008130203,-0.0001165867,5,1
0.0008235546,-0.0001154523,5,1
0.0008600192,-0.0001138316,5,1
0.0009339211,-0.0001089697,5,1
0.001022247,-9.924574e-05,5,1
0.001079456,-9.000802e-05,5,1
0.001066977,-8.368748e-05,5,1
0.0009700617,-8.190475e-05,5,1
0.000802324,-8.40116e-05,5,1
0.0006076833,-8.644259e-05,5,1
0.0004438352,-8.611845e-05,5,1
0.0003529166,-8.012204e-05,5,1
0.0003349273,-6.667062e-05,5,1
0.0003542131,-5.030202e-05,5,1
0.0003692851,-3.701266e-05,5,1
0.0003556717,-2.728874e-05,5,1
0.0003083486,-1.99958e-05,5,1
0.0002352571,-1.156841e-05,5,1
0.0001479039,-1.520357e-06,5,1
5.649903e-05,9.500085e-06,5,1
-2.566809e-05,1.776542e-05,5,1
-8.806324e-05,2.181705e-05,5,1
-0.0001319829,2.862379e-05,5,1
-0.00016942,4.320967e-05,5,1
-0.0002169052,6.362991e-05,5,1
-0.0002865932,8.631905e-05,5,1
-0.0003796187,0.0001073875,5,1
-0.0004773441,0.0001260251,5,1
-0.0005439529,0.0001428799,5,1
-0.0005525423,0.000160545,5,1
-0.0005042469,0.000177886,5,1
-0.0004309934,0.0001906891,5,1
-0.0003648708,0.0001910133,5,1
-0.0003288923,0.0001739964,5,1
-0.0003272716,0.0001474177,5,1
-0.000348016,0.0001205148,5,1
-0.0003752429,0.0001043083,5,1
-0.0004021458,0.0001015532,5,1
-0.0004264556,0.0001075496,5,1
-0.0004484965,0.0001171115,5,1
-0.0004638926,0.0001265113,5,1
-0.00047232,0.0001373696,5,1
-0.0004706994,0.000148228,5,1
-0.0004528722,0.0001579519,5,1
-0.0004164075,0.0001647587,5,1
-0.0003708672,0.0001665414,5,1
-0.000330675,0.0001628139,5,1
-0.0003055549,0.000153252,5,1
-0.0002974516,0.0001385041,5,1
-0.0003026377,0.0001200286,5,1
-0.0003139823,0.0001004187,5,1
-0.0003269475,8.097089e-05,5,1
-0.0003402368,6.444023e-05,5,1
-0.0003588744,5.536457e-05,5,1
-0.000382698,5.1475e-05,5,1
-0.0004040906,4.628891e-05,5,1
-0.0004079801,3.380988e-05,5,1
-0.0003865875,1.290346e-05,5,1
-0.0003543365,-1.545797e-05,5,1
-0.0003348887,-4.462973e-05,5,1
-0.0003410472,-6.715681e-05,5,1
-0.0003595226,-8.158062e-05,5,1
-0.0003577399,-9.373552e-05,5,1
-0.0003086341,-0.0001105903,5,1
-0.0002104225,-0.0001365208,5,1
-9.697683e-05,-0.0001708786,5,1
-2.615429e-05,-0.000206533,5,1
-3.895745e-05,-0.0002379736,5,1
-0.0001285796,-0.0002648765,5,1
-0.0002528836,-0.000286107,5,1
-0.0003685983,-0.0003000446,5,1
-0.000452224,-0.0003011791,5,1
-0.0004929024,-0.0002911311,5,1
-0.0004891749,-0.0002720074,5,1
-0.0004489826,-0.0002472114,5,1
-0.0003830221,-0.0002198223,5,1
-0.0003029619,-0.0001982676,5,1
-0.0002211189,-0.0001885437,5,1
-0.0001481895,-0.0001919471,5,1
-9.713889e-05,-0.0002037779,5,1
-7.817725e-05,-0.000216581,5,1
-8.676672e-05,-0.0002237119,5,1
-0.0001054042,-0.0002209568,5,1
-0.0001084835,-0.0002110708,5,1
-8.060823e-05,-0.0002011848,5,1
-2.583016e-05,-0.0001932436,5,1
3.964424e-05,-0.00018433,5,1
0.0001025256,-0.00016942,5,1
0.0001602208,-0.0001400862,5,1
0.000222616,-9.503204e-05,5,1
0.000297004,-3.733679e-05,5,1
0.0003866261,2.376183e-05,5,1
0.000485324,7.708133e-05,5,1
0.0005755944,0.0001163011,5,1
0.0006410689,0.0001385041,5,1
0.0006806127,0.0001453108,5,1
0.0007026537,0.0001419075,5,1
0.0007185361,0.0001354248,5,1
