EMG1,EMG2,class,user
0.0008483506,2.424803e-05,5,1
0.0008919462,1.808955e-05,5,1
0.0009172284,6.096713e-06,5,1
0.0009404037,-4.599598e-06,5,1
0.0009943716,-5.57199e-06,5,1
0.001126455,9.175954e-06,5,1
0.001369553,4.191315e-05,5,1
0.001713781,9.085688e-05,5,1
0.002089936,0.000145635,5,1
0.002398509,0.0001923098,5,1
0.002557497,0.0002219677,5,1
0.002544207,0.0002303951,5,1
0.002381655,0.0002237505,5,1
0.002119432,0.0002068957,5,1
0.001808103,0.0001918236,5,1
0.001477975,0.0001869616,5,1
0.001140393,0.0001905271,5,1
0.000804755,0.0001939304,5,1
0.0004859722,0.0001937684,5,1
0.0002064095,0.0001851789,5,1
-3.14101e-06,0.0001678379,5,1
-0.0001255003,0.0001492004,5,1
-0.0001734716,0.0001342904,5,1
-0.0001830335,0.000120839,5,1
-0.00018433,0.0001064152,5,1
-0.0001898403,8.810177e-05,5,1
-0.0002062088,6.589881e-05,5,1
-0.0002420253,4.402e-05,5,1
-0.0003096065,2.732727e-05,5,1
-0.0004121938,2.003433e-05,5,1
-0.000541684,2.522042e-05,5,1
-0.0006800878,3.672706e-05,5,1
-0.0008045539,4.77475e-05,5,1
-0.0008881796,5.390598e-05,5,1
-0.0009074653,6.200925e-05,5,1
-0.000859494,7.57848e-05,5,1
-0.0007547998,9.21534e-05,5,1
-0.0006121824,0.0001018773,5,1
-0.0004471999,9.750156e-05,5,1
-0.0002677937,7.708133e-05,5,1
-7.60704e-05,4.35338e-05,5,1
0.0001164632,7.393236e-06,5,1
0.0002861456,-2.307504e-05,5,1
0.0004059119,-4.932962e-05,5,1
0.0004517764,-7.671866e-05,5,1
0.0004166082,-0.0001092938,5,1
0.0003096451,-0.0001430034,5,1
0.0001483901,-0.0001676373,5,1
-4.155049e-05,-0.0001752544,5,1
-0.0002274394,-0.0001707166,5,1
-0.0003833462,-0.0001639098,5,1
-0.0005057055,-0.0001618029,5,1
-0.0006102377,-0.0001632615,5,1
-0.0007176869,-0.0001626133,5,1
-0.0008287016,-0.0001587237,5,1
-0.0009241581,-0.0001506204,5,1
-0.0009778016,-0.0001374932,5,1
-0.0009748845,-0.000122097,5,1
-0.0009197823,-0.0001071869,5,1
-0.0008278913,-9.892161e-05,5,1
-0.0007172007,-0.0001016767,5,1
-0.0006042412,-0.0001144799,5,1
-0.0005027883,-0.0001361966,5,1
-0.0004112214,-0.0001613168,5,1
-0.0003173856,-0.0001828714,5,1
-0.0002149604,-0.0001968091,5,1
-0.0001109144,-0.0002039399,5,1
-1.918548e-05,-0.0002034537,5,1
5.309566e-05,-0.000194216,5,1
0.0001018773,-0.0001814128,5,1
0.000123432,-0.0001695821,5,1
0.0001200286,-0.0001580754,5,1
0.0001081979,-0.0001452723,5,1
0.0001211631,-0.000127121,5,1
0.0001911753,-0.0001016767,5,1
0.0003250413,-6.748094e-05,5,1
0.0004961824,-2.907146e-05,5,1
0.000678668,5.286387e-06,5,1
0.0008684467,3.073064e-05,5,1
0.001065356,4.758544e-05,5,1
0.001259673,5.763349e-05,5,1
0.001423197,6.249545e-05,5,1
0.001525947,6.816773e-05,5,1
0.001553498,8.178122e-05,5,1
0.001516223,0.0001064152,5,1
0.001434218,0.0001419075,5,1
0.001334709,0.0001814514,5,1
0.001235525,0.0002146748,5,1
0.001126455,0.0002313675,5,1
0.0009799477,0.0002323399,5,1
0.0007762314,0.0002305572,5,1
0.0005221128,0.000239957,5,1
0.0002453052,0.0002634565,5,1
-2.745081e-05,0.0002937627,5,1
-0.0002823795,0.0003177483,5,1
-0.0005074882,0.0003255275,5,1
-0.0006933771,0.0003166139,5,1
-0.0008372911,0.0002974902,5,1
-0.0009421473,0.0002782044,5,1
-0.001008756,0.0002692908,5,1
-0.001041493,0.0002752873,5,1
-0.001058672,0.0002916559,5,1
-0.001078282,0.0003106175,5,1
-0.001098378,0.0003229345,5,1
-0.001097082,0.0003234207,5,1
-0.001054945,0.0003114278,5,1
-0.0009750465,0.0002814457,5,1
-0.0008697041,0.0002315296,5,1
-0.0007408622,0.0001697827,5,1
-0.0005834968,0.0001140322,5,1
-0.0003979321,7.983644e-05,5,1
-0.0002019951,6.751948e-05,5,1
-3.053005e-05,6.751948e-05,5,1
8.194328e-05,6.735741e-05,5,1
0.0001320215,5.844381e-05,5,1
0.0001490383,4.272347e-05,5,1
0.0001634622,2.068259e-05,5,1
0.0001902029,-8.813297e-06,5,1
0.0002303951,-4.284701e-05,5,1
0.0002756114,-8.206682e-05,5,1
0.0003156415,-0.0001245279,5,1
0.0003423823,-0.0001614788,5,1
0.0003446512,-0.0001708786,5,1
0.0003080245,-0.0001329553,5,1
0.0002305572,-5.240886e-05,5,1
0.0001354248,3.494434e-05,5,1
5.034055e-05,8.064677e-05,5,1
-1.237873e-05,5.487838e-05,5,1
-5.856735e-05,-4.155049e-05,5,1
-0.0001063766,-0.0001770371,5,1
-0.0001749302,-0.000305879,5,1
-0.0002695764,-0.0003945287,5,1
-0.0003638984,-0.0004306693,5,1
-0.0004180282,-0.0004246728,5,1
-0.0004049009,-0.0003967976,5,1
-0.0003287302,-0.0003668155,5,1
-0.0002156086,-0.0003394265,5,1
-0.0001058904,-0.0003094444,5,1
-4.414354e-05,-0.0002684419,5,1
-5.629844e-05,-0.000213988,5,1
-0.0001384655,-0.0001533756,5,1
-0.0002525595,-0.0001010285,5,1
-0.0003378059,-6.926366e-05,5,1
-0.000350609,-6.035007e-05,5,1
-0.0002924276,-7.23429e-05,5,1
-0.0002006986,-0.0001010285,5,1
-0.0001037836,-0.0001331174,5,1
-7.840905e-06,-0.0001543479,5,1
8.826383e-05,-0.0001566169,5,1
0.0001846927,-0.0001394379,5,1
0.0002654013,-0.0001067007,5,1
0.0003089969,-6.634648e-05,5,1
0.0003028383,-2.777494e-05,5,1
0.0002485465,5.934648e-06,5,1
0.0001620036,3.494434e-05,5,1
6.719535e-05,5.795762e-05,5,1
-2.080613e-05,7.108491e-05,5,1
-0.0001010285,7.319176e-05,5,1
-0.0001814128,6.768154e-05,5,1
-0.0002695764,5.974033e-05,5,1
-0.0003734602,4.985435e-05,5,1
-0.0005000332,4.142696e-05,5,1
-0.0006441093,3.688912e-05,5,1
-0.0007836475,3.721326e-05,5,1
-0.000886721,4.72613e-05,5,1
-0.0009275614,6.719535e-05,5,1
-0.0008883416,9.474644e-05,5,1
-0.0007677651,0.0001244044,5,1
-0.0005935449,0.0001522796,5,1
-0.0004087905,0.0001803169,5,1
-0.0002454286,0.0002046267,5,1
-0.0001151281,0.0002218057,5,1
-9.623623e-06,0.000235095,5,1
9.101894e-05,0.0002472499,5,1
0.0002119197,0.0002553532,5,1
0.0003626405,0.000252436,5,1
0.0005443158,0.0002320158,5,1
0.0007532181,0.0001947408,5,1
0.0009791374,0.0001480659,5,1
0.001201329,0.000103498,5,1
0.001387867,7.400208e-05,5,1
0.001497909,5.909208e-05,5,1
0.001498234,5.082674e-05,5,1
0.001382681,3.93201e-05,5,1
0.001178154,2.116879e-05,5,1
0.0009256558,-2.238346e-07,5,1
0.0006835299,-1.464765e-05,5,1
0.0005128751,-1.173047e-05,5,1
0.0004376768,8.203562e-06,5,1
0.0004321665,4.191315e-05,5,1
0.0004401077,7.983644e-05,5,1
0.0004088291,0.0001070634,5,1
0.0003124002,0.0001122495,5,1
0.0001649207,8.810177e-05,5,1
5.772582e-06,4.02925e-05,5,1
-0.0001314967,-1.545797e-05,5,1
-0.0002310048,-6.0188e-05,5,1
-0.0002890242,-8.012204e-05,5,1
-0.0003036101,-7.509801e-05,5,1
-0.000286107,-5.483985e-05,5,1
-0.0002567732,-3.26369e-05,5,1
-0.0002335979,-2.064406e-05,5,1
-0.0002311669,-2.226472e-05,5,1
-0.0002522354,-3.166451e-05,5,1
-0.0002938862,-4.47918e-05,5,1
-0.0003483401,-6.132246e-05,5,1
-0.0004055492,-7.995997e-05,5,1
-0.000452224,-9.973194e-05,5,1
-0.0004706994,-0.0001156143,5,1
-0.0004515757,-0.0001233935,5,1
-0.0003932322,-0.000122097,5,1
-0.0003097686,-0.0001178833,5,1
-0.0002198223,-0.0001141558,5,1
-0.0001336036,-0.0001091317,5,1
-5.872941e-05,-0.0001015147,5,1
-2.238346e-07,-9.470791e-05,5,1
5.001642e-05,-9.114248e-05,5,1
0.0001088461,-8.903562e-05,5,1
0.0001744826,-8.660465e-05,5,1
0.0002289366,-8.40116e-05,5,1
0.000252436,-8.368748e-05,5,1
0.0002396328,-8.725291e-05,5,1
0.0001856651,-9.486997e-05,5,1
8.534666e-05,-0.0001037836,5,1
-5.840528e-05,-0.0001135075,5,1
-0.0002276015,-0.0001261486,5,1
-0.0003823738,-0.0001399241,5,1
-0.0004860956,-0.0001501342,5,1
-0.0005176983,-0.0001511067,5,1
-0.0004635685,-0.0001410586,5,1
-0.0003193304,-0.0001227452,5,1
-0.0001076731,-0.0001008664,5,1
0.0001218114,-7.704279e-05,5,1
0.0003252034,-5.143648e-05,5,1
0.0004982892,-2.664048e-05,5,1
0.0006647304,-3.465141e-06,5,1
0.0008535367,1.727922e-05,5,1
0.001063736,3.883391e-05,5,1
0.001250273,6.83298e-05,5,1
0.001358695,0.0001013911,5,1
0.00135594,0.0001269974,5,1
0.001235201,0.0001466074,5,1
0.001014468,0.0001671896,5,1
0.0007295565,0.0001897167,5,1
0.0004273046,0.0002094887,5,1
0.0001488763,0.0002213195,5,1
-6.81292e-05,0.0002209954,5,1
-0.0001994021,0.0002059233,5,1
-0.000238946,0.000180479,5,1
-0.0001995642,0.0001498487,5,1
-0.000127121,0.0001185701,5,1
-9.049421e-05,8.761557e-05,5,1
-0.0001583996,5.601284e-05,5,1
-0.0003475298,2.359977e-05,5,1
-0.000613803,-1.108221e-05,5,1
-0.0008820211,-4.414354e-05,5,1
-0.001081686,-6.667062e-05,5,1
-0.00117698,-7.363943e-05,5,1
-0.001166932,-6.083626e-05,5,1
-0.001065317,-2.7937e-05,5,1
-0.0008962828,1.436204e-05,5,1
-0.0007008321,5.163707e-05,5,1
-0.0005374703,7.643307e-05,5,1
-0.0004525481,8.761557e-05,5,1
-0.0004559515,8.972242e-05,5,1
-0.00052175,8.583286e-05,5,1
-0.0006108859,8.032264e-05,5,1
-0.0006901358,7.659513e-05,5,1
-0.0007368106,7.610894e-05,5,1
-0.0007329211,8.064677e-05,5,1
-0.0006731189,9.199134e-05,5,1
-0.000573935,0.0001119254,5,1
-0.0004595169,0.000140773,5,1
-0.0003510952,0.0001746447,5,1
-0.0002600145,0.0001999268,5,1
-0.000189192,0.0002049509,5,1
-0.0001378173,0.0001842065,5,1
-0.0001167488,0.0001428799,5,1
-0.0001457585,9.134307e-05,5,1
-0.0002204706,4.110282e-05,5,1
-0.0003039342,1.558884e-06,5,1
-0.0003541745,-2.599222e-05,5,1
-0.000342992,-4.819517e-05,5,1
-0.0002671454,-6.423963e-05,5,1
-0.0001546721,-7.282909e-05,5,1
-4.365734e-05,-7.850138e-05,5,1
3.60788e-05,-8.514606e-05,5,1
7.20573e-05,-9.535618e-05,5,1
6.541262e-05,-0.0001094559,5,1
2.927205e-05,-0.0001259865,5,1
-1.853722e-05,-0.0001400862,5,1
-6.715681e-05,-0.0001455964,5,1
-0.0001146419,-0.0001397621,5,1
-0.0001609926,-0.0001251762,5,1
-0.0002011848,-0.0001079973,5,1
-0.000226467,-9.308726e-05,5,1
-0.0002198223,-8.838737e-05,5,1
-0.000176713,-9.551824e-05,5,1
-0.0001104282,-0.0001102662,5,1
-4.155049e-05,-0.00012469,5,1
1.322759e-05,-0.000129714,5,1
5.390598e-05,-0.0001204763,5,1
8.761557e-05,-9.859748e-05,5,1
0.0001145184,-6.845333e-05,5,1
0.0001310491,-3.847125e-05,5,1
0.0001346145,-1.707863e-05,5,1
0.0001260251,-9.299493e-06,5,1
0.0001143563,-1.237873e-05,5,1
0.0001201907,-2.113026e-05,5,1
0.000160707,-2.84232e-05,5,1
0.0002514636,-3.296103e-05,5,1
0.0003867882,-3.020592e-05,5,1
0.0005428572,-1.707863e-05,5,1
0.0006927677,5.772582e-06,5,1
0.0008201511,2.878586e-05,5,1
0.0009230627,4.320967e-05,5,1
0.001012199,4.661304e-05,5,1
0.001113814,4.158902e-05,5,1
0.001246221,3.413401e-05,5,1
0.001398401,2.878586e-05,5,1
0.001539722,2.651694e-05,5,1
0.001629669,2.700314e-05,5,1
0.001637286,3.056858e-05,5,1
0.001559981,3.332369e-05,5,1
0.001417363,3.60788e-05,5,1
0.001241684,3.834771e-05,5,1
0.001058874,4.547859e-05,5,1
0.0008786568,5.893001e-05,5,1
0.000701033,7.789165e-05,5,1
0.0005255162,9.912221e-05,5,1
0.0003506476,0.0001222976,5,1
0.0001838824,0.000145797,5,1
4.871989e-05,0.000160707,5,1
-3.312309e-05,0.0001543865,5,1
-5.59743e-05,0.0001300767,5,1
-4.43056e-05,0.0001096565,5,1
-3.814712e-05,0.0001120874,5,1
-6.748094e-05,0.0001409351,5,1
-0.0001412206,0.0001791825,5,1
-0.0002558008,0.0002091646,5,1
-0.0004061974,0.0002205092,5,1
-0.0005732867,0.0002148369,5,1
-0.0007277349,0.0001955511,5,1
-0.000837129,0.000170431,5,1
-0.0008852624,0.0001472556,5,1
-0.0008784557,0.0001315353,5,1
-0.0008356704,0.0001276457,5,1
-0.0007753822,0.0001376938,5,1
-0.0007086112,0.0001576278,5,1
-0.0006329267,0.0001801549,5,1
-0.0005481666,0.0001932822,5,1
-0.0004567618,0.0001893926,5,1
-0.0003682741,0.0001699448,5,1
-0.0003031239,0.0001428799,5,1
-0.0002877277,0.0001130598,5,1
-0.0003272716,7.935024e-05,5,1
-0.0003924218,4.385793e-05,5,1
-0.0004335865,1.22552e-05,5,1
-0.0004159214,-9.461558e-06,5,1
-0.0003433161,-1.853722e-05,5,1
-0.0002605007,-1.513384e-05,5,1
-0.0002194982,-4.113403e-06,5,1
-0.0002494803,5.448452e-06,5,1
-0.0003442885,4.638125e-06,5,1
-0.0004739407,-1.043395e-05,5,1
-0.0006029447,-4.47918e-05,5,1
-0.0007006701,-9.276313e-05,5,1
-0.0007491275,-0.0001415448,5,1
-0.0007460483,-0.0001784957,5,1
-0.0007006701,-0.0001998883,5,1
-0.0006246614,-0.0002102605,5,1
-0.0005277464,-0.0002128535,5,1
-0.0004110594,-0.00021415,5,1
-0.0002593663,-0.0002206326,5,1
-5.791909e-05,-0.0002321393,5,1
0.0001749688,-0.0002489941,5,1
0.000383709,-0.000271197,5,1
0.0005157923,-0.0002982619,5,1
0.0005600362,-0.0003243544,5,1
0.0005506363,-0.0003425058,5,1
0.0005345919,-0.0003478539,5,1
0.0005342677,-0.0003378059,5,1
0.0005418848,-0.0003160891,5,1
0.0005334574,-0.0002890242,5,1
0.0004905101,-0.0002639041,5,1
0.0004067223,-0.0002436459,5,1
0.0002942489,-0.0002290601,5,1
0.0001714034,-0.0002149604,5,1
6.055066e-05,-0.0001987538,5,1
-1.821308e-05,-0.0001794681,5,1
-5.419158e-05,-0.0001608306,5,1
-5.532604e-05,-0.0001454344,5,1
-4.414354e-05,-0.0001280934,5,1
-4.090223e-05,-0.000107349,5,1
-5.727083e-05,-8.82253e-05,5,1
-9.098041e-05,-7.720486e-05,5,1
-0.0001306864,-7.493595e-05,5,1
-0.000169258,-7.995997e-05,5,1
-0.0002079916,-8.854943e-05,5,1
-0.0002519113,-9.681477e-05,5,1
-0.0003052308,-0.0001044318,5,1
-0.0003601709,-0.0001099421,5,1
-0.0004008493,-0.0001102662,5,1
-0.0004235384,-0.000102325,5,1
-0.0004355313,-8.692878e-05,5,1
-0.0004384484,-6.229485e-05,5,1
-0.0004207833,-2.777494e-05,5,1
-0.0003608192,1.776542e-05,5,1
-0.0002533699,6.897806e-05,5,1
-0.000122097,0.0001237561,5,1
-8.813297e-06,0.0001833962,5,1
7.432621e-05,0.000244981,5,1
0.0001516314,0.0003007315,5,1
0.0002654013,0.000346596,5,1
0.0004477248,0.0003872744,5,1
0.0006853127,0.0004311941,5,1
0.0009264661,0.0004817585,5,1
0.001112031,0.0005363746,5,1
0.00120765,0.0005853184,5,1
0.001214619,0.0006125454,5,1
0.001152872,0.0006073592,5,1
0.001040722,0.0005741358,5,1
0.0008912979,0.0005255162,5,1
0.0007195085,0.0004749518,5,1
0.0005444778,0.0004248736,5,1
0.0003804677,0.0003736609,5,1
0.0002339606,0.000316938,5,1
9.896015e-05,0.0002535705,5,1
-3.782299e-05,0.0001842065,5,1
-0.0001875713,0.0001120874,5,1
-0.0003509331,4.402e-05,5,1
-0.0005089468,-1.578211e-05,5,1
-0.0006332509,-6.407757e-05,5,1
-0.0006987253,-0.0001015147,5,1
-0.000695646,-0.0001267968,5,1
-0.0006363301,-0.0001361966,5,1
-0.0005488148,-0.0001256624,5,1
-0.0004663236,-0.0001018388,5,1
-0.0004096008,-7.688073e-05,5,1
-0.0003833462,-5.824322e-05,5,1
-0.0003763774,-4.592625e-05,5,1
-0.0003726499,-4.025397e-05,5,1
-0.0003583881,-3.911951e-05,5,1
-0.0003305129,-3.798505e-05,5,1
-0.0002899966,-3.441962e-05,5,1
-0.0002395943,-3.328516e-05,5,1
-0.0001880575,-3.879538e-05,5,1
-0.0001365208,-5.176061e-05,5,1
-7.444975e-05,-7.266703e-05,5,1
1.582063e-05,-9.681477e-05,5,1
0.0001402868,-0.0001193418,5,1
0.000289549,-0.0001340898,5,1
0.000440756,-0.0001368449,5,1
0.0005713807,-0.0001318209,5,1
0.0006653786,-0.0001358725,5,1
0.000705895,-0.0001650443,5,1
0.0006830437,-0.000224036,5,1
0.0005976353,-0.0002997205,5,1
0.0004687933,-0.0003710293,5,1
0.0003221241,-0.0004186764,5,1
0.0001963614,-0.0004319658,5,1
0.0001315353,-0.0004159214,5,1
0.0001428799,-0.0003843186,5,1
0.0001981441,-0.0003507711,5,1
0.0002367157,-0.0003203028,5,1
0.0002135403,-0.0002867553,5,1
0.0001287802,-0.0002441321,5,1
2.651694e-05,-0.000194216,5,1
-5.192267e-05,-0.0001460826,5,1
-9.940781e-05,-0.0001057284,5,1
-0.0001399241,-7.801519e-05,5,1
-0.000189192,-6.099833e-05,5,1
-0.0002429977,-4.608832e-05,5,1
-0.0002809209,-2.7937e-05,5,1
-0.0002763831,-7.192643e-06,5,1
-0.0002125294,1.257933e-05,5,1
-0.0001013526,2.81376e-05,5,1
8.527692e-06,3.688912e-05,5,1
6.265751e-05,3.640293e-05,5,1
4.045456e-05,2.959619e-05,5,1
-3.814712e-05,2.424803e-05,5,1
-0.000132145,2.748934e-05,5,1
-0.0002062088,4.564065e-05,5,1
-0.0002540181,8.307774e-05,5,1
-0.0002865932,0.0001346145,5,1
-0.000313334,0.0001934442,5,1
-0.0003378059,0.0002530843,5,1
-0.0003549848,0.0003052694,5,1
-0.0003543365,0.0003498373,5,1
-0.0003272716,0.0003927847,5,1
-0.0002639041,0.0004334631,5,1
-0.0001614788,0.0004589073,5,1
-3.895745e-05,0.0004572867,5,1
6.087479e-05,0.000425846,5,1
0.0001018773,0.0003704196,5,1
8.777764e-05,0.0003007315,5,1
6.233338e-05,0.0002278021,5,1
6.930219e-05,0.0001645966,5,1
0.0001078737,0.0001219734,5,1
0.0001475797,0.00010366,5,1
0.0001524417,0.0001086841,5,1
0.0001114392,0.0001274836,5,1
3.478228e-05,0.0001449867,5,1
-5.030202e-05,0.0001513072,5,1
-0.0001091317,0.0001487142,5,1
-0.0001068628,0.0001428799,5,1
-3.198864e-05,0.000135749,5,1
8.323981e-05,0.0001250527,5,1
0.0001770756,0.0001103047,5,1
0.000192796,9.63671e-05,5,1
0.0001140322,8.518459e-05,5,1
-3.134038e-05,7.983644e-05,5,1
-0.0001998883,7.853991e-05,5,1
-0.0003569296,7.837785e-05,5,1
-0.0004807475,7.789165e-05,5,1
-0.0005650214,6.914012e-05,5,1
-0.000611048,4.985435e-05,5,1
-0.0006264441,2.181705e-05,5,1
-0.0006163961,-1.156841e-05,5,1
-0.0005847933,-4.657452e-05,5,1
-0.0005317981,-7.882551e-05,5,1
-0.0004687546,-0.0001071869,5,1
-0.0004167317,-0.0001324691,5,1
-0.0003987424,-0.0001538618,5,1
-0.0004211074,-0.0001721751,5,1
-0.000482206,-0.0001882196,5,1
-0.0005651835,-0.000206695,5,1
-0.0006449196,-0.0002306807,5,1
-0.0006909461,-0.0002577456,5,1
-0.0006750637,-0.0002820554,5,1
-0.0005758798,-0.0002989102,5,1
-0.0003940425,-0.0003089583,5,1
-0.0001478653,-0.0003126857,5,1
0.0001299146,-0.0003092824,5,1
0.0004023465,-0.0002946965,5,1
0.0006360448,-0.0002695764,5,1
0.0008078342,-0.0002404046,5,1
0.0009133389,-0.0002173914,5,1
0.0009661721,-0.0002057227,5,1
0.0009846477,-0.0002023193,5,1
0.0009796236,-0.0002031296,5,1
0.0009400796,-0.0002011848,5,1
0.0008467299,-0.0001914609,5,1
0.0006989262,-0.0001747682,5,1
0.0005217887,-0.0001564548,5,1
0.0003543751,-0.0001467309,5,1
0.0002386605,-0.0001499722,5,1
0.0001960373,-0.0001645581,5,1
0.0002184023,-0.0001848162,5,1
0.0002701012,-0.000201509,5,1
0.0003148312,-0.0002021572,5,1
0.0003286068,-0.0001781716,5,1
0.000307052,-0.0001269589,5,1
0.0002551911,-5.435365e-05,5,1
0.0001859892,2.34377e-05,5,1
0.0001227837,8.956036e-05,5,1
9.31258e-05,0.0001294284,5,1
0.0001188942,0.0001373696,5,1
0.0002094887,0.0001200286,5,1
0.0003555096,9.377406e-05,5,1
0.0005285954,7.57848e-05,5,1
0.0006917953,7.351589e-05,5,1
0.0008026481,8.858796e-05,5,1
0.0008308475,0.0001171115,5,1
0.0007543526,0.0001543865,5,1
0.0005631154,0.0001958752,5,1
0.0002816078,0.0002367157,5,1
-2.583016e-05,0.0002767458,5,1
-0.0002791382,0.0003106175,5,1
-0.0004155972,0.0003346032,5,1
-0.000410249,0.0003459477,5,1
-0.0002799486,0.0003452995,5,1
-8.125649e-05,0.0003310377,5,1
0.0001281319,0.0003039728,5,1
0.0003096451,0.0002696149,5,1
0.0004512903,0.0002431983,5,1
0.0005605224,0.0002428742,5,1
0.0006605167,0.0002728562,5,1
0.0007763935,0.0003227724,5,1
0.0009204697,0.0003709058,5,1
0.001071029,0.0003982949,5,1
0.001184961,0.0003955397,5,1
0.001226612,0.0003678266,5,1
0.001191605,0.0003277964,5,1
0.001102956,0.0002882525,5,1
0.0009734652,0.000254867,5,1
0.0007984344,0.0002265056,5,1
0.0005752703,0.0002010613,5,1
0.0003127243,0.0001772377,5,1
3.332369e-05,0.0001571416,5,1
-0.0002382978,0.0001433661,5,1
-0.0004856094,0.0001341283,5,1
-0.0006979149,0.0001276457,5,1
-0.0008654904,0.0001166253,5,1
-0.0009799085,9.26396e-05,5,1
-0.001035983,5.828175e-05,5,1
-0.001043438,1.889987e-05,5,1
-0.001029338,-1.853722e-05,5,1
-0.001019452,-4.932962e-05,5,1
-0.001023342,-6.958779e-05,5,1
-0.001030959,-7.736692e-05,5,1
-0.001028042,-7.266703e-05,5,1
-0.001007784,-5.970181e-05,5,1
-0.0009768293,-4.787104e-05,5,1
-0.0009470092,-4.80331e-05,5,1
-0.0009225374,-6.991193e-05,5,1
-0.0009035757,-0.0001081593,5,1
-0.0008936898,-0.0001538618,5,1
-0.0009038999,-0.0001955125,5,1
-0.000939068,-0.0002261429,5,1
-0.0009941703,-0.0002441321,5,1
-0.001060617,-0.000251263,5,1
-0.001132574,-0.0002481838,5,1
-0.001204207,-0.0002324634,5,1
-0.00126255,-0.0002058847,5,1
-0.001287671,-0.000174282,5,1
-0.001265954,-0.0001452723,5,1
-0.001190918,-0.0001253383,5,1
-0.001070503,-0.0001209625,5,1
-0.0009346923,-0.0001327933,5,1
-0.0008254603,-0.0001574272,5,1
-0.0007690616,-0.0001887058,5,1
-0.0007611204,-0.0002177155,5,1
-0.0007710064,-0.0002402425,5,1
-0.0007659824,-0.0002577456,5,1
-0.0007225489,-0.0002731418,5,1
-0.0006340612,-0.0002857829,5,1
-0.0005117019,-0.0002895104,5,1
-0.0003718396,-0.0002840002,5,1
-0.0002331117,-0.0002752487,5,1
-0.0001086455,-0.0002700626,5,1
-4.761664e-06,-0.0002708729,5,1
8.275361e-05,-0.0002754107,5,1
0.0001662173,-0.0002791382,5,1
0.0002618358,-0.0002746004,5,1
0.0003885709,-0.0002634179,5,1
0.0005529052,-0.0002489941,5,1
0.0007397667,-0.000231329,5,1
0.0009156077,-0.0002052365,5,1
0.001040074,-0.0001712027,5,1
0.001074432,-0.0001319829,5,1
0.001004258,-9.033215e-05,5,1
0.0008609917,-4.527799e-05,5,1
0.0007162672,-2.238346e-07,5,1
0.0006279415,4.223728e-05,5,1
0.0006214589,8.340187e-05,5,1
0.0006932539,0.0001276457,5,1
0.000817234,0.0001739964,5,1
0.0009632549,0.0002172679,5,1
0.001100038,0.0002491947,5,1
0.001190147,0.0002660495,5,1
0.001193226,0.0002670219,5,1
0.001095987,0.0002560015,5,1
0.0009251696,0.000247412,5,1
0.0007319876,0.0002488706,5,1
0.0005666808,0.0002611876,5,1
0.0004700898,0.00027707,5,1
0.0004650658,0.0002903593,5,1
0.0005350781,0.0003000832,5,1
0.0006357207,0.0003085106,5,1
0.0007105949,0.0003130485,5,1
0.0007198326,0.0003106175,5,1
0.0006571133,0.0003021901,5,1
0.000537347,0.0002926282,5,1
0.0003769022,0.0002807975,5,1
0.00019782,0.000262322,5,1
2.603075e-05,0.0002326641,5,1
-0.0001036215,0.0001882582,5,1
-0.0001614788,0.000133318,5,1
-0.0001415448,7.724339e-05,5,1
-6.180866e-05,3.267542e-05,5,1
4.904402e-05,4.80019e-06,5,1
0.0001654069,-7.192643e-06,5,1
0.000272208,-7.030578e-06,5,1
0.0003679886,-1.196227e-06,5,1
0.0004451317,5.772582e-06,5,1
0.0004969927,1.322759e-05,5,1
0.0005238955,2.149292e-05,5,1
0.0005316747,2.635488e-05,5,1
0.0005224369,2.651694e-05,5,1
0.0005049339,2.068259e-05,5,1
0.0004982892,6.744974e-06,5,1
0.000520168,-1.594417e-05,5,1
0.0005712186,-4.511593e-05,5,1
0.0006353966,-7.623246e-05,5,1
0.000688554,-0.0001067007,5,1
0.0007091364,-0.000132145,5,1
0.0006773715,-0.0001540238,5,1
0.0005702463,-0.0001720131,5,1
0.0003765781,-0.0001859507,5,1
0.0001117633,-0.0001955125,5,1
-0.0001874093,-0.00019924,5,1
-0.0004766958,-0.0001985918,5,1
-0.0007207661,-0.0001925954,5,1
-0.0009040619,-0.0001830335,5,1
-0.001025611,-0.0001759026,5,1
-0.001093354,-0.0001762268,5,1
-0.001123012,-0.0001833576,5,1
-0.001135653,-0.0001906506,5,1
-0.00114246,-0.0001945401,5,1
-0.001153318,-0.0001987538,5,1
-0.001170821,-0.0002044261,5,1
-0.001179573,-0.0002105846,5,1
-0.001150077,-0.000213988,5,1
-0.001049272,-0.0002126914,5,1
-0.0008664628,-0.000206695,5,1
-0.0006322784,-0.0002019951,5,1
-0.0004113835,-0.0002028055,5,1
-0.0002635799,-0.0002060468,5,1
-0.000204102,-0.0002036158,5,1
-0.0001945401,-0.0001820611,5,1
-0.0001810887,-0.0001302002,5,1
-0.0001314967,-4.576419e-05,5,1
-4.673658e-05,5.666109e-05,5,1
5.455425e-05,0.0001540623,5,1
0.0001435281,0.0002279642,5,1
0.0001966855,0.0002649151,5,1
0.0002007372,0.0002666978,5,1
0.0001563313,0.0002456293,5,1
7.400208e-05,0.000217754,5,1
-2.988179e-05,0.0001934442,5,1
-0.0001339277,0.000178048,5,1
-0.0002126914,0.0001694586,5,1
-0.0002404046,0.0001650828,5,1
-0.000206695,0.0001658931,5,1
-0.0001240417,0.0001712413,5,1
-1.983374e-05,0.0001817755,5,1
7.367795e-05,0.0001976579,5,1
0.0001320215,0.0002141886,5,1
0.0001428799,0.0002221298,5,1
0.0001093323,0.0002188885,5,1
5.277153e-05,0.0002041406,5,1
1.468618e-05,0.0001832341,5,1
3.18651e-05,0.000160707,5,1
0.0001106288,0.0001394765,5,1
0.0002205092,0.0001211631,5,1
0.0003145071,0.0001017153,5,1
0.0003572923,7.90261e-05,5,1
0.0003368721,5.406805e-05,5,1
0.0002644289,3.267542e-05,5,1
0.0001676758,1.387585e-05,5,1
7.756752e-05,-3.789272e-06,5,1
1.501031e-05,-2.307504e-05,5,1
-1.351319e-05,-4.835724e-05,5,1
-8.165035e-06,-7.914964e-05,5,1
1.711715e-05,-0.0001088076,5,1
5.001642e-05,-0.0001264727,5,1
9.377406e-05,-0.0001191798,5,1
0.0001594105,-8.012204e-05,5,1
0.0002299089,-1.221667e-05,5,1
0.0002689667,6.962632e-05,5,1
0.0002480603,0.0001479039,5,1
0.0001628139,0.0002051129,5,1
3.008238e-05,0.0002346088,5,1
-0.0001298761,0.0002381743,5,1
-0.0003013411,0.000227478,5,1
-0.0004692408,0.0002114335,5,1
-0.0006113721,0.0001971717,5,1
-0.0006974287,0.0001846927,5,1
-0.0006953219,0.0001675138,5,1
-0.0005937069,0.000140773,5,1
-0.0004087905,0.0001072255,5,1
-0.0001862748,7.124698e-05,5,1
1.776542e-05,3.640293e-05,5,1
0.0001660552,7.069105e-06,5,1
0.0002717218,-1.416145e-05,5,1
0.0003746333,-2.631635e-05,5,1
0.0004960203,-3.312309e-05,5,1
0.000626645,-3.928157e-05,5,1
0.0007295565,-5.305713e-05,5,1
0.0007606731,-7.947377e-05,5,1
0.0006896885,-0.0001178833,5,1
0.0005178991,-0.0001575893,5,1
0.0002806354,-0.0001893541,5,1
2.489629e-05,-0.000208964,5,1
-0.0002031296,-0.0002188499,5,1
-0.0003707051,-0.0002237119,5,1
-0.0004706994,-0.0002266291,5,1
-0.0005167259,-0.0002251705,5,1
-0.0005215878,-0.0002196603,5,1
-0.0004888507,-0.0002120432,5,1
-0.0004245108,-0.0002071812,5,1
-0.0003467195,-0.0002071812,5,1
-0.0002802727,-0.000208964,5,1
-0.0002397564,-0.0002105846,5,1
-0.0002172293,-0.0002099363,5,1
-0.0001864369,-0.0002071812,5,1
-0.0001131834,-0.0002050744,5,1
3.672706e-05,-0.0002079916,5,1
0.0002654013,-0.0002160948,5,1
0.0005292437,-0.0002248464,5,1
0.0007550009,-0.0002290601,5,1
0.0008708776,-0.0002211189,5,1
0.0008464058,-0.0002019951,5,1
0.0006994124,-0.0001770371,5,1
0.0004856481,-0.0001549962,5,1
0.000269777,-0.0001400862,5,1
9.814982e-05,-0.0001298761,5,1
-1.270286e-05,-0.0001141558,5,1
-7.785312e-05,-8.935975e-05,5,1
-0.0001203142,-5.791909e-05,5,1
-0.0001613168,-2.145439e-05,5,1
-0.0002097743,1.322759e-05,5,1
-0.0002677937,4.77475e-05,5,1
-0.0003248407,8.518459e-05,5,1
-0.0003708672,0.0001276457,5,1
-0.0004013355,0.0001751309,5,1
-0.0004172179,0.0002243987,5,1
-0.000435045,0.0002705873,5,1
-0.0004706994,0.0003146691,5,1
-0.000524343,0.0003534027,5,1
-0.0005731247,0.0003875985,5,1
-0.000586414,0.0004128807,5,1
-0.0005470322,0.0004222805,5,1
-0.0004726442,0.0004120704,5,1
-0.0004029561,0.0003843572,5,1
-0.0003660052,0.0003389789,5,1
-0.0003598467,0.0002798251,5,1
-0.0003613053,0.0002184023,5,1
-0.0003438023,0.000165569,5,1
-0.0002971275,0.0001299146,5,1
-0.0002183637,0.0001158149,5,1
-0.0001054042,0.0001221355,5,1
3.705119e-05,0.0001430419,5,1
0.0001987924,0.0001688103,5,1
0.0003660439,0.0001861513,5,1
0.0005255162,0.000185341,5,1
0.0006742922,0.0001660552,5,1
0.0008130203,0.0001320215,5,1
0.0009382969,9.134307e-05,5,1
0.001042991,5.19612e-05,5,1
0.00111819,2.035846e-05,5,1
0.00115822,-6.706447e-06,5,1
0.00115984,-3.036798e-05,5,1
0.00112921,-4.738484e-05,5,1
0.001081725,-5.32192e-05,5,1
0.001030998,-5.289507e-05,5,1
0.0009817304,-5.289507e-05,5,1
0.0009282488,-5.889148e-05,5,1
0.000859371,-7.201877e-05,5,1
0.0007669937,-9.211487e-05,5,1
0.0006559788,-0.0001164247,5,1
0.0005334574,-0.0001363587,5,1
0.0004021844,-0.0001407345,5,1
0.000254867,-0.0001206384,5,1
8.583286e-05,-7.299116e-05,5,1
-9.227693e-05,-3.627206e-06,5,1
-0.0002585559,7.30297e-05,5,1
-0.0004006872,0.0001389903,5,1
-0.0005189948,0.0001770756,5,1
-0.0006152617,0.0001788584,5,1
-0.0006914323,0.0001469315,5,1
-0.0007510723,9.182927e-05,5,1
-0.0007964507,2.910999e-05,5,1
-0.0008267568,-2.826114e-05,5,1
-0.0008437737,-7.363943e-05,5,1
-0.0008523631,-0.0001028112,5,1
-0.0008497701,-0.0001170729,5,1
-0.0008244879,-0.0001175591,5,1
-0.0007653341,-0.0001062146,5,1
-0.000680736,-8.563225e-05,5,1
-0.0005958138,-6.48879e-05,5,1
-0.0005329325,-5.467778e-05,5,1
-0.0004946851,-6.06742e-05,5,1
-0.0004575721,-8.222889e-05,5,1
-0.0003937184,-0.0001125351,5,1
-0.0002896725,-0.0001391138,5,1
-0.0001460826,-0.0001548341,5,1
2.424803e-05,-0.0001579134,5,1
0.0002062474,-0.0001488377,5,1
0.0003879227,-0.0001313347,5,1
0.0005527431,-0.0001109144,5,1
0.0006823955,-9.130454e-05,5,1
0.0007606731,-7.23429e-05,5,1
0.0007762314,-5.257093e-05,5,1
0.0007245325,-2.923353e-05,5,1
0.0006118971,-2.006553e-06,5,1
0.0004548557,2.262738e-05,5,1
0.0002743149,3.60788e-05,5,1
9.101894e-05,3.218923e-05,5,1
-8.093236e-05,1.095867e-05,5,1
-0.0002379736,-2.064406e-05,5,1
-0.0003791325,-5.257093e-05,5,1
-0.0005102433,-7.33153e-05,5,1
-0.000613803,-7.736692e-05,5,1
-0.0006522125,-6.294311e-05,5,1
-0.0006040792,-3.766092e-05,5,1
-0.000482206,-6.868513e-06,5,1
-0.0003319715,2.635488e-05,5,1
-0.0002191741,5.601284e-05,5,1
-0.0001796301,7.351589e-05,5,1
-0.0002006986,7.513654e-05,5,1
-0.0002324634,6.217132e-05,5,1
-0.0002220912,4.72613e-05,5,1
-0.0001353863,5.325772e-05,5,1
3.413401e-05,0.0001005808,5,1
0.0002603772,0.0001858272,5,1
0.0005037994,0.0002807975,5,1
0.0007266394,0.0003506476,5,1
0.0009021563,0.0003712299,5,1
0.001021923,0.0003397893,5,1
0.001089828,0.0002728562,5,1
0.001104738,0.0001984683,5,1
0.001060008,0.0001398006,5,1
0.0009593654,0.0001051186,5,1
0.0008177201,8.810177e-05,5,1
0.0006499824,7.853991e-05,5,1
0.0004662003,6.573675e-05,5,1
0.0002713977,4.531652e-05,5,1
6.46023e-05,1.808955e-05,5,1
-0.0001571031,-8.975362e-06,5,1
-0.0003950149,-2.923353e-05,5,1
-0.0006428128,-3.847125e-05,5,1
-0.0008868831,-3.425755e-05,5,1
-0.001104051,-2.339918e-05,5,1
-0.001269033,-1.448558e-05,5,1
-0.001367731,-1.270286e-05,5,1
-0.001396416,-1.869928e-05,5,1
-0.001364652,-2.761287e-05,5,1
-0.001285726,-3.474375e-05,5,1
-0.001167904,-4.203669e-05,5,1
-0.001024152,-5.257093e-05,5,1
-0.0008748902,-6.715681e-05,5,1
-0.0007376209,-8.676672e-05,5,1
-0.000616072,-0.0001130213,5,1
-0.0004990608,-0.0001426792,5,1
-0.0003656811,-0.000174282,5,1
-0.0001974573,-0.000206533,5,1
8.527692e-06,-0.0002357047,5,1
0.000237526,-0.0002598524,5,1
0.0004627969,-0.0002767073,5,1
0.0006571133,-0.0002830278,5,1
0.0008096169,-0.0002797865,5,1
0.0009339211,-0.0002681178,5,1
0.001054822,-0.0002528836,5,1
0.001182368,-0.0002404046,5,1
0.001298407,-0.0002355427,5,1
0.001370688,-0.0002399184,5,1
0.001369553,-0.000251263,5,1
0.001296138,-0.0002663351,5,1
0.001183664,-0.0002780038,5,1
0.001073622,-0.0002780038,5,1
0.0009869165,-0.0002674695,5,1
0.0009123664,-0.000251263,5,1
0.0008195029,-0.0002318152,5,1
0.0006796404,-0.0002078295,5,1
0.0004835413,-0.0001741199,5,1
0.0002464396,-0.000127283,5,1
5.610517e-06,-7.153257e-05,5,1
-0.0001943781,-1.691656e-05,5,1
-0.0003185201,2.797553e-05,5,1
-0.0003591985,6.055066e-05,5,1
-0.0003389403,8.097089e-05,5,1
-0.0003049066,9.490851e-05,5,1
-0.0002979378,0.0001090082,5,1
-0.0003318095,0.0001219734,5,1
-0.0003990665,0.0001286181,5,1
-0.0004838267,0.0001255389,5,1
-0.0005676145,0.0001130598,5,1
-0.0006373025,9.847395e-05,5,1
-0.0006909461,8.631905e-05,5,1
-0.0007343796,8.129502e-05,5,1
-0.0007710064,8.46984e-05,5,1
-0.0007987196,9.750156e-05,5,1
-0.0008011505,0.0001187321,5,1
-0.0007606342,0.0001435281,5,1
-0.0006718224,0.0001639484,5,1
-0.0005468701,0.0001697827,5,1
-0.0004023079,0.0001579519,5,1
-0.0002485079,0.0001385041,5,1
-0.0001115627,0.000128294,5,1
-3.344723e-05,0.000140773,5,1
-4.527799e-05,0.0001743205,5,1
-0.0001502963,0.0002133783,5,1
-0.0003099306,0.0002410915,5,1
-0.000459679,0.0002490327,5,1
-0.0005423322,0.0002381743,5,1
-0.000541846,0.0002140265,5,1
-0.0004760476,0.0001861513,5,1
-0.0003692465,0.0001642725,5,1
-0.0002454286,0.0001524417,5,1
-0.0001251762,0.0001488763,5,1
-2.404744e-05,0.0001490383,5,1
6.087479e-05,0.0001537382,5,1
0.0001477418,0.0001637863,5,1
0.000252274,0.0001764274,5,1
0.0003616681,0.0001892305,5,1
0.0004449697,0.00019782,5,1
0.0004806241,0.0002008992,5,1
0.0004700898,0.0002049509,5,1
0.0004311941,0.000217754,5,1
0.0003757678,0.0002394708,5,1
0.0003049452,0.0002632944,5,1
0.0002209954,0.0002785285,5,1
0.0001245665,0.000277232,5,1
2.165498e-05,0.0002610255,5,1
-7.60704e-05,0.0002326641,5,1
-0.0001489998,0.0001947408,5,1
-0.0001822232,0.0001508211,5,1
-0.0001796301,0.0001025256,5,1
-0.0001622891,5.325772e-05,5,1
-0.0001441378,1.160693e-05,5,1
-0.0001240417,-1.62683e-05,5,1
-8.547019e-05,-3.425755e-05,5,1
-1.67545e-05,-5.208474e-05,5,1
7.270556e-05,-7.769106e-05,5,1
0.0001584381,-0.0001136696,5,1
0.0002159713,-0.0001549962,5,1
0.0002320158,-0.0001955125,5,1
0.0002054371,-0.0002276015,5,1
0.0001446626,-0.0002478596,5,1
6.849186e-05,-0.0002569353,5,1
-1.034161e-06,-0.0002600145,5,1
-4.819517e-05,-0.0002645523,5,1
-6.229485e-05,-0.0002742763,5,1
-5.095028e-05,-0.0002877277,5,1
-3.393342e-05,-0.0003000446,5,1
-3.279896e-05,-0.0003078238,5,1
-6.213279e-05,-0.0003023136,5,1
-0.0001180453,-0.0002724935,5,1
-0.0001836818,-0.0002107467,5,1
-0.0002395943,-0.0001229073,5,1
-0.0002671454,-2.89094e-05,5,1
-0.0002558008,4.82337e-05,5,1
-0.0002102605,9.199134e-05,5,1
-0.0001483515,0.0001017153,5,1
-9.19528e-05,9.16672e-05,5,1
-5.402952e-05,7.335383e-05,5,1
-4.155049e-05,5.309566e-05,5,1
-5.856735e-05,3.299956e-05,5,1
-0.0001041077,1.371378e-05,5,1
-0.0001676373,-2.654814e-06,5,1
-0.0002279256,-1.562004e-05,5,1
-0.0002640662,-2.550602e-05,5,1
-0.0002617972,-3.279896e-05,5,1
-0.0002147983,-3.766092e-05,5,1
-0.0001324691,-4.138842e-05,5,1
-3.328516e-05,-4.592625e-05,5,1
6.735741e-05,-4.608832e-05,5,1
0.0001668655,-3.814712e-05,5,1
0.0002655633,-2.275091e-05,5,1
0.000354051,-5.085794e-06,5,1
0.0004190393,1.322759e-05,5,1
0.0004472386,2.862379e-05,5,1
0.0004365423,3.705119e-05,5,1
0.0004034809,3.834771e-05,5,1
0.0003781987,3.380988e-05,5,1
0.0003969983,2.927205e-05,5,1
0.000478031,3.154097e-05,5,1
0.0006059006,4.191315e-05,5,1
0.0007417115,5.682316e-05,5,1
0.0008512677,7.076078e-05,5,1
0.0009125285,8.46984e-05,5,1
0.0009146354,0.0001002567,5,1
0.0008538608,0.0001200286,5,1
0.0007363633,0.0001433661,5,1
0.000579646,0.0001678379,5,1
0.0004094774,0.000187934,5,1
0.0002543808,0.0001992786,5,1
0.000135749,0.0002008992,5,1
5.957827e-05,0.0001947408,5,1
1.857574e-05,0.0001816135,5,1
1.306552e-05,0.0001649207,5,1
2.975825e-05,0.0001430419,5,1
2.748934e-05,0.0001205148,5,1
-4.544006e-05,0.0001022015,5,1
-0.000209126,8.972242e-05,5,1
-0.0004322899,8.04847e-05,5,1
-0.0006601537,7.465034e-05,5,1
-0.0008462047,7.286763e-05,5,1
-0.0009570573,7.189524e-05,5,1
-0.0009664571,6.995045e-05,5,1
-0.0008648421,6.525056e-05,5,1
-0.0006818705,5.99024e-05,5,1
-0.0004843129,5.56887e-05,5,1
-0.0003428299,5.309566e-05,5,1
-0.0003104168,5.244739e-05,5,1
-0.0004006872,4.82337e-05,5,1
-0.0005724764,3.510641e-05,5,1
-0.000752855,1.501031e-05,5,1
-0.0008580354,-5.085794e-06,5,1
-0.000827243,-2.161646e-05,5,1
-0.0006467023,-3.522994e-05,5,1
-0.0003507711,-4.592625e-05,5,1
6.582909e-06,-5.791909e-05,5,1
0.0003780367,-7.428769e-05,5,1
0.0007276118,-9.584238e-05,5,1
0.001023219,-0.0001225832,5,1
0.00124849,-0.0001540238,5,1
0.001394836,-0.0001885437,5,1
0.001465982,-0.0002230636,5,1
0.001479272,-0.0002580697,5,1
0.001460148,-0.0002914552,5,1
0.001429031,-0.0003152788,5,1
0.00139208,-0.0003203028,5,1
0.001334547,-0.0003052308,5,1
0.00123666,-0.0002773555,5,1
0.001088045,-0.0002499665,5,1
0.000896322,-0.0002298704,5,1
0.0006746164,-0.00021415,5,1
0.0004349216,-0.000196647,5,1
0.0001916615,-0.0001736337,5,1
-3.911951e-05,-0.0001489998,5,1
-0.0002476975,-0.000129714,5,1
-0.0004277521,-0.0001173971,5,1
-0.0005749074,-0.0001083214,5,1
-0.0006877048,-9.989401e-05,5,1
-0.0007648479,-9.389759e-05,5,1
-0.0008069849,-9.049421e-05,5,1
-0.0008215707,-8.854943e-05,5,1
-0.0008201121,-8.919769e-05,5,1
-0.0008116848,-9.081835e-05,5,1
-0.0007961266,-8.968389e-05,5,1
-0.0007641996,-8.336335e-05,5,1
-0.0007149318,-7.169464e-05,5,1
-0.0006548056,-5.808115e-05,5,1
-0.0005872243,-4.592625e-05,5,1
-0.0005123502,-3.490581e-05,5,1
-0.0004384484,-2.388537e-05,5,1
-0.0003734602,-1.497178e-05,5,1
-0.0003295405,-5.57199e-06,5,1
-0.0003177098,4.313994e-06,5,1
-0.0003397507,1.517237e-05,5,1
-0.0003830221,2.359977e-05,5,1
-0.0004228902,3.380988e-05,5,1
-0.0004343968,5.001642e-05,5,1
-0.0004032803,7.20573e-05,5,1
-0.0003373197,0.0001007429,5,1
-0.000251101,0.0001339663,5,1
-0.0001627754,0.0001688103,5,1
-8.465986e-05,0.000200413,5,1
-1.967167e-05,0.000220023,5,1
3.202716e-05,0.0002248849,5,1
7.351589e-05,0.0002190506,5,1
0.0001083599,0.0002060853,5,1
0.0001422316,0.0001924718,5,1
0.0001808031,0.0001885823,5,1
0.0002232643,0.0002025199,5,1
0.0002624841,0.0002337985,5,1
0.0002833905,0.0002739907,5,1
0.0002735045,0.0003106175,5,1
0.0002261814,0.0003321722,5,1
0.0001440143,0.0003255275,5,1
3.915804e-05,0.0002872801,5,1
-7.104638e-05,0.0002219677,5,1
-0.0001713648,0.0001404489,5,1
-0.0002517492,5.925414e-05,5,1
-0.0003121996,-3.465141e-06,5,1
-0.0003546606,-3.944364e-05,5,1
-0.0003765395,-4.38194e-05,5,1
-0.0003763774,-2.031993e-05,5,1
-0.0003536883,2.295151e-05,5,1
-0.0003115513,7.756752e-05,5,1
-0.0002648765,0.000138342,5,1
-0.0002345703,0.000195389,5,1
-0.0002305186,0.0002337985,5,1
-0.0002486699,0.00024255,5,1
-0.0002814071,0.0002229401,5,1
-0.00032322,0.0001845306,5,1
-0.0003716775,0.0001393144,5,1
-0.0004303451,9.085688e-05,5,1
-0.0004988988,4.207521e-05,5,1
-0.0005638869,-4.599598e-06,5,1
-0.0006125065,-4.608832e-05,5,1
-0.0006332509,-7.833932e-05,5,1
-0.0006159099,-9.794922e-05,5,1
-0.0005494631,-0.0001079973,5,1
-0.0004241867,-0.0001091317,5,1
-0.0002460769,-0.0001024871,5,1
-4.300908e-05,-8.757704e-05,5,1
0.0001511452,-6.893953e-05,5,1
0.0003162898,-5.240886e-05,5,1
0.0004495075,-4.300908e-05,5,1
0.0005640878,-4.738484e-05,5,1
0.0006770474,-6.764301e-05,5,1
0.0007904932,-9.697683e-05,5,1
0.0009078286,-0.0001274451,5,1
0.001035212,-0.0001536997,5,1
0.001175723,-0.0001749302,5,1
0.001320609,-0.000191785,5,1
0.001446048,-0.0002028055,5,1
0.001521085,-0.0002112329,5,1
0.001523192,-0.0002207947,5,1
0.001438107,-0.0002316531,5,1
0.001269559,-0.0002407288,5,1
0.001045422,-0.000243808,5,1
0.0008029722,-0.0002408908,5,1
0.0005636016,-0.0002297083,5,1
0.0003274723,-0.0002117191,5,1
8.680524e-05,-0.0001856265,5,1
-0.0001498101,-0.0001538618,5,1
-0.0003587123,-0.0001186936,5,1
-0.0005110537,-8.222889e-05,5,1
-0.0005916001,-4.706071e-05,5,1
-0.0006055377,-1.772689e-05,5,1
-0.0005731247,1.883015e-06,5,1
-0.0005191569,1.257933e-05,5,1
-0.0004663236,2.084466e-05,5,1
-0.0004305072,2.894792e-05,5,1
-0.0004196489,3.850978e-05,5,1
-0.0004254832,5.017848e-05,5,1
-0.0004290486,6.298164e-05,5,1
-0.000422566,7.935024e-05,5,1
-0.0004130042,0.0001005808,5,1
-0.0004089525,0.0001227837,5,1
-0.0004112214,0.0001419075,5,1
-0.0004134903,0.0001539003,5,1
-0.0004070078,0.0001574657,5,1
-0.0003869116,0.000153252,5,1
-0.0003546606,0.000143204,5,1
-0.0003146305,0.0001339663,5,1
-0.0002729798,0.0001295905,5,1
-0.0002368392,0.0001341283,5,1
-0.0002086398,0.0001470936,5,1
-0.0001887058,0.0001620036,5,1
-0.0001754164,0.0001761032,5,1
-0.0001697442,0.0001889064,5,1
-0.0001720131,0.0001979821,5,1
-0.0001831956,0.0002047888,5,1
-0.000199078,0.0002107852,5,1
-0.0002154466,0.0002143507,5,1
-0.0002284118,0.0002149989,5,1
-0.0002326255,0.0002133783,5,1
-0.0002219292,0.0002054371,5,1
-0.0001849783,0.0001923098,5,1
-0.0001110765,0.0001772377,5,1
2.855407e-06,0.0001626518,5,1
0.000145635,0.0001483901,5,1
0.0002898731,0.0001312112,5,1
0.0004088291,0.0001062531,5,1
0.0004935893,7.189524e-05,5,1
0.0005464226,3.024445e-05,5,1
0.0005700842,-1.399939e-05,5,1
0.000567167,-6.035007e-05,5,1
0.0005352402,-0.000102325,5,1
0.0004673347,-0.0001331174,5,1
0.000356482,-0.0001465688,5,1
0.0002128921,-0.0001465688,5,1
5.828175e-05,-0.0001425172,5,1
-7.688073e-05,-0.0001452723,5,1
-0.0001609926,-0.0001571031,5,1
-0.0001776853,-0.0001699062,5,1
-0.0001365208,-0.000171851,5,1
-6.974985e-05,-0.0001622891,5,1
-1.075808e-05,-0.0001475412,5,1
2.586868e-05,-0.0001404103,5,1
4.223728e-05,-0.0001493239,5,1
4.35338e-05,-0.0001720131,5,1
3.18651e-05,-0.0002006986,5,1
-1.682422e-06,-0.0002230636,5,1
-6.213279e-05,-0.0002300324,5,1
-0.0001426792,-0.0002243602,5,1
-0.0002331117,-0.0002144742,5,1
-0.0003206269,-0.000208964,5,1
-0.0003955011,-0.0002110708,5,1
-0.0004387725,-0.0002248464,5,1
-0.0004246728,-0.0002415391,5,1
-0.000333268,-0.0002491561,5,1
-0.0001736337,-0.0002426735,5,1
1.290346e-05,-0.0002237119,5,1
0.0001657311,-0.0001951884,5,1
0.0002378501,-0.0001583996,5,1
0.0002171058,-0.0001089697,5,1
0.0001273216,-3.766092e-05,5,1
1.582063e-05,5.439218e-05,5,1
-6.650855e-05,0.0001487142,5,1
-7.55842e-05,0.0002206712,5,1
1.883015e-06,0.0002619979,5,1
0.0001385041,0.0002814457,5,1
0.0002764217,0.0002882525,5,1
0.0003529166,0.0002795009,5,1
0.0003294171,0.0002509774,5,1
0.0002124059,0.0002059233,5,1
4.904402e-05,0.0001568175,5,1
-9.681477e-05,0.0001150046,5,1
-0.0001746061,8.664318e-05,5,1
-0.0001645581,7.270556e-05,5,1
-7.477388e-05,7.092284e-05,5,1
7.772959e-05,7.983644e-05,5,1
0.0002550291,9.896015e-05,5,1
0.0004115842,0.000121001,5,1
0.0005016926,0.0001352628,5,1
0.0005086614,0.0001389903,5,1
0.0004572867,0.0001368834,5,1
0.0004078567,0.0001367214,5,1
0.0004117463,0.000138342,5,1
0.0004773828,0.0001375317,5,1
0.0005755944,0.0001316974,5,1
0.0006639201,0.000120839,5,1
0.0007120535,0.0001067393,5,1
0.0007084881,9.717743e-05,5,1
0.0006566271,9.588091e-05,5,1
0.0005665187,0.000103498,5,1
0.0004512903,0.0001150046,5,1
0.0003276344,0.0001255389,5,1
0.0002117576,0.0001323456,5,1
0.0001128978,0.0001352628,5,1
3.251336e-05,0.0001362352,5,1
-3.296103e-05,0.0001363972,5,1
-9.486997e-05,0.0001391524,5,1
-0.0001592099,0.0001446626,5,1
-0.0002147983,0.0001513072,5,1
-0.0002473734,0.000158114,5,1
-0.0002452666,0.0001618415,5,1
-0.0002052365,0.0001590864,5,1
-0.0001400862,0.0001492004,5,1
-7.282909e-05,0.0001342904,5,1
-3.020592e-05,0.0001195424,5,1
-3.150244e-05,0.0001051186,5,1
-8.093236e-05,8.84259e-05,5,1
-0.000164396,6.622294e-05,5,1
-0.0002601766,3.93201e-05,5,1
-0.0003450988,1.095867e-05,5,1
-0.0004143007,-1.464765e-05,5,1
-0.0004810716,-3.798505e-05,5,1
-0.0005690731,-5.824322e-05,5,1
-0.0006865704,-7.444975e-05,5,1
-0.0008202742,-8.595638e-05,5,1
-0.0009474955,-9.454585e-05,5,1
-0.001044897,-0.0001029732,5,1
-0.001095299,-0.0001086455,5,1
-0.001088492,-0.0001161005,5,1
-0.001031121,-0.0001298761,5,1
-0.0009371233,-0.0001517549,5,1
-0.0008178432,-0.0001788198,5,1
-0.0006839773,-0.0002079916,5,1
-0.0005457356,-0.0002297083,5,1
-0.0004152731,-0.0002355427,5,1
-0.0003052308,-0.0002243602,5,1
-0.0002196603,-0.000201509,5,1
-0.0001579134,-0.0001750923,5,1
-0.0001161005,-0.0001493239,5,1
-7.850138e-05,-0.000129714,5,1
-2.258885e-05,-0.0001164247,5,1
7.011252e-05,-0.0001068628,5,1
0.0002041406,-9.778715e-05,5,1
0.0003730126,-8.935975e-05,5,1
0.0005529052,-8.109443e-05,5,1
0.0007143224,-7.428769e-05,5,1
0.0008387887,-6.991193e-05,5,1
0.0009201455,-7.23429e-05,5,1
0.0009504518,-7.931171e-05,5,1
0.0009203076,-9.000802e-05,5,1
0.0008352232,-0.0001044318,5,1
0.0007250187,-0.0001212866,5,1
0.0006341,-0.0001423551,5,1
0.0005927734,-0.0001671511,5,1
0.0005955285,-0.0001890299,5,1
0.0006151384,-0.0002031296,5,1
0.000626807,-0.0002083157,5,1
0.0006104385,-0.0002079916,5,1
0.0005550121,-0.000204102,5,1
0.0004597176,-0.0001968091,5,1
0.0003451374,-0.000186761,5,1
0.0002388225,-0.0001757406,5,1
0.0001553589,-0.000166827,5,1
9.571884e-05,-0.0001611547,5,1
5.779555e-05,-0.0001572651,5,1
4.158902e-05,-0.0001501342,5,1
4.807163e-05,-0.000137007,5,1
7.043665e-05,-0.0001230693,5,1
9.247754e-05,-0.0001118868,5,1
8.923623e-05,-0.000104756,5,1
3.170304e-05,-9.66527e-05,5,1
-9.535618e-05,-7.963584e-05,5,1
-0.0002830278,-4.884343e-05,5,1
-0.0005026262,-5.734056e-06,5,1
-0.0007183352,4.466826e-05,5,1
-0.0008922312,9.701536e-05,5,1
-0.0009936841,0.0001428799,5,1
-0.001018318,0.0001814514,5,1
-0.0009940083,0.00021273,5,1
-0.0009531678,0.0002412535,5,1
-0.0009124894,0.0002684805,5,1
-0.0008713248,0.0002939248,5,1
-0.0008241638,0.0003120761,5,1
-0.0007706822,0.0003185587,5,1
-0.0007090974,0.0003133726,5,1
-0.0006238511,0.0003031625,5,1
-0.0004927403,0.0002944109,5,1
-0.0003164132,0.0002952213,5,1
-0.0001219349,0.0003075383,5,1
4.77475e-05,0.0003277964,5,1
0.0001558451,0.0003474063,5,1
0.0001795066,0.0003587509,5,1
0.000120839,0.0003571303,5,1
9.013889e-06,0.0003394651,5,1
-0.0001105903,0.0003067279,5,1
-0.0001935677,0.0002676702,5,1
-0.0002118811,0.0002286124,5,1
-0.0001606685,0.0001902029,5,1
-5.208474e-05,0.0001526038,5,1
8.858796e-05,0.0001180839,5,1
0.0002357433,9.037068e-05,5,1
0.0003814401,7.189524e-05,5,1
0.0005318367,5.925414e-05,5,1
0.0007013571,4.871989e-05,5,1
0.000898915,4.02925e-05,5,1
0.001108952,3.737532e-05,5,1
0.001295813,4.142696e-05,5,1
0.00141947,4.985435e-05,5,1
0.001456258,5.666109e-05,5,1
0.001406991,5.455425e-05,5,1
0.001294679,4.061663e-05,5,1
0.001152872,1.695509e-05,5,1
0.001018033,-6.058186e-06,5,1
0.0009149595,-2.356124e-05,5,1
0.0008491609,-3.620233e-05,5,1
0.0008152892,-4.80331e-05,5,1
0.0007989206,-5.986387e-05,5,1
0.0007674799,-7.120844e-05,5,1
0.0006726716,-8.40116e-05,5,1
0.0004785172,-0.0001013526,5,1
0.0001811273,-0.0001206384,5,1
-0.000189192,-0.0001349001,5,1
-0.0005809038,-0.000142031,5,1
-0.0009355026,-0.0001430034,5,1
-0.001209555,-0.0001475412,5,1
-0.001376158,-0.0001571031,5,1
-0.001438391,-0.0001671511,5,1
-0.001414243,-0.0001739578,5,1
-0.001316356,-0.000176875,5,1
-0.001161584,-0.0001778474,5,1
-0.0009844464,-0.0001802784,5,1
-0.0008363187,-0.0001827094,5,1
-0.0007496137,-0.0001888679,5,1
-0.0007113663,-0.0001974573,5,1
-0.0006833291,-0.0002037779,5,1
-0.00062612,-0.000201671,5,1
-0.0005232086,-0.0001890299,5,1
-0.0003656811,-0.0001724993,5,1
-0.0001462447,-0.0001571031,5,1
0.000123432,-0.000144624,5,1
0.0004026706,-0.0001332795,5,1
0.0006394482,-0.0001214487,5,1
0.0008002172,-0.0001042698,5,1
0.000876712,-7.963584e-05,5,1
0.0008793051,-4.965376e-05,5,1
0.0008267959,-1.67545e-05,5,1
0.0007462493,1.257933e-05,5,1
0.0006679717,3.55926e-05,5,1
0.000616759,5.179914e-05,5,1
0.0005986077,6.492643e-05,5,1
0.0005898562,7.853991e-05,5,1
0.0005608465,9.280167e-05,5,1
0.0004895377,0.0001052807,5,1
0.0003707437,0.0001143563,5,1
0.0002137024,0.0001193804,5,1
3.348575e-05,0.0001221355,5,1
-0.0001533756,0.0001248906,5,1
-0.0003352128,0.0001281319,5,1
-0.0004950092,0.000128456,5,1
-0.000616234,0.0001245665,5,1
-0.0006901358,0.0001169494,5,1
-0.00071558,0.0001094944,5,1
-0.0007026148,0.000103498,5,1
-0.0006648536,0.0001007429,5,1
-0.0006133168,0.0001002567,5,1
-0.0005497872,0.0001026876,5,1
-0.0004763717,0.0001098185,5,1
-0.0003959873,0.0001218114,5,1
-0.0003076617,0.0001375317,5,1
-0.0002071812,0.0001560072,5,1
-9.033215e-05,0.0001739964,5,1
4.126489e-05,0.0001858272,5,1
0.0001777239,0.0001858272,5,1
0.0003128864,0.0001765894,5,1
0.0004436732,0.0001620036,5,1
0.0005636016,0.0001509831,5,1
0.0006593822,0.0001477418,5,1
0.0007086502,0.0001483901,5,1
0.0006872575,0.0001449867,5,1
0.0005845079,0.0001326697,5,1
0.0004123946,0.0001112771,5,1
0.0001937684,8.550872e-05,5,1
-4.252288e-05,5.487838e-05,5,1
-0.0002527216,1.582063e-05,5,1
-0.0003799429,-2.923353e-05,5,1
-0.0003890185,-7.266703e-05,5,1
-0.0002942103,-0.0001036215,5,1
-0.0001647201,-0.0001135075,5,1
-8.320128e-05,-0.0001005423,5,1
-9.956988e-05,-7.363943e-05,5,1
-0.0002003745,-4.560212e-05,5,1
-0.0003272716,-2.647842e-05,5,1
-0.0004194868,-1.740276e-05,5,1
-0.0004415277,-1.545797e-05,5,1
-0.0003980942,-1.67545e-05,5,1
-0.0003188442,-1.351319e-05,5,1
-0.0002326255,-6.176923e-08,5,1
-0.0001567789,2.327564e-05,5,1
-0.0001010285,4.628891e-05,5,1
-6.991193e-05,5.682316e-05,5,1
-6.278104e-05,4.790957e-05,5,1
-7.526008e-05,1.825161e-05,5,1
-0.0001020008,-2.745081e-05,5,1
-0.000144624,-8.125649e-05,5,1
-0.0002039399,-0.000137169,5,1
-0.0002776796,-0.0001909747,5,1
-0.0003557951,-0.0002392702,5,1
-0.0004282383,-0.0002773555,5,1
-0.0004903093,-0.0003055549,5,1
-0.0005410357,-0.0003225718,5,1
-0.0005854416,-0.0003314853,5,1
-0.0006296854,-0.0003319715,5,1
-0.0006766844,-0.0003233821,5,1
-0.0007238454,-0.0003018274,5,1
-0.0007590136,-0.000268604,5,1
-0.0007711684,-0.0002303566,5,1
-0.0007533412,-0.0001963229,5,1
-0.0007066664,-0.000171851,5,1
-0.0006429748,-0.0001587237,5,1
-0.0005719902,-0.0001511067,5,1
-0.0004997091,-0.0001412206,5,1
-0.0004233763,-0.0001209625,5,1
-0.0003368335,-9.29252e-05,5,1
-0.0002365151,-6.213279e-05,5,1
-0.0001267968,-3.458168e-05,5,1
-2.242678e-05,-1.20546e-05,5,1
6.589881e-05,8.689758e-06,5,1
0.0001422316,3.154097e-05,5,1
0.0002352571,5.649903e-05,5,1
0.0003785229,8.356394e-05,5,1
0.0005791598,0.0001094944,5,1
0.0008138306,0.0001292664,5,1
0.001040236,0.0001394765,5,1
0.001226774,0.0001412592,5,1
0.001375064,0.0001402868,5,1
0.001504068,0.0001414213,5,1
0.001612166,0.0001443384,5,1
0.001677802,0.0001438522,5,1
0.00167764,0.0001365593,5,1
0.0016086,0.0001252147,5,1
0.001485917,0.0001154908,5,1
0.001328551,0.0001127357,5,1
0.001148982,0.000121001,5,1
0.0009538552,0.0001386662,5,1
0.0007585663,0.0001595726,5,1
0.0005734875,0.0001773998,5,1
0.0004004017,0.0001905271,5,1
0.0002401191,0.000200251,5,1
9.393612e-05,0.0002090025,5,1
-4.787104e-05,0.0002203471,5,1
-0.0001947022,0.0002347709,5,1
-0.0003472056,0.0002457913,5,1
-0.0004886886,0.0002456293,5,1
-0.0005975965,0.0002323399,5,1
-0.0006669604,0.0002115956,5,1
-0.0007076389,0.0001934442,5,1
-0.0007397278,0.0001803169,5,1
-0.0007723029,0.0001692965,5,1
-0.0008003402,0.0001571416,5,1
-0.0008082814,0.0001401247,5,1
-0.0007826751,0.000121001,5,1
-0.0007214144,0.0001020394,5,1
-0.0006316302,8.486046e-05,5,1
-0.0005340669,6.589881e-05,5,1
-0.0004531963,3.883391e-05,5,1
-0.0003989045,-2.168618e-06,5,1
-0.0003747568,-5.629844e-05,5,1
-0.0003749188,-0.0001143178,5,1
-0.0003830221,-0.0001655305,5,1
-0.0003924218,-0.0002094502,5,1
-0.0004155972,-0.0002431597,5,1
-0.0004632444,-0.0002681178,5,1
-0.0005207775,-0.0002844864,5,1
-0.0005460597,-0.0002911311,5,1
-0.0004883645,-0.0002877277,5,1
-0.0003180339,-0.0002809209,5,1
-3.911951e-05,-0.0002758969,5,1
0.0003114278,-0.0002775176,5,1
0.0006843403,-0.0002932379,5,1
0.001041695,-0.0003146305,5,1
0.001350106,-0.0003170615,5,1
0.001569218,-0.0002703867,5,1
0.001674075,-0.000166827,5,1
0.00166743,-3.377136e-05,5,1
0.001570839,8.567078e-05,5,1
0.001411204,0.0001571416,5,1
0.001220453,0.000168,5,1
0.001025974,0.0001297526,5,1
0.0008464058,7.335383e-05,5,1
0.0006791542,3.218923e-05,5,1
0.0005182233,2.39239e-05,5,1
0.0003678266,4.645098e-05,5,1
0.0002456293,8.664318e-05,5,1
0.0001645966,0.0001329939,5,1
0.0001158149,0.000173024,5,1
7.546067e-05,0.0001963614,5,1
1.565857e-05,0.0001983062,5,1
-7.639453e-05,0.000177886,5,1
-0.0001914609,0.0001435281,5,1
-0.0003076617,0.0001043083,5,1
-0.0004089525,6.930219e-05,5,1
-0.0004922541,4.402e-05,5,1
-0.0005593491,2.538249e-05,5,1
-0.0006134789,6.096713e-06,5,1
-0.0006552918,-1.918548e-05,5,1
-0.0006878669,-5.289507e-05,5,1
-0.0007110422,-8.725291e-05,5,1
-0.0007269246,-0.0001131834,5,1
-0.0007337314,-0.0001258245,5,1
-0.0007274108,-0.0001279313,5,1
-0.0007063423,-0.0001243659,5,1
-0.0006684191,-0.0001182074,5,1
-0.0006091032,-0.0001117248,5,1
-0.0005287188,-0.0001050801,5,1
-0.0004376381,-9.600444e-05,5,1
-0.0003483401,-8.174268e-05,5,1
-0.0002671454,-5.970181e-05,5,1
-0.0001989159,-3.069211e-05,5,1
-0.0001387897,1.883015e-06,5,1
-8.141856e-05,3.283749e-05,5,1
-3.425755e-05,6.508849e-05,5,1
-1.027188e-05,0.0001077117,5,1
-1.950961e-05,0.0001652449,5,1
-6.359137e-05,0.0002310434,5,1
-0.0001408965,0.0002863077,5,1
-0.000246239,0.000319207,5,1
-0.0003645466,0.0003252034,5,1
-0.0004724821,0.0003101313,5,1
-0.0005423322,0.0002876042,5,1
-0.0005561078,0.0002707494,5,1
-0.000507002,0.0002637806,5,1
-0.0003841565,0.0002603772,5,1
-0.000181737,0.0002514636,5,1
7.52986e-05,0.0002315296,5,1
0.000321638,0.0002013854,5,1
0.0004973168,0.0001658931,5,1
0.0005862907,0.0001268354,5,1
0.00061919,9.16672e-05,5,1
0.0006475514,6.962632e-05,5,1
0.000701033,6.314371e-05,5,1
0.0007684522,6.314371e-05,5,1
0.0008146409,5.471631e-05,5,1
0.0007992447,2.943412e-05,5,1
0.000688554,-1.010982e-05,5,1
0.0004773828,-5.435365e-05,5,1
0.0001869616,-9.227693e-05,5,1
-0.000147055,-0.0001199901,5,1
-0.0004750752,-0.0001365208,5,1
-0.0007484793,-0.000144462,5,1
-0.0009393922,-0.0001473791,5,1
-0.0010483,-0.0001498101,5,1
-0.001094489,-0.0001536997,5,1
-0.001101133,-0.0001548341,5,1
-0.001081523,-0.0001538618,5,1
-0.001039549,-0.0001504584,5,1
-0.0009724535,-0.0001423551,5,1
-0.0008773212,-0.0001313347,5,1
-0.000755286,-0.0001186936,5,1
-0.0006219063,-0.0001079973,5,1
-0.0004967919,-9.989401e-05,5,1
-0.0004006872,-9.486997e-05,5,1
-0.0003486642,-9.438378e-05,5,1
-0.0003376438,-9.940781e-05,5,1
-0.0003402368,-0.0001084835,5,1
-0.0003097686,-0.0001178833,5,1
-0.0002057227,-0.0001282554,5,1
-1.853722e-05,-0.0001402483,5,1
0.0002263435,-0.0001514308,5,1
0.0004794896,-0.0001600202,5,1
0.0006986021,-0.0001663408,5,1
0.0008601813,-0.0001681235,5,1
0.0009593654,-0.0001637477,5,1
0.001002151,-0.0001556445,5,1
0.0009987473,-0.0001467309,5,1
0.0009627688,-0.0001368449,5,1
0.0009180387,-0.0001232314,5,1
0.0008771982,-0.0001054042,5,1
0.0008379783,-8.871149e-05,5,1
0.0008005413,-7.509801e-05,5,1
0.0007742866,-6.278104e-05,5,1
0.0007614834,-4.787104e-05,5,1
0.0007470596,-2.89094e-05,5,1
0.0007080019,-8.002969e-06,5,1
0.0006271312,9.338019e-06,5,1
0.0005041235,2.441009e-05,5,1
0.000356644,3.332369e-05,5,1
0.0002107852,3.445814e-05,5,1
8.729144e-05,3.13789e-05,5,1
-2.238346e-07,3.251336e-05,5,1
-4.689865e-05,4.077869e-05,5,1
-5.386745e-05,5.325772e-05,5,1
-2.275091e-05,6.492643e-05,5,1
4.142696e-05,7.448828e-05,5,1
0.000125863,8.356394e-05,5,1
0.0002125679,9.442231e-05,5,1
0.0002913317,0.0001094944,5,1
0.0003521062,0.0001287802,5,1
0.0003827366,0.0001517934,5,1
0.0003743092,0.0001714034,5,1
0.0003273102,0.0001863134,5,1
0.0002561635,0.0001996027,5,1
0.0001843686,0.0002138645,5,1
0.000133318,0.0002260194,5,1
9.782569e-05,0.0002289366,5,1
6.670914e-05,0.0002193747,5,1
3.462021e-05,0.0001992786,5,1
-1.034161e-06,0.0001717275,5,1
-5.046408e-05,0.0001415833,5,1
-0.0001313347,0.0001161391,5,1
-0.0002504527,0.0001000946,5,1
-0.0004060354,9.750156e-05,5,1
-0.0005810658,0.000106091,5,1
-0.0007436173,0.000120839,5,1
-0.0008627353,0.0001388282,5,1
-0.0009191341,0.000158114,5,1
-0.0009019551,0.000173024,5,1
-0.0008095779,0.0001744826,5,1
-0.0006499436,0.0001597346,5,1
-0.000447362,0.0001326697,5,1
-0.0002454286,9.993253e-05,5,1
-9.227693e-05,6.914012e-05,5,1
-1.448558e-05,4.547859e-05,5,1
-7.030578e-06,2.797553e-05,5,1
-5.030202e-05,1.938607e-05,5,1
-0.0001159385,2.084466e-05,5,1
-0.0001840059,2.943412e-05,5,1
-0.0002446183,3.867184e-05,5,1
-0.000290969,4.094075e-05,5,1
-0.0003188442,3.429608e-05,5,1
-0.0003298647,1.9224e-05,5,1
-0.0003287302,-1.844488e-06,5,1
-0.000318196,-2.955766e-05,5,1
-0.000300855,-6.683268e-05,5,1
-0.000278652,-0.0001067007,5,1
-0.0002606628,-0.0001410586,5,1
-0.0002517492,-0.0001634236,5,1
-0.0002402425,-0.0001737958,5,1
-0.0002063709,-0.0001784957,5,1
-0.0001442999,-0.0001838438,5,1
-6.359137e-05,-0.0001955125,5,1
1.906194e-05,-0.0002178775,5,1
8.46984e-05,-0.000246401,5,1
0.0001197045,-0.000268766,5,1
0.000111115,-0.0002695764,5,1
6.006447e-05,-0.0002405667,5,1
-2.258885e-05,-0.0001869231,5,1
-9.892161e-05,-0.0001298761,5,1
-0.0001156143,-8.935975e-05,5,1
-4.576419e-05,-7.60704e-05,5,1
8.129502e-05,-8.984595e-05,5,1
0.0002012234,-0.0001225832,5,1
0.0002663737,-0.0001648822,5,1
0.0002668598,-0.0002057227,5,1
0.0002258573,-0.0002395943,5,1
0.0001715654,-0.0002634179,5,1
0.0001240803,-0.0002752487,5,1
9.652917e-05,-0.0002716832,5,1
9.182927e-05,-0.000251101,5,1
0.0001026876,-0.000216419,5,1
0.0001252147,-0.0001700683,5,1
0.0001535762,-0.0001209625,5,1
0.0001817755,-7.477388e-05,5,1
0.0002047888,-3.458168e-05,5,1
0.0002193747,-1.682422e-06,5,1
0.0002227781,2.165498e-05,5,1
0.0002158093,3.575467e-05,5,1
0.0001965235,4.645098e-05,5,1
0.0001608691,6.168512e-05,5,1
0.0001044704,8.74535e-05,5,1
2.716521e-05,0.0001237561,5,1
-6.375344e-05,0.0001624898,5,1
-0.0001538618,0.0001910133,5,1
-0.0002318152,0.0002005751,5,1
-0.0002849726,0.0001949028,5,1
-0.0003040963,0.0001837203,5,1
-0.0002929138,0.0001762653,5,1
-0.0002605007,0.0001749688,5,1
-0.0002118811,0.0001786963,5,1
-0.0001543479,0.0001843686,5,1
-9.616651e-05,0.0001913374,5,1
-3.377136e-05,0.0002018716,5,1
4.288554e-05,0.0002156472,5,1
0.0001365593,0.00022764,5,1
0.0002376881,0.0002346088,5,1
0.0003221241,0.000237526,5,1
0.0003752816,0.0002352571,5,1
0.000406074,0.0002278021,5,1
0.0004380009,0.0002169437,5,1
0.0004918066,0.000210299,5,1
0.0005616568,0.000210137,5,1
0.0006250244,0.0002140265,5,1
0.00064901,0.0002174299,5,1
0.000606711,0.0002195368,5,1
0.0004932652,0.0002174299,5,1
0.0003396272,0.0002072198,5,1
0.0001960373,0.0001895547,5,1
9.426025e-05,0.0001701068,5,1
3.202716e-05,0.000155683,5,1
-1.237873e-05,0.000145797,5,1
-5.613637e-05,0.0001376938,5,1
-0.0001084835,0.0001287802,5,1
-0.000174444,0.0001166253,5,1
-0.0002504527,0.0001017153,5,1
-0.0003154408,8.340187e-05,5,1
-0.0003366714,6.379197e-05,5,1
-0.000285945,4.320967e-05,5,1
-0.0001721751,1.825161e-05,5,1
-3.231277e-05,-1.286493e-05,5,1
9.361199e-05,-4.819517e-05,5,1
0.0001728619,-8.611845e-05,5,1
0.0001944166,-0.0001259865,5,1
0.0001728619,-0.0001661787,5,1
0.0001320215,-0.0001959987,5,1
9.328786e-05,-0.0002131776,5,1
6.41161e-05,-0.0002203085,5,1
3.364782e-05,-0.0002203085,5,1
-2.145439e-05,-0.0002162569,5,1
-0.0001230693,-0.0002102605,5,1
-0.0002721694,-0.0002026434,5,1
-0.0004460655,-0.0001950263,5,1
-0.0006050515,-0.0001912988,5,1
-0.0007003459,-0.0001885437,5,1
-0.0006878669,-0.0001875713,5,1
-0.000546708,-0.0001898403,5,1
-0.0003029619,-0.0001938919,5,1
-1.853722e-05,-0.0001971332,5,1
0.0002431983,-0.0001982676,5,1
0.0004563143,-0.000196647,5,1
0.000634262,-0.000191785,5,1
0.0007947069,-0.0001833576,5,1
0.0009515863,-0.0001690959,5,1
0.001106683,-0.0001511067,5,1
0.00124849,-0.0001319829,5,1
0.001350916,-0.0001094559,5,1
0.001379601,-7.866345e-05,5,1
0.001305375,-3.425755e-05,5,1
0.001119972,1.906194e-05,5,1
0.0008472161,7.432621e-05,5,1
0.0005355643,0.0001250527,5,1
0.000235095,0.0001616794,5,1
-2.113026e-05,0.0001767515,5,1
-0.0002235498,0.0001717275,5,1
-0.0003810773,0.0001517934,5,1
-0.0005105674,0.000123432,5,1
-0.0006227166,9.426025e-05,5,1
-0.0007201179,6.995045e-05,5,1
-0.0007927231,5.309566e-05,5,1
-0.0008254603,4.45062e-05,5,1
-0.0008084435,4.596478e-05,5,1
-0.0007437794,5.666109e-05,5,1
-0.0006502678,7.043665e-05,5,1
-0.0005585388,8.46984e-05,5,1
-0.0004932265,0.0001025256,5,1
-0.000462272,0.0001245665,5,1
-0.0004470379,0.000145635,5,1
-0.000407656,0.0001592484,5,1
-0.0003136581,0.0001644345,5,1
-0.000164396,0.0001613553,5,1
9.66215e-06,0.0001498487,5,1
0.0001539003,0.000130887,5,1
0.0002266676,0.0001090082,5,1
0.0002122438,8.891209e-05,5,1
0.0001141943,7.546067e-05,5,1
-4.43056e-05,6.865393e-05,5,1
-0.0002290601,6.622294e-05,5,1
-0.0004016596,6.83298e-05,5,1
-0.0005347152,7.30297e-05,5,1
-0.0006249856,7.497447e-05,5,1
-0.0006849497,6.654708e-05,5,1
-0.0007317866,4.515445e-05,5,1
-0.0007765166,1.841368e-05,5,1
-0.0008167088,-7.030578e-06,5,1
-0.0008432875,-2.745081e-05,5,1
-0.0008413427,-4.625038e-05,5,1
-0.0007992057,-6.504996e-05,5,1
-0.0007238454,-7.363943e-05,5,1
-0.0006369784,-6.44017e-05,5,1
-0.0005634008,-4.009191e-05,5,1
-0.0005128364,-1.3027e-05,5,1
-0.0004836646,6.744974e-06,5,1
-0.0004587066,1.095867e-05,5,1
-0.0004157593,2.04508e-06,5,1
-0.0003369955,-1.416145e-05,5,1
-0.0002237119,-3.490581e-05,5,1
-9.146661e-05,-5.354332e-05,5,1
4.434413e-05,-6.553616e-05,5,1
0.0001652449,-6.829127e-05,5,1
0.0002550291,-6.099833e-05,5,1
0.0003041349,-4.349527e-05,5,1
0.0003132105,-2.437157e-05,5,1
0.0002976523,-8.327101e-06,5,1
0.0002793389,4.151929e-06,5,1
0.0002702632,1.371378e-05,5,1
0.0002662116,1.873781e-05,5,1
0.0002618358,2.052053e-05,5,1
0.0002560015,2.246531e-05,5,1
0.0002654013,2.473423e-05,5,1
0.0003221241,2.424803e-05,5,1
0.0004542074,2.246531e-05,5,1
0.0006522514,2.230325e-05,5,1
0.0008574262,2.100672e-05,5,1
0.001006202,1.338965e-05,5,1
0.001056605,-5.247859e-06,5,1
0.0009992336,-3.26369e-05,5,1
0.0008428403,-6.326724e-05,5,1
0.0006060627,-9.179074e-05,5,1
0.0003240689,-0.0001170729,5,1
5.115087e-05,-0.0001415448,5,1
-0.0001561307,-0.0001674752,5,1
-0.0002690902,-0.0001945401,5,1
-0.0002953447,-0.0002191741,5,1
-0.0002773555,-0.0002321393,5,1
-0.0002606628,-0.000233922,5,1
-0.0002776796,-0.0002237119,5,1
-0.0003272716,-0.0002042641,5,1
-0.0003815635,-0.0001825473,5,1
-0.000402794,-0.0001652063,5,1
-0.0003635742,-0.0001556445,5,1
-0.0002653627,-0.0001525652,5,1
-0.0001332795,-0.0001493239,5,1
9.106227e-07,-0.0001430034,5,1
0.0001187321,-0.0001313347,5,1
0.0002096508,-0.0001120489,5,1
0.0002780424,-8.303922e-05,5,1
0.0003323342,-4.689865e-05,5,1
0.0003751195,-8.165035e-06,5,1
0.0004038051,2.603075e-05,5,1
0.0004157979,5.325772e-05,5,1
0.0004065602,7.108491e-05,5,1
0.0003850055,8.178122e-05,5,1
0.0003666921,8.939829e-05,5,1
0.0003634508,9.912221e-05,5,1
0.0003673404,0.0001141943,5,1
0.0003623164,0.0001316974,5,1
0.0003355756,0.0001472556,5,1
0.0002850112,0.0001584381,5,1
0.0002185644,0.0001670276,5,1
0.0001568175,0.0001762653,5,1
0.000125863,0.0001895547,5,1
0.0001385041,0.0002073819,5,1
0.0001892305,0.000227478,5,1
0.0002551911,0.0002417397,5,1
0.0003088348,0.0002412535,5,1
0.0003307136,0.0002265056,5,1
0.000319207,0.0002034923,5,1
0.0002879283,0.00018291,5,1
0.000252274,0.0001702689,5,1
0.0002333123,0.0001660552,5,1
0.0002454672,0.000165569,5,1
0.0002944109,0.0001686482,5,1
0.0003673404,0.0001746447,5,1
0.0004391353,0.00018291,5,1
0.0004796517,0.0001918236,5,1
0.0004678209,0.0002015475,5,1
0.0003932708,0.000210137,5,1
0.0002608634,0.0002145127,5,1
9.831188e-05,0.0002119197,5,1
-5.710876e-05,0.0002051129,5,1
-0.0001776853,0.0001981441,5,1
-0.0002502906,0.000192958,5,1
-0.0002814071,0.0001867996,5,1
-0.0002950206,0.0001743205,5,1
-0.0003175477,0.0001547106,5,1
-0.0003700569,0.0001318594,5,1
-0.0004585445,0.0001064152,5,1
-0.0005676145,7.772959e-05,5,1
-0.0006736051,4.418206e-05,5,1
-0.0007567446,7.485573e-07,5,1
-0.0008029332,-5.808115e-05,5,1
-0.000804878,-0.0001355484,5,1
-0.0007669547,-0.0002246843,5,1
-0.0007048837,-0.0003131719,5,1
-0.0006479988,-0.0003809152,5,1
-0.0006253097,-0.0004183523,5,1
-0.0006488092,-0.0004256453,5,1
-0.0007014804,-0.0004160834,5,1
-0.0007458862,-0.0004065215,5,1
-0.0007466965,-0.0004079801,5,1
-0.0006865704,-0.0004191627,5,1
-0.0005617801,-0.00042759,5,1
-0.0003831841,-0.0004181903,5,1
-0.0001846542,-0.0003750809,5,1
-1.886135e-05,-0.0002953447,5,1
7.465034e-05,-0.0001989159,5,1
9.101894e-05,-0.0001115627,5,1
6.152305e-05,-5.370539e-05,5,1
3.202716e-05,-3.053005e-05,5,1
3.478228e-05,-3.474375e-05,5,1
7.67572e-05,-5.516398e-05,5,1
0.0001415833,-8.060823e-05,5,1
0.0002043026,-0.0001045939,5,1
0.0002404432,-0.0001191798,5,1
0.0002433604,-0.0001180453,5,1
0.0002253711,-9.616651e-05,5,1
0.0002012234,-6.132246e-05,5,1
0.000180479,-3.020592e-05,5,1
0.0001615174,-1.691656e-05,5,1
0.0001433661,-2.518189e-05,5,1
0.0001334801,-4.819517e-05,5,1
0.0001388282,-7.639453e-05,5,1
0.0001649207,-9.956988e-05,5,1
0.0002133783,-0.0001114006,5,1
0.0002790148,-0.0001104282,5,1
0.000346596,-9.600444e-05,5,1
0.0003952156,-7.266703e-05,5,1
0.0003968363,-4.236082e-05,5,1
0.0003349273,-6.220252e-06,5,1
0.0002229401,3.348575e-05,5,1
9.377406e-05,7.221937e-05,5,1
-2.161646e-05,0.000106091,5,1
-0.0001071869,0.0001326697,5,1
-0.0001614788,0.0001516314,5,1
-0.0001906506,0.000160707,5,1
-0.0001930815,0.0001618415,5,1
-0.0001635857,0.0001673517,5,1
-0.0001067007,0.0001898788,5,1
-3.717473e-05,0.0002363916,5,1
3.18651e-05,0.0003007315,5,1
9.393612e-05,0.0003636129,5,1
0.0001511452,0.0004026706,5,1
0.0002065715,0.0004098015,5,1
0.0002611876,0.0003892192,5,1
0.0003086727,0.0003530786,5,1
0.0003487029,0.0003145071,5,1
0.0003903536,0.0002832284,5,1
0.0004417284,0.0002663737,5,1
0.0004943996,0.0002655633,5,1
0.0005279472,0.0002801492,5,1
0.0005187094,0.0003010556,5,1
0.0004474007,0.0003128864,5,1
0.0003133726,0.0003096451,5,1
0.000145797,0.0002908455,5,1
-1.480971e-05,0.0002642668,5,1
-0.0001316588,0.0002367157,5,1
-0.0001827094,0.0002114335,5,1
-0.0001564548,0.0001869616,5,1
-3.944364e-05,0.0001598967,5,1
0.0001603829,0.0001310491,5,1
0.000393595,0.0001013911,5,1
0.0005832114,7.238143e-05,5,1
0.0006610029,4.855783e-05,5,1
0.0006037938,3.073064e-05,5,1
0.0004519385,1.403791e-05,5,1
0.000274801,-9.947754e-06,5,1
0.000135911,-4.219875e-05,5,1
6.897806e-05,-7.688073e-05,5,1
7.562274e-05,-0.0001058904,5,1
0.0001312112,-0.0001224211,5,1
0.0001961994,-0.0001303623,5,1
0.0002302331,-0.0001368449,5,1
0.0002143507,-0.0001512687,5,1
0.0001701068,-0.000174444,5,1
0.0001352628,-0.0001961608,5,1
0.000128294,-0.0002075054,5,1
0.0001449867,-0.0002053985,5,1
0.0001741585,-0.0001953505,5,1
0.0001887444,-0.0001862748,5,1
0.0001568175,-0.0001849783,5,1
7.092284e-05,-0.0001908126,5,1
-4.560212e-05,-0.0002000504,5,1
-0.0001517549,-0.0002100984,5,1
-0.0002185258,-0.0002211189,5,1
-0.0002297083,-0.0002298704,5,1
-0.0001815749,-0.0002293842,5,1
-8.579432e-05,-0.0002157707,5,1
1.857574e-05,-0.0001909747,5,1
7.221937e-05,-0.0001598582,5,1
3.60788e-05,-0.0001261486,5,1
-9.373552e-05,-0.0001013526,5,1
-0.0002828657,-9.065628e-05,5,1
-0.0004911196,-9.341139e-05,5,1
-0.000688191,-0.0001029732,5,1
-0.0008510666,-0.0001141558,5,1
-0.0009667812,-0.0001175591,5,1
-0.001033876,-0.0001088076,5,1
-0.001069369,-9.130454e-05,5,1
-0.001096596,-7.201877e-05,5,1
-0.001127712,-5.451572e-05,5,1
-0.001155263,-4.155049e-05,5,1
-0.001155425,-3.069211e-05,5,1
-0.001112478,-1.967167e-05,5,1
-0.001023504,-6.220252e-06,5,1
-0.0009022792,1.274139e-05,5,1
-0.0007812165,3.867184e-05,5,1
-0.0006899738,7.059871e-05,5,1
-0.0006402197,0.0001022015,5,1
-0.000616072,0.0001276457,5,1
-0.0005784728,0.0001419075,5,1
-0.0004891749,0.0001417454,5,1
-0.0003360231,0.0001263492,5,1
-0.0001415448,9.912221e-05,5,1
5.244739e-05,6.930219e-05,5,1
0.0002261814,4.499239e-05,5,1
0.000388733,2.376183e-05,5,1
0.0005577672,-6.176923e-08,5,1
0.0007363633,-2.631635e-05,5,1
0.0009109079,-4.787104e-05,5,1
0.001046557,-5.921561e-05,5,1
0.00112289,-5.565017e-05,5,1
0.001134072,-3.928157e-05,5,1
0.001094852,-1.156841e-05,5,1
0.001032943,1.906194e-05,5,1
0.0009687652,4.758544e-05,5,1
0.0009003736,6.83298e-05,5,1
0.0008110755,8.113296e-05,5,1
0.0006888782,9.393612e-05,5,1
0.0005409124,0.0001107909,5,1
0.000393757,0.0001318594,5,1
0.0002780424,0.000155521,5,1
0.0002005751,0.0001757791,5,1
0.0001477418,0.0001859892,5,1
9.847395e-05,0.00018291,5,1
4.304761e-05,0.0001615174,5,1
-1.934754e-05,0.0001219734,5,1
-8.255302e-05,7.20573e-05,5,1
-0.0001360346,2.068259e-05,5,1
-0.0001741199,-2.534396e-05,5,1
-0.0001914609,-6.035007e-05,5,1
-0.0001934057,-8.676672e-05,5,1
-0.0001987538,-0.0001032974,5,1
-0.0002293842,-0.0001058904,5,1
-0.0002948586,-9.486997e-05,5,1
-0.0003825359,-7.201877e-05,5,1
-0.0004655133,-3.717473e-05,5,1
-0.0005152673,3.989864e-06,5,1
-0.0005154294,4.807163e-05,5,1
-0.0004719959,9.004655e-05,5,1
-0.0004112214,0.0001276457,5,1
-0.0003638984,0.0001600588,5,1
-0.0003493125,0.0001851789,5,1
-0.0003664914,0.0001989545,5,1
-0.0003998769,0.0001973338,5,1
-0.0004259694,0.0001793446,5,1
-0.0004267797,0.0001526038,5,1
-0.0003920977,0.0001232699,5,1
-0.0003204649,9.426025e-05,5,1
-0.000206695,6.816773e-05,5,1
-4.284701e-05,4.580272e-05,5,1
0.0001663793,2.748934e-05,5,1
0.0003892192,1.419998e-05,5,1
0.0005764047,9.013889e-06,5,1
0.0006788301,1.403791e-05,5,1
0.000668782,2.538249e-05,5,1
0.0005501501,3.60788e-05,5,1
0.0003675024,4.126489e-05,5,1
0.0001791825,4.126489e-05,5,1
2.781346e-05,3.089271e-05,5,1
-6.877746e-05,6.096713e-06,5,1
-0.0001130213,-3.279896e-05,5,1
-0.0001219349,-8.060823e-05,5,1
-0.0001182074,-0.000129714,5,1
-0.0001209625,-0.0001733096,5,1
-0.0001365208,-0.000201671,5,1
-0.0001538618,-0.000213988,5,1
-0.000159534,-0.0002138259,5,1
-0.0001485136,-0.0002070192,5,1
-0.0001156143,-0.0001972953,5,1
-4.414354e-05,-0.0001857886,5,1
8.486046e-05,-0.0001721751,5,1
0.0002641047,-0.0001533756,5,1
0.0004512903,-0.0001284175,5,1
0.0005864528,-9.843541e-05,5,1
0.0006245382,-6.650855e-05,5,1
0.0005511225,-3.928157e-05,5,1
0.0003895433,-2.291298e-05,5,1
0.0001914995,-1.659243e-05,5,1
1.436204e-05,-1.62683e-05,5,1
-0.0001011905,-1.367526e-05,5,1
-0.00015451,-3.951337e-06,5,1
-0.0001690959,1.338965e-05,5,1
-0.000174282,3.348575e-05,5,1
-0.0001882196,5.115087e-05,5,1
-0.0002100984,6.41161e-05,5,1
-0.0002211189,7.319176e-05,5,1
-0.0002034537,7.967438e-05,5,1
-0.0001488377,8.74535e-05,5,1
-5.953974e-05,9.782569e-05,5,1
4.677511e-05,0.0001098185,5,1
0.0001398006,0.0001169494,5,1
0.0001936063,0.0001180839,5,1
0.0001997648,0.0001188942,5,1
0.0001667035,0.0001229458,5,1
0.0001057669,0.0001287802,5,1
3.202716e-05,0.0001321835,5,1
-4.155049e-05,0.0001321835,5,1
-0.0001044318,0.0001291043,5,1
-0.0001502963,0.0001216493,5,1
-0.0001765509,0.0001086841,5,1
-0.0001726613,9.523264e-05,5,1
-0.0001303623,8.875003e-05,5,1
-4.722278e-05,9.020862e-05,5,1
6.638502e-05,9.555677e-05,5,1
0.000187934,9.652917e-05,5,1
0.0002879283,8.939829e-05,5,1
0.0003431926,7.416415e-05,5,1
0.0003470822,5.536457e-05,5,1
0.00030689,3.834771e-05,5,1
0.0002401191,2.829966e-05,5,1
0.0001623277,2.473423e-05,5,1
9.409818e-05,2.246531e-05,5,1
5.423012e-05,1.889987e-05,5,1
4.628891e-05,1.209313e-05,5,1
6.168512e-05,1.720949e-06,5,1
8.291568e-05,-8.651231e-06,5,1
0.0001047945,-1.464765e-05,5,1
0.0001436902,-1.788895e-05,5,1
0.0002172679,-2.242678e-05,5,1
0.0003239069,-3.247483e-05,5,1
0.0004388112,-4.90055e-05,5,1
0.0005277851,-6.748094e-05,5,1
0.0005501501,-8.060823e-05,5,1
0.0004835413,-8.611845e-05,5,1
0.0003487029,-8.741498e-05,5,1
0.0001974959,-9.098041e-05,5,1
8.437427e-05,-9.924574e-05,5,1
4.466826e-05,-0.0001083214,5,1
7.724339e-05,-0.0001151281,5,1
0.000153252,-0.0001188556,5,1
0.0002313675,-0.000122259,5,1
0.0002733424,-0.000127283,5,1
0.0002628082,-0.0001339277,5,1
0.0002049509,-0.0001402483,5,1
0.0001292664,-0.000147055,5,1
6.78436e-05,-0.0001502963,5,1
4.207521e-05,-0.0001488377,5,1
5.536457e-05,-0.0001433275,5,1
9.037068e-05,-0.0001384655,5,1
0.0001286181,-0.0001386276,5,1
0.0001582761,-0.0001449482,5,1
0.0001801549,-0.0001567789,5,1
0.0002030061,-0.0001686097,5,1
0.0002281262,-0.0001780095,5,1
0.0002443328,-0.0001825473,5,1
0.0002344468,-0.0001791439,5,1
0.0001866375,-0.0001695821,5,1
9.16672e-05,-0.0001549962,5,1
-4.689865e-05,-0.0001379794,5,1
-0.0002039399,-0.0001190177,5,1
-0.0003410472,-9.811128e-05,5,1
-0.0004284004,-7.363943e-05,5,1
-0.0004694029,-4.219875e-05,5,1
-0.0004940368,-2.654814e-06,5,1
-0.00053666,3.850978e-05,5,1
-0.0006102377,7.043665e-05,5,1
-0.0006979149,8.696731e-05,5,1
-0.000760148,8.729144e-05,5,1
-0.000752693,7.67572e-05,5,1
-0.0006535091,6.395404e-05,5,1
-0.0004789647,5.828175e-05,5,1
-0.0002572594,6.330578e-05,5,1
-2.09682e-05,7.918817e-05,5,1
0.000187934,0.0001041462,5,1
0.0003219621,0.0001378558,5,1
0.0003488649,0.000175455,5,1
0.00027707,0.0002088404,5,1
0.0001535762,0.0002310434,5,1
3.413401e-05,0.0002402811,5,1
-4.398147e-05,0.0002393087,5,1
-7.428769e-05,0.0002331503,5,1
-6.829127e-05,0.0002258573,5,1
-4.495386e-05,0.0002184023,5,1
-1.853722e-05,0.0002138645,5,1
6.258778e-06,0.0002153231,5,1
2.878586e-05,0.0002229401,5,1
4.175109e-05,0.0002302331,5,1
3.008238e-05,0.0002292607,5,1
-2.0482e-05,0.0002203471,5,1
-0.0001067007,0.000207706,5,1
-0.0002068571,0.0001976579,5,1
-0.0002932379,0.0001890685,5,1
-0.0003462333,0.0001765894,5,1
-0.0003600088,0.0001517934,5,1
-0.0003447747,0.0001116012,5,1
-0.0003178718,6.589881e-05,5,1
-0.0003000446,2.34377e-05,5,1
-0.000303448,-7.192643e-06,5,1
-0.0003277578,-2.566809e-05,5,1
-0.0003716775,-3.409549e-05,5,1
-0.0004314796,-3.895745e-05,5,1
-0.000501978,-4.706071e-05,5,1
-0.0005726385,-6.099833e-05,5,1
-0.0006279027,-7.785312e-05,5,1
-0.000653185,-9.503204e-05,5,1
-0.000646054,-0.0001115627,5,1
-0.0006149375,-0.0001327933,5,1
-0.0005653456,-0.000152079,5,1
-0.0004988988,-0.0001532135,5,1
-0.0004143007,-0.0001237176,5,1
-0.0003180339,-6.553616e-05,5,1
-0.0002217671,3.827799e-06,5,1
-0.0001383035,6.03886e-05,5,1
-7.104638e-05,8.696731e-05,5,1
-1.480971e-05,8.323981e-05,5,1
3.510641e-05,6.087479e-05,5,1
8.340187e-05,3.348575e-05,5,1
0.0001260251,8.041497e-06,5,1
0.0001527658,-1.497178e-05,5,1
0.0001508211,-3.620233e-05,5,1
0.0001175977,-5.095028e-05,5,1
5.293359e-05,-5.419158e-05,5,1
-3.733679e-05,-5.046408e-05,5,1
-0.0001373311,-4.981582e-05,5,1
-0.0002253326,-5.775702e-05,5,1
-0.000285945,-7.526008e-05,5,1
-0.0003081479,-9.875954e-05,5,1
-0.0002830278,-0.0001240417,5,1
-0.0002052365,-0.0001452723,5,1
-8.320128e-05,-0.0001613168,5,1
6.395404e-05,-0.0001695821,5,1
0.0002135403,-0.0001676373,5,1
0.0003409237,-0.0001551583,5,1
0.0004255218,-0.0001334415,5,1
0.0004624728,-0.0001039456,5,1
0.0004550177,-7.33153e-05,5,1
0.00041596,-4.884343e-05,5,1
0.0003556717,-3.425755e-05,5,1
0.0002864697,-2.971972e-05,5,1
0.000215161,-3.312309e-05,5,1
0.0001417454,-3.895745e-05,5,1
6.184718e-05,-3.830919e-05,5,1
-2.177852e-05,-3.020592e-05,5,1
-8.952183e-05,-1.610624e-05,5,1
-0.0001193418,-2.978945e-06,5,1
-0.0001104282,4.638125e-06,5,1
-7.898758e-05,5.772582e-06,5,1
-3.522994e-05,-7.100305e-07,5,1
2.667901e-05,-1.367526e-05,5,1
0.0001158149,-2.971972e-05,5,1
0.0002316917,-4.85193e-05,5,1
0.0003574544,-6.861539e-05,5,1
0.0004563143,-8.158062e-05,5,1
0.0005072028,-8.384954e-05,5,1
0.0005203301,-7.33153e-05,5,1
0.0005224369,-4.722278e-05,5,1
0.0005268127,-9.785688e-06,5,1
0.0005253541,3.202716e-05,5,1
0.0005067165,7.562274e-05,5,1
0.0004733311,0.0001224596,5,1
0.0004380009,0.0001720516,5,1
0.000418391,0.000215161,5,1
0.0004188772,0.000244981,5,1
0.0004415663,0.0002568118,5,1
0.0004846757,0.0002542187,5,1
0.0005410745,0.0002441707,5,1
0.0005963388,0.0002333123,5,1
0.0006383138,0.0002273159,5,1
0.0006679717,0.00022764,5,1
0.0006901747,0.0002333123,5,1
0.000710757,0.0002397949,5,1
0.0007313393,0.0002393087,5,1
0.0007402529,0.0002273159,5,1
0.0007118915,0.0002044647,5,1
0.0006269692,0.0001718896,5,1
0.0004783552,0.0001346145,5,1
0.0002641047,9.944634e-05,5,1
-3.465141e-06,6.946425e-05,5,1
-0.0002877277,4.807163e-05,5,1
-0.00053666,3.283749e-05,5,1
-0.0006988873,1.776542e-05,5,1
-0.0007509103,-8.720959e-07,5,1
-0.0007069906,-2.566809e-05,5,1
-0.0006144513,-5.678463e-05,5,1
-0.0005356876,-9.162867e-05,5,1
-0.0005228845,-0.0001238797,5,1
-0.0006050515,-0.0001454344,5,1
-0.000775058,-0.0001538618,5,1
-0.0009889842,-0.0001517549,5,1
-0.001187676,-0.0001447861,5,1
-0.001324135,-0.0001331174,5,1
-0.001373889,-0.0001089697,5,1
-0.001332401,-6.942573e-05,5,1
-0.0012068,-2.09682e-05,5,1
-0.00100827,2.149292e-05,5,1
-0.0007525309,4.337174e-05,5,1
-0.0004648651,4.434413e-05,5,1
-0.0001806025,3.380988e-05,5,1
7.059871e-05,2.230325e-05,5,1
0.0002825802,1.906194e-05,5,1
0.0004849998,3.18651e-05,5,1
0.000718212,6.152305e-05,5,1
0.0009935612,9.896015e-05,5,1
0.001289979,0.0001325077,5,1
0.001569056,0.0001545486,5,1
0.001792059,0.0001621656,5,1
0.001934352,0.000155521,5,1
0.001989617,0.000130887,5,1
0.001974707,8.405014e-05,5,1
0.001917984,1.841368e-05,5,1
0.001837761,-5.69467e-05,5,1
0.001732094,-0.0001344139,5,1
0.001574891,-0.0002104225,5,1
0.001339409,-0.0002822175,5,1
0.001026947,-0.0003410472,5,1
0.0006699165,-0.000387722,5,1
0.0003162898,-0.0004237005,5,1
1.047248e-05,-0.0004455793,5,1
-0.0002203085,-0.0004494688,5,1
-0.0003697327,-0.0004306693,5,1
-0.000444931,-0.0003895047,5,1
-0.0004590307,-0.0003298647,5,1
-0.0004408794,-0.0002558008,5,1
-0.0004306693,-0.0001726613,5,1
-0.0004549791,-9.065628e-05,5,1
-0.0005201293,-1.480971e-05,5,1
-0.0006128307,5.423012e-05,5,1
-0.0007120146,0.0001163011,5,1
-0.0007951541,0.0001688103,5,1
-0.0008466908,0.0002062474,5,1
-0.0008630594,0.0002284504,5,1
-0.0008479874,0.0002347709,5,1
-0.0008137916,0.0002278021,5,1
-0.0007701961,0.0002114335,5,1
-0.0007262764,0.0001919856,5,1
-0.0006949978,0.0001718896,5,1
-0.0006873807,0.0001535762,5,1
-0.0007056941,0.0001375317,5,1
-0.0007332452,0.0001240803,5,1
-0.0007424829,0.0001138702,5,1
-0.0007167145,0.0001094944,5,1
-0.0006517263,0.0001103047,5,1
-0.0005530285,0.0001151667,5,1
-0.000437476,0.0001187321,5,1
-0.0003284061,0.0001175977,5,1
-0.0002436459,0.000111115,5,1
-0.0001895161,0.0001012291,5,1
-0.0001582375,9.21534e-05,5,1
-0.000134576,8.372601e-05,5,1
-0.0001084835,8.032264e-05,5,1
-8.303922e-05,8.097089e-05,5,1
-6.407757e-05,8.388807e-05,5,1
-5.953974e-05,8.875003e-05,5,1
-7.55842e-05,9.037068e-05,5,1
-0.0001186936,8.259155e-05,5,1
-0.0001883817,6.606088e-05,5,1
-0.0002754107,4.077869e-05,5,1
-0.0003624398,1.274139e-05,5,1
-0.0004358554,-1.108221e-05,5,1
-0.0004922541,-2.826114e-05,5,1
-0.0005394151,-4.025397e-05,5,1
-0.0005828486,-5.062615e-05,5,1
-0.0006139652,-6.035007e-05,5,1
-0.0006290372,-6.764301e-05,5,1
-0.0006368163,-7.072225e-05,5,1
-0.0006473506,-6.991193e-05,5,1
-0.0006596675,-6.521203e-05,5,1
-0.0006629088,-5.451572e-05,5,1
-0.0006489712,-3.312309e-05,5,1
-0.0006134789,3.017472e-06,5,1
-0.0005476804,4.953022e-05,5,1
-0.0004382863,9.134307e-05,5,1
-0.0002793003,0.0001090082,5,1
-8.660465e-05,9.199134e-05,5,1
0.0001056048,4.434413e-05,5,1
0.0002605393,-1.950961e-05,5,1
0.0003621543,-8.206682e-05,5,1
0.0004127187,-0.0001319829,5,1
0.0004315182,-0.0001640719,5,1
0.0004378388,-0.0001780095,5,1
0.0004371906,-0.0001789819,5,1
0.000418553,-0.0001699062,5,1
0.000366368,-0.0001546721,5,1
0.0002793389,-0.0001402483,5,1
0.0001783722,-0.0001319829,5,1
9.393612e-05,-0.0001311726,5,1
4.72613e-05,-0.0001352242,5,1
4.304761e-05,-0.0001363587,5,1
6.849186e-05,-0.0001316588,5,1
0.0001103047,-0.000129714,5,1
0.000163138,-0.0001368449,5,1
0.0002198609,-0.0001546721,5,1
0.0002704253,-0.000176713,5,1
0.0003122381,-0.0001934057,5,1
0.0003553475,-0.0001989159,5,1
0.0004031568,-0.0001958367,5,1
0.0004435111,-0.0001862748,5,1
0.0004558281,-0.0001673132,5,1
0.0004224426,-0.0001358725,5,1
0.0003488649,-9.29252e-05,5,1
0.0002710735,-4.446767e-05,5,1
0.0002380122,-5.479652e-07,5,1
0.0002743149,2.959619e-05,5,1
0.0003477304,4.094075e-05,5,1
0.0003995914,4.110282e-05,5,1
0.0003875985,4.661304e-05,5,1
0.0003182346,7.124698e-05,5,1
0.000242388,0.0001182459,5,1
0.0002216436,0.0001756171,5,1
0.000289387,0.0002216436,5,1
0.0004297355,0.0002420638,5,1
0.0005879114,0.0002383363,5,1
0.0006973055,0.0002203471,5,1
0.0007136742,0.0001992786,5,1
0.0006306967,0.0001869616,5,1
0.0004799758,0.0001863134,5,1
0.0003128864,0.000192796,5,1
0.0001793446,0.0002021958,5,1
0.0001017153,0.0002143507,5,1
6.719535e-05,0.0002242366,5,1
4.758544e-05,0.0002320158,5,1
1.614476e-05,0.0002342847,5,1
-3.895745e-05,0.0002292607,5,1
-0.0001130213,0.0002187264,5,1
-0.0001872472,0.0002093267,5,1
-0.0002374874,0.0002068957,5,1
-0.0002425115,0.0002137024,5,1
-0.0001914609,0.0002235884,5,1
-8.563225e-05,0.0002337985,5,1
6.168512e-05,0.0002409294,5,1
0.0002231022,0.0002480603,5,1
0.000351458,0.0002577842,5,1
0.0004023465,0.0002681563,5,1
0.0003543751,0.0002733424,5,1
0.0002192126,0.0002645909,5,1
3.478228e-05,0.000237526,5,1
-0.0001564548,0.0001924718,5,1
-0.0003227338,0.0001349386,5,1
-0.0004483344,7.221937e-05,5,1
-0.0005254775,1.630683e-05,5,1
-0.000554001,-2.647842e-05,5,1
-0.0005376324,-4.997789e-05,5,1
-0.0004904714,-5.402952e-05,5,1
-0.0004332623,-4.398147e-05,5,1
-0.000387722,-2.485776e-05,5,1
-0.0003674638,-1.358292e-06,5,1
-0.0003749188,2.246531e-05,5,1
-0.0003980942,4.077869e-05,5,1
-0.000407656,4.547859e-05,5,1
-0.0003689224,3.283749e-05,5,1
-0.0002689281,5.448452e-06,5,1
-0.0001349001,-3.231277e-05,5,1
-2.712668e-05,-7.056019e-05,5,1
5.772582e-06,-0.0001036215,5,1
-4.203669e-05,-0.0001292278,5,1
-0.0001349001,-0.0001459206,5,1
-0.0002193361,-0.00015451,5,1
-0.0002502906,-0.0001601823,5,1
-0.0002105846,-0.0001700683,5,1
-0.0001096179,-0.0001836818,5,1
2.716521e-05,-0.0001968091,5,1
0.0001714034,-0.0002032917,5,1
0.0003114278,-0.0001985918,5,1
0.0004624728,-0.0001848162,5,1
0.0006619753,-0.0001682856,5,1
0.0009368383,-0.0001527273,5,1
0.0012728,-0.0001387897,5,1
0.001614921,-0.0001285796,5,1
0.001880223,-0.0001211246,5,1
0.002005823,-0.0001190177,5,1
0.001971303,-0.0001233935,5,1
0.001796596,-0.0001329553,5,1
0.001515575,-0.0001421931,5,1
0.001161785,-0.0001455964,5,1
0.0007605111,-0.0001412206,5,1
0.0003431926,-0.0001305243,5,1
-4.560212e-05,-0.0001191798,5,1
-0.0003642225,-0.0001094559,5,1
-0.0005907898,-0.0001032974,5,1
-0.0007246558,-9.924574e-05,5,1
-0.0007841337,-9.486997e-05,5,1
-0.0007883473,-9.276313e-05,5,1
-0.0007719788,-9.324933e-05,5,1
-0.0007711684,-9.649064e-05,5,1
-0.0008008264,-9.697683e-05,5,1
-0.0008531735,-9.713889e-05,5,1
-0.0009030896,-0.0001036215,5,1
-0.0009306407,-0.0001227452,5,1
-0.0009233478,-0.0001512687,5,1
-0.0008757006,-0.0001759026,5,1
-0.0007911025,-0.0001854645,5,1
-0.000673281,-0.0001746061,5,1
-0.0005316359,-0.0001462447,5,1
-0.0003695707,-0.0001079973,5,1
-0.0001893541,-6.359137e-05,5,1
6.420843e-06,-1.67545e-05,5,1
0.0002137024,2.975825e-05,5,1
0.0004230909,7.011252e-05,5,1
0.0006182176,9.863601e-05,5,1
0.0007742866,0.0001151667,5,1
0.0008605054,0.0001219734,5,1
0.0008514298,0.000125863,5,1
0.0007324737,0.0001341283,5,1
0.0005068787,0.0001537382,5,1
0.0002091646,0.0001858272,5,1
-0.0001045939,0.0002255332,5,1
-0.0003865875,0.0002652392,5,1
-0.0006123445,0.0002947351,5,1
-0.0007734374,0.0003067279,5,1
-0.0008739179,0.0002953834,5,1
-0.0009201065,0.0002616738,5,1
-0.0009199444,0.0002158093,5,1
-0.0008852624,0.0001701068,5,1
-0.000834536,0.0001318594,5,1
-0.0007838095,9.977047e-05,5,1
-0.0007381071,7.124698e-05,5,1
-0.0006886772,4.515445e-05,5,1
-0.0006228787,1.97102e-05,5,1
-0.0005330946,-7.030578e-06,5,1
-0.0004256453,-3.620233e-05,5,1
-0.0003185201,-6.618442e-05,5,1
-0.0002282497,-9.000802e-05,5,1
-0.0001606685,-0.0001013526,5,1
-0.0001062146,-9.260107e-05,5,1
-5.062615e-05,-6.359137e-05,5,1
2.586868e-05,-1.691656e-05,5,1
0.0001338042,3.867184e-05,5,1
0.0002542187,8.858796e-05,5,1
0.0003495132,0.0001213252,5,1
0.0003875985,0.0001260251,5,1
0.0003619922,0.0001025256,5,1
0.0002832284,5.552663e-05,5,1
0.0001748067,-1.682422e-06,5,1
5.260946e-05,-5.354332e-05,5,1
-7.461182e-05,-9.065628e-05,5,1
-0.0002013469,-0.000112211,5,1
-0.0003164132,-0.0001235555,5,1
-0.0004066836,-0.0001284175,5,1
-0.0004627582,-0.0001269589,5,1
-0.0004838267,-0.0001237176,5,1
-0.0004732924,-0.0001253383,5,1
-0.0004382863,-0.0001344139,5,1
-0.0003899909,-0.0001455964,5,1
-0.0003340784,-0.0001554824,5,1
-0.0002692523,-0.0001575893,5,1
-0.0001982676,-0.0001430034,5,1
-0.0001334415,-0.0001050801,5,1
-8.741498e-05,-5.2733e-05,5,1
-6.942573e-05,-6.176923e-08,5,1
-7.947377e-05,3.818565e-05,5,1
-0.0001115627,5.536457e-05,5,1
-0.0001608306,4.953022e-05,5,1
-0.0002122053,2.505836e-05,5,1
-0.000238784,-7.354709e-06,5,1
-0.000216581,-3.701266e-05,5,1
-0.0001530514,-5.629844e-05,5,1
-8.935975e-05,-6.407757e-05,5,1
-7.526008e-05,-6.213279e-05,5,1
-0.0001311726,-5.451572e-05,5,1
-0.0002382978,-4.47918e-05,5,1
-0.0003582261,-3.717473e-05,5,1
-0.0004600031,-3.150244e-05,5,1
-0.0005233706,-2.501983e-05,5,1
-0.0005386047,-1.772689e-05,5,1
-0.0004963057,-9.947754e-06,5,1
-0.0003893426,-1.682422e-06,5,1
-0.0002230636,6.420843e-06,5,1
-1.3027e-05,1.306552e-05,5,1
0.0002224539,1.808955e-05,5,1
0.0004684692,2.295151e-05,5,1
0.0007037881,3.089271e-05,5,1
0.0008972943,4.547859e-05,5,1
0.001018357,6.946425e-05,5,1
0.001067949,0.0001026876,5,1
0.001090963,0.0001367214,5,1
0.001135044,0.0001671896,5,1
0.001216887,0.0001882582,5,1
0.001319151,0.0001968476,5,1
0.001416228,0.000192958,5,1
0.001492399,0.0001809652,5,1
0.001552201,0.000165569,5,1
0.001615083,0.0001483901,5,1
0.001697574,0.0001273216,5,1
0.001793841,0.0001020394,5,1
0.00186985,7.918817e-05,5,1
0.001889298,6.703327e-05,5,1
0.001831765,7.497447e-05,5,1
0.001690443,0.0001069013,5,1
0.001476355,0.0001542244,5,1
0.001213646,0.0002039785,5,1
0.0009199835,0.0002436845,5,1
0.0006059006,0.0002691288,5,1
0.0002867939,0.0002773941,5,1
-9.137427e-06,0.0002666978,5,1
-0.0002496423,0.000239957,5,1
-0.0004136524,0.0002072198,5,1
-0.0005023021,0.0001795066,5,1
-0.0005356876,0.0001611932,5,1
-0.0005397392,0.0001517934,5,1
-0.0005403875,0.0001485521,5,1
-0.0005523803,0.0001436902,5,1
-0.0005757177,0.0001300767,5,1
-0.0005979206,0.0001070634,5,1
-0.0006107238,7.562274e-05,5,1
-0.0006128307,4.191315e-05,5,1
-0.0006100755,8.689758e-06,5,1
-0.0006134789,-2.339918e-05,5,1
-0.0006274165,-5.192267e-05,5,1
-0.000648485,-7.55842e-05,5,1
-0.0006680949,-9.324933e-05,5,1
-0.0006716604,-0.000107349,5,1
-0.000653185,-0.0001225832,5,1
-0.0006159099,-0.0001402483,5,1
-0.0005747453,-0.0001579134,5,1
-0.000556594,-0.0001747682,5,1
-0.0005818762,-0.0001930815,5,1
-0.0006457299,-0.0002130156,5,1
-0.000730328,-0.0002318152,5,1
-0.0008118468,-0.0002425115,5,1
-0.0008726213,-0.0002335979,5,1
-0.0009035757,-0.0001972953,5,1
-0.0009047102,-0.0001396,5,1
-0.000879104,-8.320128e-05,5,1
-0.000829674,-5.111234e-05,5,1
-0.0007559343,-5.64605e-05,5,1
-0.0006629088,-8.952183e-05,5,1
-0.0005666421,-0.0001238797,5,1
-0.0004924161,-0.000137169,5,1
-0.0004634065,-0.0001289037,5,1
-0.0004835025,-0.0001109144,5,1
-0.0005352014,-9.859748e-05,5,1
-0.0005869002,-0.0001015147,5,1
-0.0006115342,-0.000119828,5,1
-0.0006008379,-0.0001452723,5,1
-0.0005562698,-0.0001686097,5,1
-0.000482206,-0.0001818991,5,1
-0.0003859393,-0.0001844921,5,1
-0.0002666592,-0.000179306,5,1
-0.0001152902,-0.0001724993,5,1
7.951231e-05,-0.0001677994,5,1
0.0003101313,-0.0001648822,5,1
0.0005404262,-0.000159372,5,1
0.0007240463,-0.0001442999,5,1
0.0008259855,-0.0001178833,5,1
0.0008280924,-8.595638e-05,5,1
0.0007352289,-5.613637e-05,5,1
0.0005780254,-3.085418e-05,5,1
0.0003955397,-1.351319e-05,5,1
0.0002143507,-7.192643e-06,5,1
4.564065e-05,-1.173047e-05,5,1
-0.0001034594,-1.99958e-05,5,1
-0.0002250084,-2.145439e-05,5,1
-0.0003164132,-9.947754e-06,5,1
-0.000375405,1.533444e-05,5,1
-0.0003839945,5.034055e-05,5,1
-0.000318358,8.826383e-05,5,1
-0.000176875,0.000120839,5,1
7.879432e-06,0.0001388282,5,1
0.0001773998,0.0001404489,5,1
0.0002809595,0.000128294,5,1
0.000299597,0.0001093323,5,1
0.000249843,9.037068e-05,5,1
0.0001736723,7.756752e-05,5,1
0.0001086841,7.351589e-05,5,1
6.930219e-05,7.967438e-05,5,1
4.953022e-05,9.588091e-05,5,1
4.077869e-05,0.0001167873,5,1
4.02925e-05,0.0001425557,5,1
5.876794e-05,0.0001720516,5,1
0.0001051186,0.0002049509,5,1
0.0001785342,0.0002397949,5,1
0.0002629703,0.0002705873,5,1
0.0003355756,0.0002863077,5,1
0.0003770643,0.0002843629,5,1
0.0003867882,0.0002662116,5,1
0.0003754436,0.0002365536,5,1
0.0003629646,0.0002036544,5,1
0.0003655576,0.0001735102,5,1
0.0003859779,0.0001498487,5,1
0.0004130428,0.0001354248,5,1
0.0004235771,0.0001281319,5,1
0.0003974845,0.0001274836,5,1
0.0003320101,0.000130725,5,1
0.0002357433,0.0001341283,5,1
0.0001269974,0.0001292664,5,1
2.81376e-05,0.0001166253,5,1
-4.657452e-05,9.944634e-05,5,1
-0.0001015147,7.853991e-05,5,1
-0.0001449482,5.439218e-05,5,1
-0.000186761,3.235129e-05,5,1
-0.0002370013,1.776542e-05,5,1
-0.0002979378,1.112074e-05,5,1
-0.0003553089,1.095867e-05,5,1
-0.0003909633,1.193106e-05,5,1
-0.000392746,1.419998e-05,5,1
-0.0003682741,1.679302e-05,5,1
-0.0003395886,1.938607e-05,5,1
-0.0003149546,1.889987e-05,5,1
-0.0002794623,1.112074e-05,5,1
-0.0002118811,-8.002969e-06,5,1
-0.0001016767,-3.555408e-05,5,1
4.628891e-05,-6.715681e-05,5,1
0.0002106232,-9.875954e-05,5,1
0.0003572923,-0.0001289037,5,1
0.0004548557,-0.000156941,5,1
0.0004890515,-0.0001788198,5,1
0.0004665244,-0.0001929195,5,1
0.0004143393,-0.0002021572,5,1
0.0003561579,-0.0002088019,5,1
0.0003010556,-0.0002120432,5,1
0.0002495189,-0.0002105846,5,1
0.0002020337,-0.000206533,5,1
0.0001660552,-0.0002006986,5,1
0.0001501728,-0.0001940539,5,1
0.0001501728,-0.0001870851,5,1
0.0001514693,-0.0001786577,5,1
0.0001428799,-0.0001684476,5,1
0.0001185701,-0.0001548341,5,1
8.145709e-05,-0.000134576,5,1
3.948217e-05,-0.0001021629,5,1
-2.330684e-06,-6.326724e-05,5,1
-4.05781e-05,-2.907146e-05,5,1
-7.509801e-05,-6.058186e-06,5,1
-0.0001060525,5.448452e-06,5,1
-0.0001383035,7.069105e-06,5,1
-0.0001741199,1.883015e-06,5,1
-0.0002130156,-4.923729e-06,5,1
-0.000246239,-7.354709e-06,5,1
-0.0002642282,-2.81688e-06,5,1
-0.0002606628,1.063454e-05,5,1
-0.0002358668,2.748934e-05,5,1
-0.0001984297,4.256141e-05,5,1
-0.0001650443,5.066468e-05,5,1
-0.0001509446,5.341979e-05,5,1
-0.0001605064,5.19612e-05,5,1
-0.0001848162,4.807163e-05,5,1
-0.0002039399,4.061663e-05,5,1
-0.000196647,3.089271e-05,5,1
-0.0001558065,1.889987e-05,5,1
-9.438378e-05,1.720949e-06,5,1
-2.712668e-05,-2.09682e-05,5,1
5.163707e-05,-4.85193e-05,5,1
0.0001564933,-7.493595e-05,5,1
0.0002905214,-9.162867e-05,5,1
0.0004376768,-9.146661e-05,5,1
0.0005705704,-6.796714e-05,5,1
0.0006517651,-2.453363e-05,5,1
0.0006480376,3.364782e-05,5,1
0.00055485,9.750156e-05,5,1
0.0003974845,0.0001561692,5,1
0.0002269918,0.0002030061,5,1
9.247754e-05,0.0002391467,5,1
1.12828e-05,0.0002600531,5,1
-2.89094e-05,0.0002613496,5,1
-4.090223e-05,0.0002459534,5,1
-2.437157e-05,0.0002206712,5,1
2.133085e-05,0.0001971717,5,1
8.761557e-05,0.0001817755,5,1
0.0001579519,0.0001701068,5,1
0.0002208333,0.0001551968,5,1
0.0002631324,0.0001323456,5,1
0.0002701012,0.0001043083,5,1
0.0002360674,7.870197e-05,5,1
0.000168,6.41161e-05,5,1
8.502253e-05,6.103686e-05,5,1
1.808955e-05,6.217132e-05,5,1
-9.461558e-06,6.087479e-05,5,1
3.341602e-06,5.293359e-05,5,1
3.656499e-05,3.948217e-05,5,1
6.541262e-05,2.522042e-05,5,1
7.610894e-05,1.614476e-05,5,1
6.427817e-05,1.711715e-05,5,1
2.700314e-05,2.635488e-05,5,1
-3.539201e-05,3.429608e-05,5,1
-0.0001173971,3.089271e-05,5,1
-0.0001994021,1.193106e-05,5,1
-0.0002588801,-1.270286e-05,5,1
-0.0002852967,-3.360929e-05,5,1
-0.0002767073,-4.770897e-05,5,1
-0.0002417012,-5.824322e-05,5,1
-0.0001956746,-7.039812e-05,5,1
-0.0001600202,-8.838737e-05,5,1
-0.0001489998,-0.0001151281,5,1
-0.0001627754,-0.0001481895,5,1
-0.0001757406,-0.0001771992,5,1
-0.0001587237,-0.0001985918,5,1
-9.438378e-05,-0.0002120432,5,1
1.808955e-05,-0.0002172293,5,1
0.0001723757,-0.0002144742,5,1
0.0003589129,-0.0002092881,5,1
0.0005600362,-0.0002057227,5,1
0.0007468975,-0.0002078295,5,1
0.0008827084,-0.0002131776,5,1
0.0009402417,-0.0002136638,5,1
0.0009023183,-0.0001982676,5,1
0.0007609973,-0.0001661787,5,1
0.0005321609,-0.0001264727,5,1
0.0002629703,-8.838737e-05,5,1
2.04508e-06,-5.856735e-05,5,1
-0.0002126914,-4.495386e-05,5,1
-0.0003501228,-4.657452e-05,5,1
-0.0003859393,-5.69467e-05,5,1
-0.0003170615,-6.650855e-05,5,1
-0.0001723372,-6.877746e-05,5,1
-1.075808e-05,-5.710876e-05,5,1
0.0001051186,-2.874733e-05,5,1
0.0001338042,1.452411e-05,5,1
6.735741e-05,6.298164e-05,5,1
-7.477388e-05,0.0001004187,5,1
-0.0002634179,0.0001179218,5,1
-0.0004732924,0.0001148425,5,1
-0.0006825188,9.507057e-05,5,1
-0.0008666249,6.768154e-05,5,1
-0.0009954668,4.288554e-05,5,1
-0.001044735,2.684107e-05,5,1
-0.0009980599,2.295151e-05,5,1
-0.0008633836,3.105477e-05,5,1
-0.0006727948,4.596478e-05,5,1
-0.0004836646,6.136099e-05,5,1
-0.0003439643,7.886404e-05,5,1
-0.0002754107,0.0001023635,5,1
-0.0002679557,0.0001362352,5,1
-0.0002857829,0.0001791825,5,1
-0.0002942103,0.0002255332,5,1
-0.0002864312,0.0002649151,5,1
-0.0002746004,0.0002898731,5,1
-0.0002720074,0.0003018659,5,1
-0.0002812451,0.0003054314,5,1
-0.0002966413,0.000299435,5,1
-0.0003143064,0.0002835526,5,1
-0.0003386162,0.0002566497,5,1
-0.0003676259,0.0002227781,5,1
-0.0003930701,0.0001913374,5,1
-0.0003997148,0.0001720516,5,1
-0.0003796187,0.0001652449,5,1
-0.0003347266,0.0001650828,5,1
-0.0002768693,0.0001676758,5,1
-0.0002293842,0.0001671896,5,1
-0.0002109087,0.0001571416,5,1
-0.0002196603,0.0001334801,5,1
-0.0002310048,9.669123e-05,5,1
-0.0002117191,5.325772e-05,5,1
-0.0001386276,9.013889e-06,5,1
-1.886135e-05,-3.085418e-05,5,1
0.0001166253,-5.775702e-05,5,1
0.0002316917,-6.423963e-05,5,1
0.000311914,-4.738484e-05,5,1
0.0003668542,-1.821308e-05,5,1
0.0004156358,7.069105e-06,5,1
0.0004686312,1.565857e-05,5,1
0.0005167646,5.124321e-06,5,1
0.0005391297,-1.934754e-05,5,1
0.0005196818,-4.80331e-05,5,1
0.0004511282,-7.65566e-05,5,1
0.0003371962,-0.0001052422,5,1
0.0001876099,-0.0001352242,5,1
1.9224e-05,-0.0001655305,5,1
-0.0001439758,-0.0001922712,5,1
-0.000276059,-0.0002104225,5,1
-0.0003624398,-0.0002203085,5,1
-0.0003888564,-0.0002232257,5,1
-0.0003493125,-0.0002217671,5,1
-0.0002533699,-0.0002152845,5,1
-0.000132145,-0.0002068571,5,1
-2.728874e-05,-0.0001994021,5,1
2.586868e-05,-0.0001930815,5,1
6.096713e-06,-0.0001877334,5,1
-7.866345e-05,-0.0001830335,5,1
-0.0001921092,-0.0001784957,5,1
-0.0002895104,-0.0001728234,5,1
-0.0003369955,-0.0001653684,5,1
-0.000330675,-0.0001551583,5,1
-0.0002898345,-0.0001472171,5,1
-0.0002449425,-0.0001462447,5,1
-0.0002138259,-0.0001540238,5,1
-0.0001859507,-0.0001674752,5,1
-0.0001384655,-0.0001796301,5,1
-6.229485e-05,-0.0001818991,5,1
3.55926e-05,-0.0001731475,5,1
0.000145797,-0.0001546721,5,1
0.0002678322,-0.0001277692,5,1
0.0004062361,-9.2439e-05,5,1
0.0005563086,-4.916756e-05,5,1
0.0007024916,-7.516774e-06,5,1
0.0008266338,2.619281e-05,5,1
0.0009115561,4.466826e-05,5,1
0.0009480208,4.434413e-05,5,1
0.0009400796,2.943412e-05,5,1
0.0009117182,1.54965e-05,5,1
0.000876712,1.744129e-05,5,1
0.0008279303,4.483033e-05,5,1
0.0007517595,9.571884e-05,5,1
0.0006491721,0.0001586002,5,1
0.0005365367,0.0002172679,5,1
0.0004430249,0.0002574601,5,1
0.0003971604,0.0002731804,5,1
0.0004098015,0.0002689667,5,1
0.0004726828,0.0002563256,5,1
0.0005580913,0.0002431983,5,1
0.0006282657,0.0002318537,5,1
0.0006478756,0.0002247229,5,1
0.0006055765,0.0002221298,5,1
0.0005123889,0.0002232643,5,1
0.0003918123,0.0002239125,5,1
0.000274639,0.000220023,5,1
0.0001843686,0.0002099749,5,1
0.0001304008,0.0001942546,5,1
9.620504e-05,0.000178048,5,1
5.585077e-05,0.0001670276,5,1
-3.789272e-06,0.000163138,5,1
-7.444975e-05,0.0001633001,5,1
-0.0001295519,0.0001618415,5,1
-0.0001478653,0.0001568175,5,1
-0.0001327933,0.0001495245,5,1
-0.0001165867,0.0001363972,5,1
-0.0001441378,0.0001143563,5,1
-0.0002357047,8.340187e-05,5,1
-0.0003737844,4.807163e-05,5,1
-0.0005164018,1.452411e-05,5,1
-0.0006202856,-1.432352e-05,5,1
-0.0006595054,-3.879538e-05,5,1
-0.0006272545,-5.872941e-05,5,1
-0.0005377944,-7.65566e-05,5,1
-0.0004193247,-9.357346e-05,5,1
-0.0003005308,-0.0001105903,5,1
-0.0002063709,-0.0001267968,5,1
-0.0001522411,-0.0001408965,5,1
-0.0001391138,-0.0001465688,5,1
-0.0001533756,-0.0001376552,5,1
-0.0001724993,-0.0001151281,5,1
-0.0001794681,-8.628052e-05,5,1
-0.0001665028,-6.602235e-05,5,1
-0.0001363587,-6.051213e-05,5,1
-9.713889e-05,-6.764301e-05,5,1
-5.921561e-05,-8.206682e-05,5,1
-3.328516e-05,-9.989401e-05,5,1
-1.983374e-05,-0.0001173971,5,1
-1.173047e-05,-0.0001311726,5,1
7.393236e-06,-0.0001412206,5,1
5.082674e-05,-0.0001457585,5,1
0.0001119254,-0.000144462,5,1
0.0001647587,-0.0001407345,5,1
0.0001861513,-0.0001368449,5,1
0.0001613553,-0.0001363587,5,1
9.296373e-05,-0.0001441378,5,1
-7.678839e-06,-0.000161965,5,1
-0.0001316588,-0.00018433,5,1
-0.0002720074,-0.0002039399,5,1
-0.0004180282,-0.0002194982,5,1
-0.0005473563,-0.0002297083,5,1
-0.0006374646,-0.0002280877,5,1
-0.000668257,-0.0002118811,5,1
-0.0006266062,-0.000181737,5,1
-0.0005086227,-0.0001402483,5,1
-0.0003321336,-9.308726e-05,5,1
-0.0001358725,-4.560212e-05,5,1
2.700314e-05,2.693341e-06,5,1
0.0001098185,5.19612e-05,5,1
9.960841e-05,0.0001044704,5,1
2.149292e-05,0.0001563313,5,1
-8.02841e-05,0.0001987924,5,1
-0.0001786577,0.0002282883,5,1
-0.000261311,0.0002381743,5,1
-0.0003180339,0.0002297469,5,1
-0.0003408851,0.0002086784,5,1
-0.0003275957,0.0001848548,5,1
-0.000283514,0.0001657311,5,1
-0.0002185258,0.0001548727,5,1
-0.0001454344,0.0001511452,5,1
-7.688073e-05,0.0001514693,5,1
-1.529591e-05,0.0001527658,5,1
3.899597e-05,0.0001472556,5,1
8.583286e-05,0.0001300767,5,1
0.0001231079,0.000105929,5,1
0.0001508211,8.340187e-05,5,1
0.000170593,7.173317e-05,5,1
0.0001824238,6.995045e-05,5,1
0.0001825859,7.562274e-05,5,1
0.0001652449,9.004655e-05,5,1
0.0001321835,0.0001137081,5,1
9.231547e-05,0.0001402868,5,1
6.119892e-05,0.0001598967,5,1
4.434413e-05,0.0001701068,5,1
4.175109e-05,0.0001722137,5,1
4.920609e-05,0.0001718896,5,1
6.816773e-05,0.000173024,5,1
0.0001043083,0.0001728619,5,1
0.0001584381,0.000170431,5,1
0.0002141886,0.0001667035,5,1
0.0002448189,0.0001621656,5,1
0.0002316917,0.0001587623,5,1
0.0001717275,0.0001576278,5,1
8.032264e-05,0.0001603829,5,1
-2.015787e-05,0.0001645966,5,1
-0.0001143178,0.0001644345,5,1
-0.0001977815,0.0001564933,5,1
-0.0002705488,0.0001412592,5,1
-0.0003277578,0.0001214872,5,1
-0.0003488263,0.00010366,5,1
-0.0003087962,9.231547e-05,5,1
-0.0002039399,8.826383e-05,5,1
-5.59743e-05,9.037068e-05,5,1
0.0001000946,9.199134e-05,5,1
0.0002396328,8.891209e-05,5,1
0.0003589129,7.886404e-05,5,1
0.0004571246,6.379197e-05,5,1
0.0005253541,4.35338e-05,5,1
0.0005543638,2.084466e-05,5,1
0.0005368608,-2.168618e-06,5,1
0.0004801379,-2.291298e-05,5,1
0.0004031568,-4.608832e-05,5,1
0.0003282826,-8.125649e-05,5,1
0.0002752873,-0.0001327933,5,1
0.0002504913,-0.000196647,5,1
0.0002493568,-0.0002554767,5,1
0.0002592428,-0.0002950206,5,1
0.0002504913,-0.0003097686,5,1
0.0001910133,-0.0003055549,5,1
6.865393e-05,-0.0002953447,5,1
-8.82253e-05,-0.0002856209,5,1
-0.000231329,-0.0002768693,5,1
-0.0003288923,-0.000266173,5,1
-0.0003833462,-0.0002545043,5,1
-0.0004196489,-0.0002444563,5,1
-0.0004606514,-0.0002392702,5,1
-0.000514457,-0.0002371633,5,1
-0.00056648,-0.0002355427,5,1
-0.0005872243,-0.0002316531,5,1
-0.0005634008,-0.0002253326,5,1
-0.0004984126,-0.0002173914,5,1
-0.0004071698,-0.0002094502,5,1
-0.0003065273,-0.0002024813,5,1
-0.000206533,-0.0001997262,5,1
-0.0001130213,-0.0002010227,5,1
-1.788895e-05,-0.0002039399,5,1
9.426025e-05,-0.0002044261,5,1
0.0002323399,-0.0002000504,5,1
0.0003791712,-0.0001908126,5,1
0.0005010443,-0.000171851,5,1
0.000572191,-0.0001361966,5,1
0.0005948802,-8.40116e-05,5,1
0.0005864528,-2.534396e-05,5,1
0.0005760806,2.570662e-05,5,1
0.0005927734,6.281957e-05,5,1
0.0006443101,8.453633e-05,5,1
0.0007054088,9.280167e-05,5,1
0.0007336082,9.523264e-05,5,1
0.0007031399,9.879808e-05,5,1
0.000621783,0.0001064152,5,1
0.0005026649,0.0001175977,5,1
0.0003519442,0.0001278078,5,1
0.0001699448,0.0001338042,5,1
-3.312309e-05,0.000130725,5,1
-0.0002224154,0.0001132219,5,1
-0.0003588744,8.340187e-05,5,1
-0.0004136524,4.936815e-05,5,1
-0.0003888564,1.64689e-05,5,1
-0.0003186821,-9.299493e-06,5,1
-0.0002425115,-2.46957e-05,5,1
-0.000179306,-3.409549e-05,5,1
-0.0001303623,-4.187462e-05,5,1
-9.357346e-05,-4.916756e-05,5,1
-6.602235e-05,-5.759496e-05,5,1
-4.527799e-05,-6.602235e-05,5,1
-3.004385e-05,-7.60704e-05,5,1
-1.513384e-05,-8.368748e-05,5,1
9.175954e-06,-8.02841e-05,5,1
5.747142e-05,-5.840528e-05,5,1
0.0001338042,-1.20546e-05,5,1
0.000225047,5.811968e-05,5,1
0.0003096451,0.0001459591,5,1
0.000378685,0.0002303951,5,1
0.0004418904,0.0002903593,5,1
0.0005039615,0.0003136967,5,1
0.0005577672,0.0003117519,5,1
0.0005871011,0.0003062417,5,1
0.0005822391,0.0003112658,5,1
0.0005402642,0.0003237448,5,1
0.000458097,0.0003331446,5,1
0.0003368721,0.0003326584,5,1
0.0001859892,0.0003185587,5,1
2.165498e-05,0.0002903593,5,1
-0.0001368449,0.0002503292,5,1
-0.0002700626,0.000202682,5,1
-0.0003582261,0.0001526038,5,1
-0.000397608,0.0001052807,5,1
-0.0003997148,6.476436e-05,5,1
-0.0003857772,3.915804e-05,5,1
-0.0003765395,3.462021e-05,5,1
-0.0003899909,4.645098e-05,5,1
-0.0004343968,6.184718e-05,5,1
-0.0005097571,7.092284e-05,5,1
-0.0006031067,6.751948e-05,5,1
-0.0006972667,5.487838e-05,5,1
-0.0007782993,3.705119e-05,5,1
-0.0008437737,1.663096e-05,5,1
-0.0008957966,-2.654814e-06,5,1
-0.0009335579,-2.015787e-05,5,1
-0.0009585159,-3.863332e-05,5,1
-0.0009742362,-6.423963e-05,5,1
-0.0009799085,-0.0001005423,5,1
-0.0009716432,-0.0001439758,5,1
-0.0009444162,-0.000186761,5,1
-0.0008909347,-0.0002250084,5,1
-0.0008081193,-0.0002545043,5,1
-0.0007045596,-0.0002734659,5,1
-0.000598893,-0.0002838381,5,1
-0.0005037607,-0.0002862691,5,1
-0.0004173799,-0.0002791382,5,1
-0.0003334301,-0.0002652006,5,1
-0.0002452666,-0.0002493182,5,1
-0.0001543479,-0.0002352185,5,1
-7.509801e-05,-0.0002212809,5,1
-1.659243e-05,-0.0002026434,5,1
2.149292e-05,-0.000171851,5,1
5.082674e-05,-0.0001274451,5,1
8.405014e-05,-7.833932e-05,5,1
0.0001291043,-4.090223e-05,5,1
0.000187772,-2.388537e-05,5,1
0.0002542187,-2.84232e-05,5,1
0.0003253654,-4.80331e-05,5,1
0.000401212,-6.877746e-05,5,1
0.0004872688,-7.914964e-05,5,1
0.0005811046,-7.688073e-05,5,1
0.0006747784,-6.245691e-05,5,1
0.0007593766,-3.798505e-05,5,1
0.0008290648,-8.165035e-06,5,1
0.0008796292,2.01964e-05,5,1
0.0009045873,4.061663e-05,5,1
0.0008995633,5.358185e-05,5,1
0.000861964,6.233338e-05,5,1
0.0008002172,7.20573e-05,5,1
0.0007229118,8.74535e-05,5,1
0.0006336138,0.0001057669,5,1
0.0005389676,0.0001232699,5,1
0.0004550177,0.0001378558,5,1
0.0003958639,0.0001493625,5,1
0.0003653956,0.0001608691,5,1
0.000359075,0.0001757791,5,1
0.0003632887,0.0001974959,5,1
0.0003624784,0.0002216436,5,1
0.0003475684,0.0002391467,5,1
0.0003162898,0.0002469258,5,1
0.0002738286,0.0002503292,5,1
0.0002273159,0.0002540567,5,1
0.0001723757,0.0002581083,5,1
9.426025e-05,0.000259891,5,1
-1.788895e-05,0.0002579462,5,1
-0.0001605064,0.0002464396,5,1
-0.0003128478,0.0002248849,5,1
-0.0004395829,0.0001965235,5,1
-0.0005099192,0.0001696206,5,1
-0.0005126743,0.0001488763,5,1
-0.0004587066,0.0001368834,5,1
-0.0003621157,0.0001320215,5,1
-0.0002334358,0.0001310491,5,1
-9.146661e-05,0.0001281319,5,1
3.299956e-05,0.0001227837,5,1
0.0001127357,0.0001195424,5,1
0.0001286181,0.0001255389,5,1
7.805372e-05,0.0001351007,5,1
-2.177852e-05,0.0001368834,5,1
-0.0001319829,0.0001276457,5,1
-0.000213988,0.0001070634,5,1
-0.0002523975,7.691926e-05,5,1
-0.0002504527,4.094075e-05,5,1
-0.0002253326,7.879432e-06,5,1
-0.0001904885,-1.707863e-05,5,1
-0.0001468929,-3.68506e-05,5,1
-8.482193e-05,-5.565017e-05,5,1
2.207145e-06,-7.396356e-05,5,1
0.0001081979,-8.806324e-05,5,1
0.0002167816,-9.600444e-05,5,1
0.0003122381,-9.956988e-05,5,1
0.0003781987,-0.0001024871,5,1
0.0003948915,-0.0001057284,5,1
0.0003472443,-0.0001083214,5,1
0.0002359054,-0.0001109144,5,1
7.643307e-05,-0.0001157764,5,1
-0.0001021629,-0.000122097,5,1
-0.0002747625,-0.0001267968,5,1
-0.0004235384,-0.0001256624,5,1
-0.0005313118,-0.0001206384,5,1
-0.0005831727,-0.0001157764,5,1
-0.0005635628,-0.0001125351,5,1
-0.0004856094,-0.0001105903,5,1
-0.0003901529,-0.0001102662,5,1
-0.0003201407,-0.0001143178,5,1
-0.0002937241,-0.0001238797,5,1
-0.0002992343,-0.0001365208,5,1
-0.0003151167,-0.0001499722,5,1
-0.0003272716,-0.0001629374,5,1
-0.0003365093,-0.0001737958,5,1
-0.0003559572,-0.0001833576,5,1
-0.0003895047,-0.0001901644,5,1
-0.0004204592,-0.0001927574,5,1
-0.0004219178,-0.0001969711,5,1
-0.0003755671,-0.0002058847,5,1
-0.0002718453,-0.0002173914,5,1
-0.0001109144,-0.0002271153,5,1
9.928428e-05,-0.0002344082,5,1
0.000339303,-0.0002404046,5,1
0.0005754323,-0.0002451045,5,1
0.0007668316,-0.0002442942,5,1
0.0008924323,-0.0002337599,5,1
0.0009596896,-0.0002113949,5,1
0.0009976128,-0.0001786577,5,1
0.001033591,-0.0001383035,5,1
0.001074594,-9.308726e-05,5,1
0.001109924,-4.608832e-05,5,1
0.001122565,-6.176923e-08,5,1
0.001100687,4.402e-05,5,1
0.001048988,8.486046e-05,5,1
0.0009799477,0.0001201907,5,1
0.0009003736,0.0001479039,5,1
0.0008063756,0.0001624898,5,1
0.0006794783,0.0001634622,5,1
0.0004995857,0.0001524417,5,1
0.0002629703,0.0001355869,5,1
-2.330684e-06,0.0001190562,5,1
-0.0002472114,0.0001067393,5,1
-0.0004269418,9.977047e-05,5,1
-0.0005165638,9.912221e-05,5,1
-0.0005107295,0.0001070634,5,1
-0.0004331002,0.000123432,5,1
-0.0003329439,0.0001425557,5,1
-0.000266011,0.0001571416,5,1
-0.0002653627,0.0001652449,5,1
-0.0003245165,0.0001697827,5,1
-0.0004003631,0.0001749688,5,1
-0.0004450931,0.0001895547,5,1
-0.0004413656,0.0002106232,5,1
-0.0004094387,0.0002305572,5,1
-0.0003899909,0.0002427121,5,1
-0.0004130042,0.0002451431,5,1
-0.0004835025,0.0002412535,5,1
-0.0005825245,0.0002388225,5,1
-0.0006786292,0.0002422259,5,1
-0.0007400519,0.0002519498,5,1
-0.0007460483,0.0002675081,5,1
-0.0006961322,0.000279663,5,1
-0.00061121,0.0002799871,5,1
-0.0005133225,0.0002637806,5,1
-0.0004112214,0.0002368777,5,1
-0.0003060411,0.0002098128,5,1
-0.0001956746,0.0001889064,5,1
-7.671866e-05,0.0001756171,5,1
4.369587e-05,0.0001670276,5,1
0.000155521,0.000158114,5,1
0.0002480603,0.0001443384,5,1
0.0003055935,0.0001187321,5,1
0.0003067279,7.756752e-05,5,1
0.0002401191,2.149292e-05,5,1
0.0001190562,-4.284701e-05,5,1
-2.923353e-05,-0.0001062146,5,1
-0.0001750923,-0.0001616409,5,1
-0.0002966413,-0.0002052365,5,1
-0.0003885323,-0.0002358668,5,1
-0.0004577342,-0.0002569353,5,1
-0.0005136467,-0.0002703867,5,1
-0.0005616181,-0.0002771934,5,1
-0.0005945173,-0.0002805968,5,1
-0.0005995413,-0.0002822175,5,1
-0.0005705316,-0.0002812451,5,1
-0.0005214258,-0.0002742763,5,1
-0.0004852853,-0.0002582318,5,1
-0.0004911196,-0.0002358668,5,1
-0.0005570802,-0.0002125294,5,1
-0.000678305,-0.0001953505,5,1
-0.0008214086,-0.0001912988,5,1
-0.0009353406,-0.0002005366,5,1
-0.0009833119,-0.0002162569,5,1
-0.0009543023,-0.0002271153,5,1
-0.0008635456,-0.0002254946,5,1
-0.0007410243,-0.0002135018,5,1
-0.0006055377,-0.0001940539,5,1
-0.0004535205,-0.0001737958,5,1
-0.0002801106,-0.0001580754,5,1
-9.114248e-05,-0.0001454344,5,1
9.280167e-05,-0.0001295519,5,1
0.0002495189,-0.00010978,5,1
0.0003760919,-9.033215e-05,5,1
0.000500234,-7.574627e-05,5,1
0.0006516031,-6.180866e-05,5,1
0.0008509436,-4.625038e-05,5,1
0.00109858,-2.874733e-05,5,1
0.001371984,-1.043395e-05,5,1
0.001631289,4.80019e-06,5,1
0.001841003,1.355172e-05,5,1
0.001978758,1.630683e-05,5,1
0.002034671,1.582063e-05,5,1
0.00200323,1.306552e-05,5,1
0.001893188,7.717366e-06,5,1
0.001725774,-2.238346e-07,5,1
0.001528054,-9.947754e-06,5,1
0.00132774,-1.756482e-05,5,1
0.001146065,-1.480971e-05,5,1
0.0009942095,3.503668e-06,5,1
0.0008658536,3.721326e-05,5,1
0.0007420356,8.080883e-05,5,1
0.0006012007,0.0001261871,5,1
0.0004349216,0.0001696206,5,1
0.0002527602,0.0002140265,5,1
7.999851e-05,0.0002600531,5,1
-5.127441e-05,0.0003102934,5,1
-0.0001211246,0.000361506,5,1
-0.0001295519,0.0004101256,5,1
-9.308726e-05,0.0004501558,5,1
-4.138842e-05,0.0004744656,5,1
-1.010982e-05,0.0004764104,5,1
-3.069211e-05,0.0004525868,5,1
-0.0001141558,0.0004070464,5,1
-0.0002501286,0.00035162,5,1
-0.0004045768,0.0002955454,5,1
-0.000541846,0.0002467637,5,1
-0.0006373025,0.0002141886,5,1
-0.0006810602,0.0001983062,5,1
-0.0006755499,0.0001887444,5,1
-0.0006411921,0.0001765894,5,1
-0.0006045654,0.0001564933,5,1
-0.0005899795,0.0001299146,5,1
-0.0006092652,0.0001030118,5,1
-0.0006575607,8.518459e-05,5,1
-0.0007181731,8.275361e-05,5,1
-0.0007739235,9.798775e-05,5,1
-0.0008094159,0.0001245665,5,1
-0.0008193018,0.0001454729,5,1
-0.0007958024,0.0001441764,5,1
-0.0007338934,0.000115977,5,1
-0.0006321164,6.946425e-05,5,1
-0.0004984126,1.484824e-05,5,1
-0.0003425058,-3.766092e-05,5,1
-0.0001645581,-8.595638e-05,5,1
2.975825e-05,-0.0001295519,5,1
0.0002232643,-0.0001690959,5,1
0.0003765781,-0.0002050744,5,1
0.0004525868,-0.0002331117,5,1
0.0004396215,-0.0002481838,5,1
0.00035162,-0.0002501286,5,1
0.0002122438,-0.0002431597,5,1
5.649903e-05,-0.0002323013,5,1
-8.40116e-05,-0.0002225774,5,1
-0.0001864369,-0.0002225774,5,1
-0.0002433218,-0.0002337599,5,1
-0.0002574215,-0.0002519113,5,1
-0.0002452666,-0.0002731418,5,1
-0.0002300324,-0.0002953447,5,1
-0.000231329,-0.000313334,5,1
-0.0002502906,-0.0003219235,5,1
-0.0002682799,-0.0003198166,5,1
-0.0002640662,-0.0003070135,5,1
-0.0002245222,-0.0002908069,5,1
-0.0001538618,-0.0002776796,5,1
-7.752899e-05,-0.0002694143,5,1
-3.020592e-05,-0.0002692523,5,1
-3.441962e-05,-0.0002804347,5,1
-9.29252e-05,-0.0003018274,5,1
-0.0001844921,-0.00032322,5,1
-0.0002763831,-0.0003288923,5,1
-0.000335537,-0.0003027998,5,1
-0.0003457471,-0.0002376495,5,1
-0.000310741,-0.0001423551,5,1
-0.0002470493,-4.38194e-05,5,1
-0.0001676373,3.154097e-05,5,1
-7.526008e-05,7.092284e-05,5,1
2.732727e-05,7.610894e-05,5,1
0.0001347766,5.99024e-05,5,1
0.0002326641,3.964424e-05,5,1
0.0003047831,2.522042e-05,5,1
0.0003352514,1.64689e-05,5,1
0.000316776,9.824215e-06,5,1
0.0002561635,7.485573e-07,5,1
0.0001757791,-1.3027e-05,5,1
0.0001052807,-2.696461e-05,5,1
7.270556e-05,-3.539201e-05,5,1
8.907416e-05,-3.604027e-05,5,1
0.0001372076,-3.150244e-05,5,1
0.0001833962,-2.372331e-05,5,1
0.000202682,-1.221667e-05,5,1
0.0001840444,5.610517e-06,5,1
0.0001294284,2.927205e-05,5,1
5.017848e-05,5.504044e-05,5,1
-3.360929e-05,7.772959e-05,5,1
-0.0001042698,9.555677e-05,5,1
-0.0001502963,0.0001106288,5,1
-0.000169258,0.0001265113,5,1
-0.0001600202,0.000145797,5,1
-0.0001188556,0.0001717275,5,1
-4.981582e-05,0.0002038164,5,1
3.510641e-05,0.000237526,5,1
0.0001116012,0.000267184,5,1
0.00015309,0.0002889007,5,1
0.0001474177,0.0003015418,5,1
9.977047e-05,0.0003010556,5,1
2.197911e-05,0.0002872801,5,1
-7.282909e-05,0.0002658874,5,1
-0.0001697442,0.0002456293,5,1
-0.0002520733,0.0002344468,5,1
-0.0002993964,0.0002321778,5,1
-0.0002895104,0.0002310434,5,1
-0.0002005366,0.0002247229,5,1
-3.393342e-05,0.0002114335,5,1
0.0001731861,0.0001921477,5,1
0.0003666921,0.0001714034,5,1
0.00051012,0.000153252,5,1
0.0005854804,0.0001391524,5,1
0.0005926113,0.000130725,5,1
0.0005396159,0.0001274836,5,1
0.0004461041,0.0001268354,5,1
0.0003414099,0.0001201907,5,1
0.0002470879,0.00010366,5,1
0.0001723757,7.999851e-05,5,1
0.0001072255,5.666109e-05,5,1
3.575467e-05,4.207521e-05,5,1
-4.738484e-05,3.543054e-05,5,1
-0.0001277692,3.364782e-05,5,1
-0.0001882196,2.992031e-05,5,1
-0.0002186879,1.841368e-05,5,1
-0.0002133397,-3.14101e-06,5,1
-0.0001700683,-2.955766e-05,5,1
-8.984595e-05,-5.613637e-05,5,1
9.013889e-06,-8.206682e-05,5,1
9.782569e-05,-0.0001071869,5,1
0.000153252,-0.0001280934,5,1
0.0001696206,-0.0001399241,5,1
0.0001584381,-0.0001396,5,1
0.0001347766,-0.0001302002,5,1
0.0001067393,-0.0001175591,5,1
7.610894e-05,-0.0001075111,5,1
3.818565e-05,-0.0001032974,5,1
-1.25408e-05,-0.0001045939,5,1
-6.829127e-05,-0.0001112386,5,1
-0.000107349,-0.0001186936,5,1
-0.0001107524,-0.00012469,5,1
-8.012204e-05,-0.0001298761,5,1
-3.68506e-05,-0.0001357104,5,1
-6.220252e-06,-0.0001439758,5,1
3.827799e-06,-0.0001541859,5,1
-2.168618e-06,-0.0001634236,5,1
-1.740276e-05,-0.0001699062,5,1
-3.490581e-05,-0.0001739578,5,1
-5.111234e-05,-0.0001757406,5,1
-6.504996e-05,-0.0001715269,5,1
-7.979791e-05,-0.0001553203,5,1
-0.0001052422,-0.0001235555,5,1
-0.0001400862,-7.55842e-05,5,1
-0.0001707166,-1.805102e-05,5,1
-0.0001835197,4.191315e-05,5,1
-0.0001731475,9.490851e-05,5,1
-0.0001511067,0.000135749,5,1
-0.0001298761,0.0001597346,5,1
-0.0001112386,0.0001668655,5,1
-8.838737e-05,0.0001620036,5,1
-5.208474e-05,0.0001514693,5,1
-3.14101e-06,0.0001414213,5,1
4.272347e-05,0.0001351007,5,1
6.638502e-05,0.000133318,5,1
6.087479e-05,0.0001393144,5,1
5.714729e-05,0.0001550348,5,1
0.0001090082,0.0001764274,5,1
0.000264753,0.0001932822,5,1
0.0005290816,0.0001974959,5,1
0.0008475402,0.0001911753,5,1
0.001129696,0.0001809652,5,1
0.001293383,0.0001739964,5,1
0.00130262,0.0001718896,5,1
0.001178478,0.0001697827,5,1
0.0009794616,0.0001615174,5,1
0.000767804,0.0001446626,5,1
0.0005848321,0.0001227837,5,1
0.0004493454,0.0001017153,5,1
0.0003559958,8.502253e-05,5,1
0.0002853353,7.513654e-05,5,1
0.000210137,7.108491e-05,5,1
0.0001091703,7.076078e-05,5,1
-2.210265e-05,7.20573e-05,5,1
-0.0001728234,7.076078e-05,5,1
-0.000325651,6.508849e-05,5,1
-0.00046211,5.455425e-05,5,1
-0.0005693972,4.434413e-05,5,1
-0.000643461,4.126489e-05,5,1
-0.0006885151,4.790957e-05,5,1
-0.0007120146,6.006447e-05,5,1
-0.0007159042,6.995045e-05,5,1
-0.0006987253,7.189524e-05,5,1
-0.0006593434,6.249545e-05,5,1
-0.0006016482,4.807163e-05,5,1
-0.0005350393,3.429608e-05,5,1
-0.0004757234,2.376183e-05,5,1
-0.0004389346,1.582063e-05,5,1
-0.0004288866,8.365628e-06,5,1
-0.0004358554,-2.168618e-06,5,1
-0.0004387725,-1.772689e-05,5,1
-0.000419973,-3.296103e-05,5,1
-0.000375405,-4.38194e-05,5,1
-0.0003175477,-5.111234e-05,5,1
-0.000261149,-6.375344e-05,5,1
-0.0002083157,-8.530812e-05,5,1
-0.0001391138,-0.0001131834,5,1
-3.182657e-05,-0.0001436516,5,1
0.0001218114,-0.0001682856,5,1
0.000307052,-0.0001830335,5,1
0.0004895377,-0.0001877334,5,1
0.0006295622,-0.0001895161,5,1
0.0006989262,-0.0001969711,5,1
0.0006846645,-0.0002147983,5,1
0.0005995801,-0.0002452666,5,1
0.0004658761,-0.0002833519,5,1
0.0003026763,-0.0003225718,5,1
0.0001239182,-0.0003583881,5,1
-5.257093e-05,-0.0003857772,5,1
-0.0002135018,-0.0004023079,5,1
-0.0003523917,-0.0004068457,5,1
-0.0004648651,-0.0003959873,5,1
-0.0005463839,-0.000370381,5,1
-0.0005956517,-0.0003319715,5,1
-0.0006141272,-0.0002882139,5,1
-0.0006113721,-0.0002493182,5,1
-0.0005919242,-0.0002199844,5,1
-0.0005596732,-0.0001981056,5,1
-0.0005180225,-0.0001776853,5,1
-0.0004715097,-0.0001506204,5,1
-0.0004305072,-0.000112373,5,1
-0.0004034423,-6.504996e-05,5,1
-0.0003906392,-2.015787e-05,5,1
-0.0003789705,1.468618e-05,5,1
-0.00035304,3.915804e-05,5,1
-0.0003053928,5.844381e-05,5,1
-0.0002318152,8.080883e-05,5,1
-0.000122259,0.0001106288,5,1
2.489629e-05,0.0001496866,5,1
0.0001966855,0.0001914995,5,1
0.0003613439,0.0002260194,5,1
0.0004796517,0.0002457913,5,1
0.0005354022,0.0002466017,5,1
0.0005420469,0.0002289366,5,1
0.0005227611,0.0001965235,5,1
0.0004888894,0.0001558451,5,1
0.0004456179,0.0001206769,5,1
0.0003965121,9.912221e-05,5,1
0.0003404375,9.247754e-05,5,1
0.0002786906,9.766362e-05,5,1
0.000220023,0.0001094944,5,1
0.0001712413,0.0001257009,5,1
0.0001312112,0.0001422316,5,1
9.555677e-05,0.0001587623,5,1
6.071273e-05,0.0001788584,5,1
2.910999e-05,0.0002034923,5,1
1.720949e-06,0.000227478,5,1
-2.647842e-05,0.0002448189,5,1
-6.39155e-05,0.000252436,5,1
-0.0001126972,0.0002495189,5,1
-0.0001648822,0.0002436845,5,1
-0.000204102,0.0002394708,5,1
-0.0002256567,0.0002370398,5,1
-0.0002457528,0.0002326641,5,1
-0.0002818933,0.0002240746,5,1
-0.0003387782,0.0002109473,5,1
-0.0004087905,0.0001963614,5,1
-0.00047232,0.0001832341,5,1
-0.0005037607,0.0001717275,5,1
-0.0004841508,0.0001611932,5,1
-0.0004146248,0.0001508211,5,1
-0.0003113892,0.0001368834,5,1
-0.0002008607,0.0001177597,5,1
-0.0001135075,0.0001012291,5,1
-7.526008e-05,8.907416e-05,5,1
-9.081835e-05,8.129502e-05,5,1
-0.0001410586,7.562274e-05,5,1
-0.0002042641,6.719535e-05,5,1
-0.0002647144,5.131294e-05,5,1
-0.0003134961,2.586868e-05,5,1
-0.0003378059,-7.192643e-06,5,1
-0.0003293785,-4.300908e-05,5,1
-0.0002943724,-7.801519e-05,5,1
-0.0002405667,-0.0001070249,5,1
-0.0001747682,-0.0001245279,5,1
-9.778715e-05,-0.0001280934,5,1
-8.813297e-06,-0.0001235555,5,1
9.409818e-05,-0.0001169109,5,1
0.0002099749,-0.0001139937,5,1
0.0003339549,-0.0001173971,5,1
0.0004540453,-0.0001250141,5,1
0.000559712,-0.0001319829,5,1
0.0006553305,-0.0001327933,5,1
0.0007551629,-0.0001279313,5,1
0.0008754155,-0.0001274451,5,1
0.001033753,-0.0001344139,5,1
0.00123666,-0.0001459206,5,1
0.001472303,-0.0001551583,5,1
0.001705191,-0.0001587237,5,1
0.001875685,-0.0001562927,5,1
0.001920577,-0.0001512687,5,1
0.001803403,-0.0001491618,5,1
0.001531295,-0.0001546721,5,1
0.001152385,-0.0001645581,5,1
0.0007402529,-0.0001733096,5,1
0.0003509718,-0.0001746061,5,1
7.393236e-06,-0.0001658546,5,1
-0.0002883759,-0.0001511067,5,1
-0.0005407116,-0.000137169,5,1
-0.0007518827,-0.000127283,5,1
-0.000906655,-0.0001224211,5,1
-0.0009826636,-0.0001216107,5,1
-0.0009654847,-0.0001216107,5,1
-0.0008667869,-0.0001177212,5,1
-0.0007266005,-0.0001018388,5,1
-0.0005969483,-7.23429e-05,5,1
-0.0005196431,-2.988179e-05,5,1
-0.0005126743,1.792748e-05,5,1
-0.0005624284,6.768154e-05,5,1
-0.0006360059,0.0001161391,5,1
-0.0006975908,0.0001634622,5,1
-0.0007225489,0.0002137024,5,1
-0.0007076389,0.0002631324,5,1
-0.0006598296,0.0003013798,5,1
-0.0005906277,0.0003180725,5,1
-0.0005112157,0.0003086727,5,1
-0.0004248349,0.0002769079,5,1
-0.0003144685,0.0002337985,5,1
-0.0001606685,0.0001900409,5,1
6.233338e-05,0.0001535762,5,1
0.0003675024,0.0001321835,5,1
0.0007352289,0.0001273216,5,1
0.001108466,0.0001351007,5,1
0.001418659,0.0001508211,5,1
0.00162351,0.0001688103,5,1
0.001705191,0.0001833962,5,1
0.001661758,0.0001926339,5,1
0.001501637,0.0001931201,5,1
0.001248166,0.0001827479,5,1
0.0009326246,0.0001616794,5,1
0.0005956905,0.0001365593,5,1
0.0002767458,0.000113546,5,1
-2.238346e-07,9.555677e-05,5,1
-0.0002271153,8.388807e-05,5,1
-0.0004120317,7.853991e-05,5,1
-0.0005640491,7.562274e-05,5,1
-0.0006841394,6.751948e-05,5,1
-0.0007666306,4.693717e-05,5,1
-0.0008175191,1.112074e-05,5,1
-0.0008525252,-3.377136e-05,5,1
-0.0008784557,-7.444975e-05,5,1
-0.0008854245,-0.0001003802,5,1
-0.0008586837,-0.0001110765,5,1
-0.0007914266,-0.0001141558,5,1
-0.0006933771,-0.0001212866,5,1
-0.0005899795,-0.0001350622,5,1
-0.0005117019,-0.0001558065,5,1
-0.000482206,-0.0001814128,5,1
-0.0005029504,-0.0002084778,5,1
-0.0005598353,-0.0002306807,5,1
-0.0006291993,-0.0002444563,5,1
-0.0006893255,-0.0002480217,5,1
-0.0007238454,-0.0002433218,5,1
-0.0007225489,-0.0002329496,5,1
-0.000683005,-0.0002178775,5,1
-0.00061121,-0.000199078,5,1
-0.0005209396,-0.0001807646,5,1
-0.0004282383,-0.0001673132,5,1
-0.0003438023,-0.0001592099,5,1
-0.0002671454,-0.0001509446,5,1
-0.0001958367,-0.0001352242,5,1
-0.0001378173,-0.000107349,5,1
-0.0001143178,-7.007399e-05,5,1
-0.0001352242,-3.117831e-05,5,1
-0.0001953505,-5.479652e-07,5,1
-0.000278652,1.387585e-05,5,1
-0.0003624398,1.387585e-05,5,1
-0.0004301831,1.12828e-05,5,1
-0.0004630823,1.452411e-05,5,1
-0.0004578962,2.278944e-05,5,1
-0.000427428,2.732727e-05,5,1
-0.0003971218,1.987227e-05,5,1
-0.0003886944,-2.330684e-06,5,1
-0.0004055492,-3.182657e-05,5,1
-0.000430021,-6.002594e-05,5,1
-0.0004407173,-7.623246e-05,5,1
-0.0004311555,-7.720486e-05,5,1
-0.0004003631,-6.407757e-05,5,1
-0.0003515814,-4.511593e-05,5,1
-0.0002793003,-2.745081e-05,5,1
-0.0001763888,-1.594417e-05,5,1
-4.365734e-05,-1.010982e-05,5,1
0.0001023635,-9.137427e-06,5,1
0.0002342847,-1.059602e-05,5,1
0.0003213138,-1.221667e-05,5,1
0.0003457857,-8.975362e-06,5,1
0.00030689,-1.034161e-06,5,1
0.0002302331,7.069105e-06,5,1
0.000160707,8.203562e-06,5,1
0.0001464453,2.207145e-06,5,1
0.0002208333,-5.57199e-06,5,1
0.0003845193,-8.489166e-06,5,1
0.000601849,-1.358292e-06,5,1
0.0008235546,1.889987e-05,5,1
0.001016737,4.45062e-05,5,1
0.00118253,6.687121e-05,5,1
0.001338275,8.113296e-05,5,1
0.001478786,9.069481e-05,5,1
0.00157246,0.0001028497,5,1
0.001578456,0.000121001,5,1
0.001487699,0.0001469315,5,1
0.001343461,0.0001744826,5,1
0.001214619,0.0001974959,5,1
0.001152385,0.0002119197,5,1
0.001163244,0.0002190506,5,1
0.001211053,0.0002237505,5,1
0.001246221,0.0002284504,5,1
0.001234067,0.0002318537,5,1
0.001150441,0.0002333123,5,1
0.0009888613,0.0002265056,5,1
0.0007598628,0.0002085163,5,1
0.0004926169,0.0001822617,5,1
0.0002208333,0.0001524417,5,1
-2.388537e-05,0.0001263492,5,1
-0.0002232257,0.0001064152,5,1
-0.0003715154,8.907416e-05,5,1
-0.0004797751,6.589881e-05,5,1
-0.0005603215,3.429608e-05,5,1
-0.0006082929,3.017472e-06,5,1
-0.0006045654,-1.756482e-05,5,1
-0.0005463839,-1.967167e-05,5,1
-0.0004541688,-7.516774e-06,5,1
-0.0003559572,1.079661e-05,5,1
-0.000268766,2.797553e-05,5,1
-0.0001874093,3.737532e-05,5,1
-9.568031e-05,3.737532e-05,5,1
1.744129e-05,3.267542e-05,5,1
0.000133318,2.732727e-05,5,1
0.0002104611,2.359977e-05,5,1
0.0002109473,2.165498e-05,5,1
0.0001248906,1.711715e-05,5,1
-3.539201e-05,8.527692e-06,5,1
-0.0002425115,-3.627206e-06,5,1
-0.0004642168,-1.902341e-05,5,1
-0.0006676087,-3.976777e-05,5,1
-0.0008287016,-6.278104e-05,5,1
-0.0009270753,-7.947377e-05,5,1
-0.0009564091,-8.628052e-05,5,1
-0.0009304786,-8.644259e-05,5,1
-0.0008729455,-8.579432e-05,5,1
-0.0008032574,-9.179074e-05,5,1
-0.0007371347,-0.0001062146,5,1
-0.0006860842,-0.0001311726,5,1
-0.000653347,-0.0001637477,5,1
-0.0006222305,-0.0002008607,5,1
-0.0005596732,-0.0002382978,5,1
-0.0004525481,-0.000273628,5,1
-0.000315765,-0.0003039342,5,1
-0.0001830335,-0.0003214373,5,1
-7.963584e-05,-0.0003186821,5,1
-2.492749e-06,-0.0003002067,5,1
6.444023e-05,-0.0002716832,5,1
0.0001365593,-0.0002397564,5,1
0.0002190506,-0.0002133397,5,1
0.0003112658,-0.0001997262,5,1
0.0004091532,-0.000206533,5,1
0.0005182233,-0.0002303566,5,1
0.0006430136,-0.0002585559,5,1
0.0007819037,-0.0002791382,5,1
0.000916418,-0.0002848105,5,1
0.001008309,-0.0002758969,5,1
0.001019005,-0.0002585559,5,1
0.0009348936,-0.0002350565,5,1
0.0007786624,-0.0002039399,5,1
0.0005854804,-0.0001671511,5,1
0.0003880847,-0.0001267968,5,1
0.0002057612,-8.725291e-05,5,1
4.337174e-05,-5.32192e-05,5,1
-0.0001055663,-2.42095e-05,5,1
-0.0002530457,6.582909e-06,5,1
-0.0003992286,5.260946e-05,5,1
-0.0005308256,0.0001269974,5,1
-0.0006314681,0.000239957,5,1
-0.0006925668,0.0003767402,5,1
-0.0007173628,0.0005080132,5,1
-0.0007121767,0.0006049282,5,1
-0.0006818705,0.000653872,5,1
-0.00062612,0.0006587339,5,1
-0.0005436288,0.0006305345,5,1
-0.0004361795,0.0005833735,5,1
-0.0003201407,0.0005332953,5,1
-0.0002298704,0.0004914824,5,1
-0.0002042641,0.0004584211,5,1
-0.0002656868,0.000433301,5,1
-0.0004061974,0.0004096394,5,1
-0.0005977586,0.0003832228,5,1
-0.0007970989,0.0003525924,5,1
-0.0009635399,0.0003175863,5,1
-0.001068234,0.0002783665,5,1
-0.001099189,0.0002414156,5,1
-0.001059969,0.0002132162,5,1
-0.0009607848,0.0001984683,5,1
-0.0008228673,0.0001974959,5,1
-0.0006753879,0.0002021958,5,1
-0.0005369841,0.0002031682,5,1
-0.0004128421,0.0001944166,5,1
-0.0002987481,0.0001762653,5,1
-0.0001857886,0.0001537382,5,1
-6.342931e-05,0.0001305629,5,1
7.772959e-05,0.0001078737,5,1
0.0002368777,8.064677e-05,5,1
0.0003900295,4.547859e-05,5,1
0.0004973168,3.665733e-06,5,1
0.0005303781,-4.074016e-05,5,1
0.0004940755,-7.914964e-05,5,1
0.0004255218,-0.0001055663,5,1
0.0003734989,-0.0001216107,5,1
0.0003796573,-0.0001310105,5,1
0.0004495075,-0.0001366828,5,1
0.000559712,-0.0001389517,5,1
0.0006796404,-0.0001358725,5,1
0.000787576,-0.0001327933,5,1
0.0008747673,-0.0001387897,5,1
0.0009258178,-0.0001546721,5,1
0.000923711,-0.0001731475,5,1
0.0008611537,-0.0001862748,5,1
0.0007475458,-0.0001872472,5,1
0.0006102764,-0.0001791439,5,1
0.000477869,-0.0001684476,5,1
0.0003660439,-0.0001650443,5,1
0.0002752873,-0.0001702304,5,1
0.0001976579,-0.0001838438,5,1
0.000125863,-0.0002013469,5,1
5.601284e-05,-0.0002186879,5,1
-1.25408e-05,-0.0002301945,5,1
-7.363943e-05,-0.0002371633,5,1
-0.0001190177,-0.0002405667,5,1
-0.0001410586,-0.0002415391,5,1
-0.0001396,-0.0002405667,5,1
-0.0001206384,-0.000236353,5,1
-9.081835e-05,-0.0002292221,5,1
