EMG1,EMG2,class,user
0.0002462775,7.011252e-05,4,1
0.0002769079,0.0001354248,4,1
0.0002720459,0.0001752929,4,1
0.0002339606,0.0002051129,4,1
0.0001701068,0.0002431983,4,1
9.701536e-05,0.0002971661,4,1
3.494434e-05,0.0003640991,4,1
4.151929e-06,0.0004412422,4,1
1.64689e-05,0.0005258403,4,1
7.011252e-05,0.0006153004,4,1
0.0001508211,0.0007044364,4,1
0.00024255,0.0007877381,4,1
0.0003284447,0.0008608295,4,1
0.0003966742,0.000928573,4,1
0.0004461041,0.0009948577,4,1
0.0004809482,0.001057901,4,1
0.0005018546,0.001112517,4,1
0.0005067165,0.001147361,4,1
0.000492779,0.001154654,4,1
0.000458259,0.001134396,4,1
0.0004093153,0.00109388,4,1
0.0003608578,0.001033429,4,1
0.0003300653,0.0009520725,4,1
0.0003209897,0.000859533,4,1
0.0003269861,0.0007759072,4,1
0.0003347652,0.000708326,4,1
0.0003363859,0.0006397723,4,1
0.0003264999,0.0005451261,4,1
0.0003005694,0.0004046154,4,1
0.0002550291,0.0002216436,4,1
0.0001806411,2.035846e-05,4,1
6.978839e-05,-0.0001671511,4,1
-6.877746e-05,-0.0003159271,4,1
-0.0002130156,-0.0004130042,4,1
-0.0003416954,-0.0004638926,4,1
-0.0004412035,-0.0004813957,4,1
-0.0005092709,-0.0004818819,4,1
-0.0005510838,-0.0004818819,4,1
-0.0005732867,-0.0004898231,4,1
-0.0005817142,-0.0005068399,4,1
-0.0005881967,-0.0005326084,4,1
-0.0005940311,-0.0005604835,4,1
-0.0005870623,-0.0005856037,4,1
-0.0005527044,-0.0006013241,4,1
-0.0004818819,-0.0006042412,4,1
-0.0003720016,-0.0005946793,4,1
-0.0002381357,-0.0005757177,4,1
-0.0001109144,-0.0005531906,4,1
-1.724069e-05,-0.0005309877,4,1
2.829966e-05,-0.0005139708,4,1
2.376183e-05,-0.0005071641,4,1
-2.356124e-05,-0.0005086227,4,1
-9.989401e-05,-0.0005128364,4,1
-0.0001861127,-0.0005189948,4,1
-0.000263742,-0.0005262878,4,1
-0.0003185201,-0.0005339049,4,1
-0.0003485022,-0.0005373082,4,1
-0.0003598467,-0.0005355255,4,1
-0.0003574158,-0.0005207775,4,1
-0.0003425058,-0.0004927403,4,1
-0.0003087962,-0.0004562756,4,1
-0.0002452666,-0.0004232143,4,1
-0.0001439758,-0.0003969597,4,1
-5.409925e-06,-0.0003752429,4,1
0.0001543865,-0.0003546606,4,1
0.0003064038,-0.0003326198,4,1
0.000420984,-0.0003045825,4,1
0.0004785172,-0.000271197,4,1
0.0004773828,-0.000238784,4,1
0.0004401077,-0.0002107467,4,1
0.0003968363,-0.0001896782,4,1
0.0003694472,-0.0001715269,4,1
0.0003616681,-0.0001489998,4,1
0.0003576164,-0.0001191798,4,1
0.0003384927,-8.498399e-05,4,1
0.0003026763,-5.305713e-05,4,1
0.0002574601,-2.583016e-05,4,1
0.0002120818,-3.627206e-06,4,1
0.0001701068,1.614476e-05,4,1
0.0001389903,3.478228e-05,4,1
0.0001247285,5.1475e-05,4,1
0.0001279698,6.606088e-05,4,1
0.0001347766,7.870197e-05,4,1
0.0001248906,9.199134e-05,4,1
8.550872e-05,0.0001051186,4,1
1.889987e-05,0.0001198666,4,1
-6.051213e-05,0.0001367214,4,1
-0.0001305243,0.0001545486,4,1
-0.0001807646,0.0001725378,4,1
-0.0002154466,0.0001885823,4,1
-0.0002431597,0.0001996027,4,1
-0.000271035,0.0002033302,4,1
-0.0003091203,0.000200251,4,1
-0.0003611433,0.0001898788,4,1
-0.0004191627,0.0001764274,4,1
-0.0004676201,0.0001658931,4,1
-0.0004901472,0.0001618415,4,1
-0.0004762096,0.0001616794,4,1
-0.0004254832,0.0001624898,4,1
-0.0003413713,0.0001589243,4,1
-0.0002300324,0.0001521176,4,1
-0.0001041077,0.0001443384,4,1
2.376183e-05,0.0001376938,4,1
0.0001427178,0.0001331559,4,1
0.0002427121,0.0001304008,4,1
0.000321638,0.0001273216,4,1
0.0003806297,0.0001227837,4,1
0.0004248736,0.0001167873,4,1
0.0004585832,0.0001086841,4,1
0.0004858102,0.0001007429,4,1
0.0005060683,9.733949e-05,4,1
0.0005131993,9.782569e-05,4,1
0.0004974789,9.847395e-05,4,1
0.0004491834,9.733949e-05,4,1
0.0003657197,9.328786e-05,4,1
0.0002585945,8.550872e-05,4,1
0.0001435281,7.140904e-05,4,1
3.024445e-05,5.098881e-05,4,1
-7.542214e-05,2.846173e-05,4,1
-0.000159372,1.468618e-05,4,1
-0.0002005366,1.063454e-05,4,1
-0.000196647,1.160693e-05,4,1
-0.0001634236,1.112074e-05,4,1
-0.0001232314,5.610517e-06,4,1
-0.0001036215,-3.789272e-06,4,1
-0.0001251762,-1.578211e-05,4,1
-0.0001895161,-2.453363e-05,4,1
-0.0002872415,-2.485776e-05,4,1
-0.0003935563,-1.99958e-05,4,1
-0.0004779923,-1.335113e-05,4,1
-0.0005215878,-8.813297e-06,4,1
-0.0005227224,-4.275467e-06,4,1
-0.0004943609,2.207145e-06,4,1
-0.0004591928,1.031041e-05,4,1
-0.0004287245,1.452411e-05,4,1
-0.0004018217,9.986281e-06,4,1
-0.0003668155,1.883015e-06,4,1
-0.0003015032,-2.006553e-06,4,1
-0.0001935677,5.772582e-06,4,1
-5.419158e-05,2.554455e-05,4,1
9.426025e-05,5.19612e-05,4,1
0.0002282883,7.67572e-05,4,1
0.0003273102,9.296373e-05,4,1
0.0003835469,9.814982e-05,4,1
0.0004076947,9.669123e-05,4,1
0.0004240633,9.766362e-05,4,1
0.0004495075,0.0001049566,4,1
0.0004871067,0.0001169494,4,1
0.0005269747,0.0001312112,4,1
0.0005582534,0.0001470936,4,1
0.0005759185,0.0001628139,4,1
0.0005851563,0.0001748067,4,1
0.0005940699,0.0001765894,4,1
0.000601849,0.0001623277,4,1
0.0006005525,0.0001344524,4,1
0.000586939,0.0001064152,4,1
0.0005639257,9.020862e-05,4,1
0.0005313505,9.344993e-05,4,1
0.0004846757,0.0001148425,4,1
0.0004200116,0.0001446626,4,1
0.0003462718,0.0001710792,4,1
0.0002709115,0.0001898788,4,1
0.0002018716,0.0002039785,4,1
0.0001362352,0.0002174299,4,1
7.448828e-05,0.0002307193,4,1
9.986281e-06,0.0002359054,4,1
-6.278104e-05,0.0002313675,4,1
-0.0001430034,0.0002229401,4,1
-0.0002196603,0.0002174299,4,1
-0.0002802727,0.0002125679,4,1
-0.0003217614,0.000200251,4,1
-0.0003485022,0.0001748067,4,1
-0.0003741085,0.0001378558,4,1
-0.0004133283,9.750156e-05,4,1
-0.0004689167,6.622294e-05,4,1
-0.0005227224,5.1475e-05,4,1
-0.0005536768,5.56887e-05,4,1
-0.0005480045,7.124698e-05,4,1
-0.0005016539,8.550872e-05,4,1
-0.0004262935,9.085688e-05,4,1
-0.000343154,8.923623e-05,4,1
-0.0002767073,8.453633e-05,4,1
-0.0002457528,7.837785e-05,4,1
-0.0002491561,7.189524e-05,4,1
-0.0002707109,6.622294e-05,4,1
-0.0002831898,6.492643e-05,4,1
-0.0002569353,6.78436e-05,4,1
-0.0001812508,6.995045e-05,4,1
-7.833932e-05,6.622294e-05,4,1
9.013889e-06,5.585077e-05,4,1
3.964424e-05,4.013043e-05,4,1
9.500085e-06,2.311357e-05,4,1
-5.386745e-05,3.827799e-06,4,1
-0.0001089697,-1.967167e-05,4,1
-0.0001243659,-5.143648e-05,4,1
-8.871149e-05,-9.049421e-05,4,1
-1.821308e-05,-0.0001344139,4,1
5.844381e-05,-0.0001809267,4,1
0.0001148425,-0.0002269532,4,1
0.0001401247,-0.0002689281,4,1
0.0001409351,-0.000300855,4,1
0.0001299146,-0.0003188442,4,1
0.0001192183,-0.0003254889,4,1
0.0001158149,-0.0003267854,4,1
0.0001245665,-0.0003230579,4,1
0.0001443384,-0.0003104168,4,1
0.0001688103,-0.0002849726,4,1
0.0001869616,-0.0002499665,4,1
0.0001902029,-0.0002125294,4,1
0.0001731861,-0.0001822232,4,1
0.0001396385,-0.0001634236,4,1
9.879808e-05,-0.0001564548,4,1
6.055066e-05,-0.0001596961,4,1
2.992031e-05,-0.0001702304,4,1
3.341602e-06,-0.0001797922,4,1
-2.550602e-05,-0.0001822232,4,1
-5.872941e-05,-0.0001765509,4,1
-9.098041e-05,-0.0001686097,4,1
-0.0001109144,-0.000166989,4,1
-0.0001162626,-0.0001749302,4,1
-0.000104918,-0.000186761,4,1
-7.250496e-05,-0.0001950263,4,1
-1.416145e-05,-0.0001930815,4,1
6.281957e-05,-0.0001799543,4,1
0.000128456,-0.0001585616,4,1
0.0001561692,-0.0001334415,4,1
0.00013818,-0.0001060525,4,1
9.361199e-05,-7.736692e-05,4,1
5.131294e-05,-4.981582e-05,4,1
3.089271e-05,-3.036798e-05,4,1
3.802358e-05,-1.643037e-05,4,1
6.41161e-05,-5.89612e-06,4,1
9.328786e-05,1.396819e-06,4,1
0.0001164632,8.365628e-06,4,1
0.0001305629,1.711715e-05,4,1
0.0001401247,2.76514e-05,4,1
0.000148228,3.98063e-05,4,1
0.0001493625,5.552663e-05,4,1
0.0001402868,7.6271e-05,4,1
0.0001198666,9.944634e-05,4,1
9.426025e-05,0.0001200286,4,1
6.751948e-05,0.0001391524,4,1
3.251336e-05,0.0001618415,4,1
-2.015787e-05,0.0001913374,4,1
-9.843541e-05,0.0002247229,4,1
-0.0001922712,0.0002584324,4,1
-0.0002789762,0.0002840388,4,1
-0.0003308371,0.0002986247,4,1
-0.000330675,0.0003039728,4,1
-0.0002804347,0.0003033245,4,1
-0.0001959987,0.000299597,4,1
-9.697683e-05,0.0002931144,4,1
-4.113403e-06,0.0002854973,4,1
6.525056e-05,0.0002778803,4,1
0.0001009049,0.000272208,4,1
0.0001077117,0.0002634565,4,1
9.879808e-05,0.0002477361,4,1
9.004655e-05,0.0002227781,4,1
9.555677e-05,0.0001905271,4,1
0.0001146805,0.0001540623,4,1
0.000138342,0.0001205148,4,1
0.0001639484,9.669123e-05,4,1
0.0001958752,8.016057e-05,4,1
0.0002352571,6.41161e-05,4,1
0.0002726942,4.385793e-05,4,1
0.0002937627,1.744129e-05,4,1
0.0002858215,-1.043395e-05,4,1
0.0002487085,-3.21507e-05,4,1
0.0001905271,-4.414354e-05,4,1
0.0001132219,-4.706071e-05,4,1
1.338965e-05,-4.236082e-05,4,1
-0.0001118868,-3.441962e-05,4,1
-0.0002528836,-3.231277e-05,4,1
-0.0003865875,-4.317115e-05,4,1
-0.000487068,-6.731888e-05,4,1
-0.000539091,-9.811128e-05,4,1
-0.0005397392,-0.0001277692,4,1
-0.000496954,-0.0001499722,4,1
-0.0004248349,-0.0001661787,4,1
-0.000340561,-0.0001814128,4,1
-0.0002655248,-0.0001963229,4,1
-0.0002117191,-0.0002126914,4,1
-0.0001660166,-0.0002282497,4,1
-0.0001075111,-0.0002407288,4,1
-2.647842e-05,-0.0002460769,4,1
6.541262e-05,-0.0002465631,4,1
0.0001493625,-0.0002475355,4,1
0.0002109473,-0.0002517492,4,1
0.0002469258,-0.0002601766,4,1
0.0002637806,-0.0002669833,4,1
0.000267184,-0.0002596904,4,1
0.0002608634,-0.0002246843,4,1
0.0002396328,-0.0001541859,4,1
0.0002051129,-5.354332e-05,4,1
0.0001658931,6.476436e-05,4,1
0.000130887,0.0001859892,4,1
0.0001005808,0.0002971661,4,1
7.465034e-05,0.0003880847,4,1
4.936815e-05,0.0004491834,4,1
2.295151e-05,0.0004790034,4,1
-6.706447e-06,0.0004799758,4,1
-4.398147e-05,0.0004538833,4,1
-8.968389e-05,0.0004031568,4,1
-0.0001381414,0.0003323342,4,1
-0.0001759026,0.0002496809,4,1
-0.0001924333,0.0001673517,4,1
-0.0001835197,9.280167e-05,4,1
-0.0001514308,2.327564e-05,4,1
-0.0001008664,-4.625038e-05,4,1
-4.446767e-05,-0.0001141558,4,1
7.555301e-06,-0.0001723372,4,1
5.212327e-05,-0.0002100984,4,1
9.361199e-05,-0.0002245222,4,1
0.0001346145,-0.000216581,4,1
0.0001722137,-0.0001947022,4,1
0.0002034923,-0.0001754164,4,1
0.000227478,-0.0001695821,4,1
0.0002435224,-0.0001759026,4,1
0.0002530843,-0.0001818991,4,1
0.0002556773,-0.0001741199,4,1
0.000247412,-0.0001515928,4,1
0.0002219677,-0.0001324691,4,1
0.0001791825,-0.0001334415,4,1
0.0001279698,-0.0001499722,4,1
7.691926e-05,-0.0001611547,4,1
2.992031e-05,-0.0001525652,4,1
-5.409925e-06,-0.0001242038,4,1
-1.902341e-05,-8.903562e-05,4,1
-2.330684e-06,-6.699475e-05,4,1
4.515445e-05,-7.023606e-05,4,1
0.0001122495,-9.616651e-05,4,1
0.0001751309,-0.0001256624,4,1
0.0002125679,-0.0001361966,4,1
0.0002161334,-0.0001120489,4,1
0.0001866375,-5.289507e-05,4,1
0.0001266733,2.943412e-05,4,1
4.758544e-05,0.0001125736,4,1
-3.604027e-05,0.0001746447,4,1
-0.0001084835,0.0002041406,4,1
-0.0001556445,0.0002018716,4,1
-0.0001703924,0.0001816135,4,1
-0.000164396,0.0001621656,4,1
-0.0001535376,0.0001663793,4,1
-0.0001507825,0.0002036544,4,1
-0.0001605064,0.0002688046,4,1
-0.0001818991,0.0003443271,4,1
-0.0002133397,0.0004106118,4,1
-0.000246401,0.0004585832,4,1
-0.000268766,0.0004898618,4,1
-0.0002658489,0.0005096338,4,1
-0.0002324634,0.0005214646,4,1
-0.000174282,0.0005219508,4,1
-0.0001041077,0.0005120648,4,1
-3.344723e-05,0.0004971547,4,1
3.834771e-05,0.0004802999,4,1
0.0001125736,0.0004574487,4,1
0.0001869616,0.0004180668,4,1
0.0002551911,0.0003499994,4,1
0.000319369,0.0002495189,4,1
0.0003781987,0.0001281319,4,1
0.0004292493,6.258778e-06,4,1
0.0004585832,-9.875954e-05,4,1
0.0004516144,-0.000176713,4,1
0.0004004017,-0.0002251705,4,1
0.0003089969,-0.0002499665,4,1
0.0001893926,-0.0002617972,4,1
6.719535e-05,-0.0002658489,4,1
-3.63644e-05,-0.000266173,4,1
-0.0001130213,-0.0002690902,4,1
-0.0001676373,-0.0002757348,4,1
-0.0002112329,-0.0002852967,4,1
-0.0002509389,-0.0002946965,4,1
-0.000286107,-0.0003000446,4,1
-0.0003112272,-0.0002979378,4,1
-0.0003250027,-0.0002867553,4,1
-0.0003288923,-0.0002705488,4,1
-0.0003212752,-0.0002545043,4,1
-0.000293562,-0.000236353,4,1
-0.0002418632,-0.0002193361,4,1
-0.0001870851,-0.0002076674,4,1
-0.0001571031,-0.0001995642,4,1
-0.0001663408,-0.0001890299,4,1
-0.000211557,-0.0001721751,4,1
-0.0002669833,-0.0001496481,4,1
-0.0002938862,-0.0001237176,4,1
-0.0002699005,-9.908367e-05,4,1
-0.0001997262,-7.817725e-05,4,1
-0.0001081593,-5.921561e-05,4,1
-1.62683e-05,-3.944364e-05,4,1
6.735741e-05,-2.09682e-05,4,1
0.000140773,-5.085794e-06,4,1
0.0002060853,6.096713e-06,4,1
0.0002603772,1.419998e-05,4,1
0.0003005694,2.505836e-05,4,1
0.0003273102,4.142696e-05,4,1
0.0003430306,6.298164e-05,4,1
0.000356482,8.631905e-05,4,1
0.0003791712,0.0001072255,4,1
0.0004174185,0.0001185701,4,1
0.0004587452,0.0001190562,4,1
0.0004773828,0.0001164632,4,1
0.0004530729,0.0001154908,4,1
0.0003910019,0.0001130598,4,1
0.0003187208,0.0001057669,4,1
0.000259729,9.766362e-05,4,1
0.0002248849,9.458438e-05,4,1
0.0002148369,0.0001018773,4,1
0.0002231022,0.0001192183,4,1
0.0002362295,0.0001422316,4,1
0.000244981,0.0001658931,4,1
0.0002431983,0.0001820997,4,1
0.0002289366,0.0001887444,4,1
0.0002031682,0.0001895547,4,1
0.0001668655,0.0001892305,4,1
0.0001214872,0.0001936063,4,1
6.881599e-05,0.0002023578,4,1
1.257933e-05,0.0002080301,4,1
-4.90055e-05,0.0002023578,4,1
-0.0001180453,0.0001846927,4,1
-0.0001865989,0.0001610312,4,1
-0.0002366771,0.0001339663,4,1
-0.0002540181,0.0001030118,4,1
-0.0002428356,6.719535e-05,4,1
-0.0002241981,2.732727e-05,4,1
-0.0002156086,-9.785688e-06,4,1
-0.0002130156,-3.393342e-05,4,1
-0.0001972953,-4.300908e-05,4,1
-0.0001559686,-4.284701e-05,4,1
-9.470791e-05,-4.398147e-05,4,1
-2.955766e-05,-5.159854e-05,4,1
1.533444e-05,-6.48879e-05,4,1
1.727922e-05,-8.174268e-05,4,1
-3.036798e-05,-9.697683e-05,4,1
-0.0001139937,-0.0001078352,4,1
-0.0002100984,-0.0001144799,4,1
-0.0002997205,-0.0001173971,4,1
-0.0003690845,-0.0001162626,4,1
-0.0004037664,-0.0001104282,4,1
-0.0003992286,-0.0001007043,4,1
-0.0003637363,-9.114248e-05,4,1
-0.0003159271,-8.498399e-05,4,1
-0.000276221,-8.547019e-05,4,1
-0.0002548284,-9.19528e-05,4,1
-0.0002493182,-0.0001018388,4,1
-0.0002507768,-0.0001114006,4,1
-0.0002502906,-0.0001162626,4,1
-0.0002429977,-0.0001159385,4,1
-0.0002303566,-0.0001117248,4,1
-0.0002105846,-0.0001055663,4,1
-0.0001822232,-9.843541e-05,4,1
-0.0001485136,-8.935975e-05,4,1
-0.000112211,-7.65566e-05,4,1
-7.363943e-05,-6.504996e-05,4,1
-3.328516e-05,-6.083626e-05,4,1
6.90704e-06,-6.764301e-05,4,1
4.207521e-05,-8.336335e-05,4,1
6.379197e-05,-0.0001021629,4,1
6.719535e-05,-0.0001188556,4,1
5.844381e-05,-0.0001264727,4,1
5.098881e-05,-0.000122097,4,1
5.309566e-05,-0.0001083214,4,1
6.83298e-05,-8.968389e-05,4,1
9.409818e-05,-6.504996e-05,4,1
0.0001231079,-3.604027e-05,4,1
0.0001446626,-7.840905e-06,4,1
0.000148228,1.22552e-05,4,1
0.0001338042,2.34377e-05,4,1
0.0001057669,2.538249e-05,4,1
7.286763e-05,2.311357e-05,4,1
4.580272e-05,1.987227e-05,4,1
3.478228e-05,1.841368e-05,4,1
4.790957e-05,2.149292e-05,4,1
8.939829e-05,3.089271e-05,4,1
0.0001521176,4.72613e-05,4,1
0.0002159713,7.043665e-05,4,1
0.0002585945,9.944634e-05,4,1
0.000267184,0.0001302388,4,1
0.0002451431,0.0001526038,4,1
0.0002034923,0.0001628139,4,1
0.0001594105,0.0001616794,4,1
0.000125863,0.0001517934,4,1
0.0001081979,0.0001376938,4,1
0.0001088461,0.0001237561,4,1
0.0001250527,0.0001163011,4,1
0.0001440143,0.0001218114,4,1
0.0001551968,0.0001406109,4,1
0.0001501728,0.0001658931,4,1
0.0001265113,0.0001880961,4,1
8.956036e-05,0.0002008992,4,1
4.82337e-05,0.0002021958,4,1
1.727922e-05,0.0001966855,4,1
5.934648e-06,0.000187934,4,1
1.614476e-05,0.0001786963,4,1
4.239934e-05,0.000170593,4,1
7.30297e-05,0.000163138,4,1
9.571884e-05,0.0001550348,4,1
0.0001009049,0.0001480659,4,1
8.291568e-05,0.0001445005,4,1
4.191315e-05,0.0001479039,4,1
-1.578211e-05,0.0001563313,4,1
-7.963584e-05,0.0001654069,4,1
-0.0001384655,0.000175455,4,1
-0.0001838438,0.0001840444,4,1
-0.0002162569,0.0001851789,4,1
-0.0002384598,0.0001739964,4,1
-0.0002473734,0.0001529279,4,1
-0.0002431597,0.000128456,4,1
-0.0002245222,0.0001073875,4,1
-0.0001964849,9.037068e-05,4,1
-0.0001707166,7.351589e-05,4,1
-0.0001501342,5.56887e-05,4,1
-0.0001308485,3.624086e-05,4,1
-0.0001084835,1.355172e-05,4,1
-8.206682e-05,-1.270286e-05,4,1
-5.208474e-05,-3.814712e-05,4,1
-2.501983e-05,-5.662256e-05,4,1
-1.724069e-05,-6.083626e-05,4,1
-4.462973e-05,-5.435365e-05,4,1
-0.0001086455,-4.462973e-05,4,1
-0.0001974573,-4.446767e-05,4,1
-0.0002904828,-6.148453e-05,4,1
-0.0003689224,-9.632857e-05,4,1
-0.0004191627,-0.000144462,4,1
-0.000432452,-0.0002000504,4,1
-0.0004036044,-0.0002541802,4,1
-0.0003339163,-0.000300855,4,1
-0.0002384598,-0.0003334301,4,1
-0.0001342519,-0.0003472056,4,1
-3.279896e-05,-0.0003457471,4,1
5.909208e-05,-0.0003313232,4,1
0.0001316974,-0.0003081479,4,1
0.0001785342,-0.0002793003,4,1
0.0001992786,-0.0002507768,4,1
0.0002090025,-0.0002251705,4,1
0.0002265056,-0.0002063709,4,1
0.0002602152,-0.0001984297,4,1
0.000304297,-0.0002000504,4,1
0.0003459477,-0.000206533,4,1
0.0003798194,-0.0002131776,4,1
0.0004106118,-0.0002146363,4,1
0.0004394595,-0.000206533,4,1
0.0004569625,-0.0001857886,4,1
0.0004470765,-0.0001561307,4,1
0.0004067223,-0.0001230693,4,1
0.000353889,-9.389759e-05,4,1
0.0003081865,-7.039812e-05,4,1
0.0002840388,-5.208474e-05,4,1
0.0002861456,-4.041603e-05,4,1
0.0003086727,-3.409549e-05,4,1
0.0003333067,-3.247483e-05,4,1
0.0003509718,-3.036798e-05,4,1
0.0003676645,-2.226472e-05,4,1
0.000398619,-5.57199e-06,4,1
0.0004491834,2.181705e-05,4,1
0.0005055821,5.730935e-05,4,1
0.0005516087,9.571884e-05,4,1
0.00057446,0.0001321835,4,1
0.0005666808,0.0001608691,4,1
0.0005258403,0.0001837203,4,1
0.0004477248,0.0001999268,4,1
0.0003313618,0.0002098128,4,1
0.0001921477,0.0002133783,4,1
5.747142e-05,0.0002130541,4,1
-4.560212e-05,0.0002128921,4,1
-0.0001008664,0.0002125679,4,1
-0.0001067007,0.0002119197,4,1
-7.995997e-05,0.0002106232,4,1
-4.754691e-05,0.0002107852,4,1
-3.134038e-05,0.0002140265,4,1
-4.041603e-05,0.000217754,4,1
-7.60704e-05,0.0002180782,4,1
-0.0001381414,0.00021273,4,1
-0.0002251705,0.0002046267,4,1
-0.0003243544,0.0001992786,4,1
-0.0004139766,0.0001979821,4,1
-0.0004788027,0.0002012234,4,1
-0.00051705,0.0002065715,4,1
-0.0005279084,0.000210299,4,1
-0.0005129984,0.0002098128,4,1
-0.0004739407,0.0002015475,4,1
-0.0004172179,0.00018291,4,1
-0.000353202,0.0001564933,4,1
-0.0002940482,0.0001292664,4,1
-0.0002489941,0.0001088461,4,1
-0.0002248464,9.490851e-05,4,1
-0.000216419,8.064677e-05,4,1
-0.0002133397,6.119892e-05,4,1
-0.0002086398,3.850978e-05,4,1
-0.0001976194,1.54965e-05,4,1
-0.0001875713,-7.840905e-06,4,1
-0.0001904885,-2.826114e-05,4,1
-0.0002120432,-4.414354e-05,4,1
-0.0002455907,-5.856735e-05,4,1
-0.0002731418,-7.347736e-05,4,1
-0.0002823795,-8.871149e-05,4,1
-0.0002718453,-0.0001058904,4,1
-0.0002517492,-0.0001238797,4,1
-0.0002327876,-0.0001392759,4,1
-0.0002246843,-0.0001499722,4,1
-0.0002274394,-0.0001571031,4,1
-0.0002323013,-0.0001640719,4,1
-0.0002306807,-0.0001763888,4,1
-0.0002143121,-0.0001925954,4,1
-0.0001781716,-0.0002057227,4,1
-0.0001248521,-0.0002109087,4,1
-6.48879e-05,-0.0002113949,4,1
-6.544382e-06,-0.0002058847,4,1
3.834771e-05,-0.0001888679,4,1
6.314371e-05,-0.0001551583,4,1
7.140904e-05,-0.0001057284,4,1
7.935024e-05,-4.560212e-05,4,1
0.0001013911,1.290346e-05,4,1
0.0001370455,5.747142e-05,4,1
0.0001720516,8.210535e-05,4,1
0.0001923098,8.891209e-05,4,1
0.0001885823,8.242948e-05,4,1
0.0001624898,7.157111e-05,4,1
0.0001300767,6.525056e-05,4,1
0.000108522,6.541262e-05,4,1
0.0001088461,6.978839e-05,4,1
0.0001300767,7.400208e-05,4,1
0.000168162,7.400208e-05,4,1
0.0002161334,6.962632e-05,4,1
0.0002657254,6.055066e-05,4,1
0.0003120761,4.580272e-05,4,1
0.0003487029,2.359977e-05,4,1
0.0003602095,-2.330684e-06,4,1
0.0003362238,-2.728874e-05,4,1
0.0002803113,-4.835724e-05,4,1
0.0002111094,-6.81292e-05,4,1
0.0001548727,-8.676672e-05,4,1
0.0001316974,-0.0001021629,4,1
0.0001504969,-0.0001161005,4,1
0.0002031682,-0.0001282554,4,1
0.0002632944,-0.0001387897,4,1
0.0002953834,-0.0001488377,4,1
0.0002785285,-0.0001587237,4,1
0.0002180782,-0.0001642339,4,1
0.0001391524,-0.0001601823,4,1
6.816773e-05,-0.0001454344,4,1
2.068259e-05,-0.000119828,4,1
-6.868513e-06,-8.255302e-05,4,1
-2.7937e-05,-3.604027e-05,4,1
-4.916756e-05,1.1769e-05,4,1
-6.699475e-05,5.374392e-05,4,1
-7.088431e-05,8.777764e-05,4,1
-5.32192e-05,0.0001138702,4,1
-1.20546e-05,0.0001334801,4,1
4.483033e-05,0.0001503349,4,1
0.000101067,0.0001634622,4,1
0.0001380179,0.0001714034,4,1
0.0001440143,0.0001738343,4,1
0.0001198666,0.000170593,4,1
7.367795e-05,0.0001649207,4,1
1.97102e-05,0.0001644345,4,1
-3.26369e-05,0.0001777239,4,1
-7.704279e-05,0.0002075439,4,1
-0.0001084835,0.0002472499,4,1
-0.0001211246,0.0002876042,4,1
-0.000119828,0.0003187208,4,1
-0.0001112386,0.0003352514,4,1
-0.0001039456,0.0003347652,4,1
-0.0001094559,0.0003164518,4,1
-0.0001407345,0.0002876042,4,1
-0.000201671,0.0002579462,4,1
-0.0002793003,0.0002391467,4,1
-0.0003433161,0.000234933,4,1
-0.0003762153,0.0002430362,4,1
-0.000377836,0.0002571359,4,1
-0.0003601709,0.0002691288,4,1
-0.0003408851,0.0002683184,4,1
-0.000333106,0.0002537325,4,1
-0.0003439643,0.0002289366,4,1
-0.0003656811,0.0001971717,4,1
-0.0003831841,0.0001641104,4,1
-0.0003859393,0.0001305629,4,1
-0.0003694086,8.583286e-05,4,1
-0.0003217614,1.59827e-05,4,1
-0.0002298704,-8.287715e-05,4,1
-9.551824e-05,-0.0001937298,4,1
6.006447e-05,-0.0002917793,4,1
0.0002090025,-0.0003533641,4,1
0.0003211517,-0.0003750809,4,1
0.0003781987,-0.0003692465,4,1
0.0003765781,-0.0003562813,4,1
0.0003273102,-0.0003486642,4,1
0.0002401191,-0.0003468815,4,1
0.0001271595,-0.0003468815,4,1
6.096713e-06,-0.0003460712,4,1
-9.649064e-05,-0.0003416954,4,1
-0.0001548341,-0.0003303509,4,1
-0.0001585616,-0.0003120375,4,1
-0.000122259,-0.0002908069,4,1
-7.526008e-05,-0.0002707109,4,1
-4.252288e-05,-0.0002535319,4,1
-2.923353e-05,-0.0002381357,4,1
-2.210265e-05,-0.000216419,4,1
-8.489166e-06,-0.0001806025,4,1
1.59827e-05,-0.0001295519,4,1
4.645098e-05,-6.877746e-05,4,1
8.323981e-05,-5.734056e-06,4,1
0.0001342904,5.471631e-05,4,1
0.0002041406,0.0001122495,4,1
0.0002832284,0.0001634622,4,1
0.0003587509,0.0002025199,4,1
0.0004206599,0.0002279642,4,1
0.0004623107,0.0002355812,4,1
0.0004845136,0.0002239125,4,1
0.0004952099,0.0002012234,4,1
0.0005041235,0.0001816135,4,1
0.0005169268,0.0001806411,4,1
0.0005311884,0.0002017096,4,1
0.0005332953,0.0002357433,4,1
0.0005065545,0.0002629703,4,1
0.0004469145,0.000259891,4,1
0.0003655576,0.000217592,4,1
0.0002759355,0.0001492004,4,1
0.0001859892,8.242948e-05,4,1
0.0001009049,4.045456e-05,4,1
2.829966e-05,2.910999e-05,4,1
-2.258885e-05,4.256141e-05,4,1
-4.219875e-05,7.092284e-05,4,1
-2.939559e-05,0.0001043083,4,1
9.824215e-06,0.0001378558,4,1
6.314371e-05,0.0001623277,4,1
0.0001153287,0.0001662173,4,1
0.0001564933,0.0001470936,4,1
0.0001795066,0.0001127357,4,1
0.0001793446,7.691926e-05,4,1
0.0001589243,4.855783e-05,4,1
0.0001287802,3.105477e-05,4,1
9.68533e-05,2.376183e-05,4,1
5.552663e-05,2.538249e-05,4,1
-2.978945e-06,3.705119e-05,4,1
-7.752899e-05,5.56887e-05,4,1
-0.0001566169,7.951231e-05,4,1
-0.0002332737,0.0001052807,4,1
-0.0003013411,0.0001273216,4,1
-0.0003497987,0.0001420695,4,1
-0.0003697327,0.0001399627,4,1
-0.0003572537,0.0001174356,4,1
-0.0003219235,7.432621e-05,4,1
-0.00027849,2.084466e-05,4,1
-0.0002391081,-2.550602e-05,4,1
-0.0002037779,-5.532604e-05,4,1
-0.0001733096,-7.282909e-05,4,1
-0.0001481895,-8.935975e-05,4,1
-0.0001326312,-0.0001146419,4,1
-0.0001266348,-0.0001457585,4,1
-0.0001216107,-0.0001715269,4,1
-0.0001092938,-0.0001801163,4,1
-9.632857e-05,-0.0001661787,4,1
-9.535618e-05,-0.0001379794,4,1
-0.0001126972,-0.0001118868,4,1
-0.0001462447,-9.778715e-05,4,1
-0.0001849783,-9.503204e-05,4,1
-0.000221443,-0.0001020008,4,1
-0.0002509389,-0.0001130213,4,1
-0.0002775176,-0.0001251762,4,1
-0.0003040963,-0.0001396,4,1
-0.0003326198,-0.0001626133,4,1
-0.0003596847,-0.0001956746,4,1
-0.0003765395,-0.0002306807,4,1
-0.0003744326,-0.0002525595,4,1
-0.0003559572,-0.0002478596,4,1
-0.0003284061,-0.0002183637,4,1
-0.0002930758,-0.0001780095,4,1
-0.0002506147,-0.0001475412,4,1
-0.00019924,-0.0001397621,4,1
-0.0001394379,-0.0001528894,4,1
-7.947377e-05,-0.0001765509,4,1
-3.409549e-05,-0.0001909747,4,1
-1.156841e-05,-0.0001882196,4,1
-4.437533e-06,-0.0001702304,4,1
4.244267e-07,-0.0001402483,4,1
1.209313e-05,-0.0001041077,4,1
3.316162e-05,-6.537409e-05,4,1
6.395404e-05,-2.89094e-05,4,1
0.0001013911,-8.720959e-07,4,1
0.0001414213,1.322759e-05,4,1
0.0001756171,8.689758e-06,4,1
0.0001960373,-1.027188e-05,4,1
0.0002038164,-3.360929e-05,4,1
0.0002149989,-5.289507e-05,4,1
0.0002407673,-6.553616e-05,4,1
0.0002799871,-7.153257e-05,4,1
0.0003247172,-6.423963e-05,4,1
0.0003644232,-3.944364e-05,4,1
0.000388733,-8.720959e-07,4,1
0.0003872744,4.466826e-05,4,1
0.0003581026,8.907416e-05,4,1
0.0003111037,0.0001247285,4,1
0.000259729,0.0001422316,4,1
0.0002164575,0.0001344524,4,1
0.0001900409,0.0001091703,4,1
0.0001837203,8.323981e-05,4,1
0.0001905271,7.30297e-05,4,1
0.0002010613,8.161915e-05,4,1
0.0002096508,0.0001031738,4,1
0.0002187264,0.0001305629,4,1
0.0002261814,0.0001603829,4,1
0.0002234263,0.0001908512,4,1
0.0001989545,0.0002143507,4,1
0.0001582761,0.000225209,4,1
0.0001130598,0.0002229401,4,1
7.173317e-05,0.000210299,4,1
4.013043e-05,0.0001934442,4,1
2.295151e-05,0.0001735102,4,1
1.695509e-05,0.0001545486,4,1
2.207145e-06,0.0001430419,4,1
-4.252288e-05,0.0001391524,4,1
-0.0001185315,0.0001394765,4,1
-0.0002028055,0.0001368834,4,1
-0.0002671454,0.0001260251,4,1
-0.0002934,0.0001072255,4,1
-0.0002833519,8.648112e-05,4,1
-0.000248832,7.124698e-05,4,1
-0.0002032917,6.78436e-05,4,1
-0.0001580754,7.756752e-05,4,1
-0.0001165867,9.669123e-05,4,1
-7.671866e-05,0.0001148425,4,1
-4.05781e-05,0.0001289422,4,1
-1.270286e-05,0.0001417454,4,1
4.962256e-06,0.0001551968,4,1
1.889987e-05,0.000168162,4,1
4.158902e-05,0.000178048,4,1
7.6271e-05,0.0001786963,4,1
0.0001119254,0.000170431,4,1
0.0001370455,0.0001603829,4,1
0.0001503349,0.0001561692,4,1
0.0001642725,0.0001597346,4,1
0.0001861513,0.0001663793,4,1
0.0002096508,0.0001696206,4,1
0.0002213195,0.0001639484,4,1
0.0002104611,0.0001464453,4,1
0.0001757791,0.000120839,4,1
0.0001175977,9.393612e-05,4,1
3.850978e-05,7.20573e-05,4,1
-4.819517e-05,5.423012e-05,4,1
-0.0001269589,3.948217e-05,4,1
-0.0001861127,2.473423e-05,4,1
-0.0002199844,9.013889e-06,4,1
-0.0002318152,-5.409925e-06,4,1
-0.0002308428,-1.886135e-05,4,1
-0.0002183637,-3.409549e-05,4,1
-0.0001893541,-5.402952e-05,4,1
-0.0001412206,-7.720486e-05,4,1
-8.384954e-05,-9.892161e-05,4,1
-3.68506e-05,-0.0001139937,4,1
-1.20546e-05,-0.0001182074,4,1
-1.189254e-05,-0.0001170729,4,1
-2.777494e-05,-0.0001188556,4,1
-5.32192e-05,-0.0001306864,4,1
-8.563225e-05,-0.0001502963,4,1
-0.0001261486,-0.0001726613,4,1
-0.0001731475,-0.0001943781,4,1
-0.0002271153,-0.0002118811,4,1
-0.0002830278,-0.0002194982,4,1
-0.0003314853,-0.0002156086,4,1
-0.0003598467,-0.0002006986,4,1
-0.0003522297,-0.0001788198,4,1
-0.0003053928,-0.0001572651,4,1
-0.0002332737,-0.0001430034,4,1
-0.0001564548,-0.0001357104,4,1
-9.211487e-05,-0.0001311726,4,1
-4.625038e-05,-0.0001233935,4,1
-1.448558e-05,-0.0001144799,4,1
1.419998e-05,-0.0001024871,4,1
5.52025e-05,-8.854943e-05,4,1
0.0001140322,-7.380149e-05,4,1
0.0001812893,-6.002594e-05,4,1
0.0002341226,-4.300908e-05,4,1
0.000252274,-1.886135e-05,4,1
0.0002313675,1.112074e-05,4,1
0.0001825859,4.304761e-05,4,1
0.0001169494,7.140904e-05,4,1
4.142696e-05,9.571884e-05,4,1
-3.976777e-05,0.0001154908,4,1
-0.0001170729,0.0001305629,4,1
-0.0001784957,0.0001417454,4,1
-0.0002123673,0.0001521176,4,1
-0.0002147983,0.0001610312,4,1
-0.0001940539,0.000168,4,1
-0.0001543479,0.0001718896,4,1
-9.227693e-05,0.0001712413,4,1
-3.858999e-07,0.0001670276,4,1
0.0001221355,0.0001624898,4,1
0.0002618358,0.0001636242,4,1
0.0003963501,0.0001762653,4,1
0.0005060683,0.0002010613,4,1
0.0005786736,0.0002318537,4,1
0.0006180556,0.0002564877,4,1
0.0006269692,0.0002628082,4,1
0.000602011,0.0002464396,4,1
0.0005388056,0.000210299,4,1
0.0004461041,0.000163138,4,1
0.0003493511,0.0001146805,4,1
0.0002701012,7.384002e-05,4,1
0.0002188885,4.288554e-05,4,1
0.0001984683,2.39239e-05,4,1
0.0002038164,1.355172e-05,4,1
0.0002266676,9.175954e-06,4,1
0.0002433604,9.013889e-06,4,1
0.0002240746,1.063454e-05,4,1
0.0001483901,9.175954e-06,4,1
1.468618e-05,8.203562e-06,4,1
-0.0001486757,1.047248e-05,4,1
-0.0002956689,1.760335e-05,4,1
-0.000380267,2.570662e-05,4,1
-0.0003833462,2.76514e-05,4,1
-0.0003204649,1.760335e-05,4,1
-0.0002327876,-5.89612e-06,4,1
-0.000159534,-3.879538e-05,4,1
-0.0001151281,-7.914964e-05,4,1
-8.579432e-05,-0.0001195039,4,1
-5.581224e-05,-0.0001515928,4,1
-2.42095e-05,-0.0001710407,4,1
3.503668e-06,-0.0001794681,4,1
2.084466e-05,-0.0001828714,4,1
2.619281e-05,-0.0001885437,4,1
1.938607e-05,-0.0001977815,4,1
2.693341e-06,-0.0002107467,4,1
-1.934754e-05,-0.0002295462,4,1
-4.203669e-05,-0.0002530457,4,1
-6.261898e-05,-0.0002768693,4,1
-8.255302e-05,-0.000295993,4,1
-0.000107349,-0.0003087962,4,1
-0.0001365208,-0.0003185201,4,1
-0.0001660166,-0.0003224097,4,1
-0.0001927574,-0.0003172236,4,1
-0.000219012,-0.0003045825,4,1
-0.0002382978,-0.0002874036,4,1
-0.0002417012,-0.0002655248,4,1
-0.0002253326,-0.0002404046,4,1
-0.0001955125,-0.0002191741,4,1
-0.0001611547,-0.0002083157,4,1
-0.0001285796,-0.0002078295,4,1
-0.0001060525,-0.0002152845,4,1
-0.0001021629,-0.0002230636,4,1
-0.0001149661,-0.0002233878,4,1
-0.00012469,-0.0002113949,4,1
-0.0001000561,-0.0001870851,4,1
-1.756482e-05,-0.0001603444,4,1
0.0001116012,-0.0001431655,4,1
0.0002459534,-0.0001459206,4,1
0.0003407616,-0.0001665028,4,1
0.0003743092,-0.0001909747,4,1
0.0003530786,-0.0002062088,4,1
0.0002981384,-0.0002037779,4,1
0.0002320158,-0.0001791439,4,1
0.0001728619,-0.0001316588,4,1
0.0001195424,-6.48879e-05,4,1
6.622294e-05,1.695509e-05,4,1
6.744974e-06,0.0001044704,4,1
-6.294311e-05,0.0001890685,4,1
-0.0001421931,0.0002628082,4,1
-0.0002224154,0.000321638,4,1
-0.0002891863,0.0003673404,4,1
-0.0003297026,0.0004023465,4,1
-0.0003342404,0.0004263322,4,1
-0.0002976137,0.0004414042,4,1
-0.0002207947,0.0004514523,4,1
-0.0001264727,0.0004608521,4,1
-4.462973e-05,0.000470576,4,1
8.689758e-06,0.0004762483,4,1
4.02925e-05,0.0004699278,4,1
7.254349e-05,0.0004504799,4,1
0.0001193804,0.0004221185,4,1
0.0001762653,0.0003953777,4,1
0.0002316917,0.0003759298,4,1
0.0002759355,0.0003660439,4,1
0.0003072141,0.0003631267,4,1
0.0003266619,0.0003632887,4,1
0.0003328204,0.0003636129,4,1
0.0003276344,0.0003653956,4,1
0.0003166139,0.0003662059,4,1
0.0002983005,0.0003645853,4,1
0.0002624841,0.0003584268,4,1
0.0002075439,0.0003503235,4,1
0.0001459591,0.0003427064,4,1
9.134307e-05,0.0003347652,4,1
5.131294e-05,0.0003196932,4,1
2.700314e-05,0.0002929524,4,1
1.387585e-05,0.0002529222,4,1
1.079661e-05,0.0002025199,4,1
2.359977e-05,0.0001487142,4,1
5.893001e-05,9.847395e-05,4,1
0.0001094944,5.536457e-05,4,1
0.0001586002,2.084466e-05,4,1
0.0001827479,-8.489166e-06,4,1
0.0001660552,-3.798505e-05,4,1
0.0001114392,-7.056019e-05,4,1
3.672706e-05,-0.0001045939,4,1
-4.106429e-05,-0.0001379794,4,1
-0.0001079973,-0.0001663408,4,1
-0.0001609926,-0.0001877334,4,1
-0.0002062088,-0.0001995642,4,1
-0.0002514251,-0.0001982676,4,1
-0.0002985861,-0.0001901644,4,1
-0.0003379679,-0.0001823853,4,1
-0.0003569296,-0.0001775233,4,1
-0.0003483401,-0.0001765509,4,1
-0.0003172236,-0.000181737,4,1
-0.0002778417,-0.0001911368,4,1
-0.0002402425,-0.0002005366,4,1
-0.0002172293,-0.0002058847,4,1
-0.0002125294,-0.0002058847,4,1
-0.0002152845,-0.0002006986,4,1
-0.0002024813,-0.0001935677,4,1
-0.0001548341,-0.000189192,4,1
-7.282909e-05,-0.0001922712,4,1
1.987227e-05,-0.0002018331,4,1
8.777764e-05,-0.0002112329,4,1
0.0001028497,-0.0002152845,4,1
5.52025e-05,-0.0002094502,4,1
-4.333321e-05,-0.0001912988,4,1
-0.000159372,-0.0001605064,4,1
-0.0002485079,-0.0001186936,4,1
-0.00027849,-7.218083e-05,4,1
-0.0002465631,-2.485776e-05,4,1
-0.0001750923,1.825161e-05,4,1
-0.0001057284,5.228533e-05,4,1
-7.412562e-05,7.432621e-05,4,1
-9.389759e-05,8.761557e-05,4,1
-0.0001564548,9.393612e-05,4,1
-0.0002381357,9.63671e-05,4,1
-0.0003065273,9.588091e-05,4,1
-0.0003327818,9.604298e-05,4,1
-0.0003068514,9.620504e-05,4,1
-0.0002382978,9.782569e-05,4,1
-0.0001428413,9.782569e-05,4,1
-3.798505e-05,8.972242e-05,4,1
6.654708e-05,6.41161e-05,4,1
0.0001696206,1.792748e-05,4,1
0.0002686426,-4.38194e-05,4,1
0.0003582647,-0.0001062146,4,1
0.0004370285,-0.0001499722,4,1
0.0005080132,-0.0001642339,4,1
0.0005731634,-0.000147055,4,1
0.000636531,-0.0001099421,4,1
0.000693416,-6.764301e-05,4,1
0.0007347427,-2.712668e-05,4,1
0.0007507871,9.013889e-06,4,1
0.0007386322,3.948217e-05,4,1
0.0007020054,5.828175e-05,4,1
0.0006517651,6.298164e-05,4,1
0.0005953664,5.730935e-05,4,1
0.0005381573,4.677511e-05,4,1
0.0004817585,3.769945e-05,4,1
0.0004281149,3.591673e-05,4,1
0.0003723644,4.466826e-05,4,1
0.0003098072,6.184718e-05,4,1
0.0002466017,8.502253e-05,4,1
0.0002017096,0.0001094944,4,1
0.0001801549,0.0001302388,4,1
0.0001662173,0.0001464453,4,1
0.0001352628,0.000155683,4,1
6.800567e-05,0.0001551968,4,1
-3.474375e-05,0.0001475797,4,1
-0.0001549962,0.0001355869,4,1
-0.0002690902,0.0001244044,4,1
-0.0003621157,0.000118408,4,1
-0.0004245108,0.0001193804,4,1
-0.0004538446,0.0001237561,4,1
-0.0004587066,0.0001248906,4,1
-0.0004582204,0.000118408,4,1
-0.0004651892,0.0001030118,4,1
-0.0004802613,7.951231e-05,4,1
-0.000494523,5.212327e-05,4,1
-0.0005039228,2.538249e-05,4,1
-0.0005084606,6.420843e-06,4,1
-0.0005139708,2.623614e-07,4,1
-0.0005277464,3.503668e-06,4,1
-0.0005449253,1.112074e-05,4,1
-0.0005489769,1.987227e-05,4,1
-0.0005232086,3.154097e-05,4,1
-0.0004625961,4.013043e-05,4,1
-0.0003794566,3.267542e-05,4,1
-0.0002997205,-6.868513e-06,4,1
-0.0002408908,-7.914964e-05,4,1
-0.000201509,-0.0001695821,4,1
-0.0001746061,-0.0002504527,4,1
-0.0001504584,-0.000298424,4,1
-0.0001183694,-0.0003060411,4,1
-7.866345e-05,-0.0002843243,4,1
-3.652646e-05,-0.0002504527,4,1
-7.100305e-07,-0.0002225774,4,1
2.197911e-05,-0.0002113949,4,1
2.781346e-05,-0.0002151224,4,1
2.34377e-05,-0.0002220912,4,1
2.246531e-05,-0.0002245222,4,1
3.024445e-05,-0.0002185258,4,1
4.580272e-05,-0.0002084778,4,1
6.654708e-05,-0.0001994021,4,1
8.453633e-05,-0.0001969711,4,1
9.879808e-05,-0.0001998883,4,1
0.0001078737,-0.0002018331,4,1
0.000113384,-0.0001951884,4,1
0.0001120874,-0.0001739578,4,1
9.831188e-05,-0.0001381414,4,1
7.254349e-05,-9.584238e-05,4,1
3.818565e-05,-5.905355e-05,4,1
-2.168618e-06,-3.198864e-05,4,1
-4.414354e-05,-1.25408e-05,4,1
-7.947377e-05,8.689758e-06,4,1
-9.405965e-05,3.98063e-05,4,1
-7.60704e-05,7.935024e-05,4,1
-2.647842e-05,0.0001252147,4,1
3.364782e-05,0.0001686482,4,1
7.335383e-05,0.000205275,4,1
7.610894e-05,0.0002354192,4,1
4.871989e-05,0.0002636185,4,1
1.727922e-05,0.0003004074,4,1
4.962256e-06,0.0003511338,4,1
2.327564e-05,0.0004062361,4,1
6.849186e-05,0.0004449697,4,1
0.0001261871,0.0004459421,4,1
0.0001783722,0.0004065602,4,1
0.0002124059,0.0003427064,4,1
0.0002245608,0.0002786906,4,1
0.0002112714,0.0002334744,4,1
0.0001684862,0.0002119197,4,1
0.0001080358,0.0002109473,4,1
5.860588e-05,0.0002235884,4,1
6.184718e-05,0.0002412535,4,1
0.0001462832,0.000254867,4,1
0.0003031625,0.0002618358,4,1
0.0004846757,0.0002636185,4,1
0.0006362069,0.0002631324,4,1
0.000725829,0.0002603772,4,1
0.0007499768,0.0002555152,4,1
0.000720805,0.0002446569,4,1
0.0006580857,0.0002273159,4,1
0.0005840218,0.000200413,4,1
0.0005195198,0.0001621656,4,1
0.0004807861,0.000111115,4,1
0.0004702519,4.72613e-05,4,1
0.0004777069,-2.550602e-05,4,1
0.0004858102,-0.0001021629,4,1
0.0004796517,-0.0001763888,4,1
0.0004503179,-0.0002447804,4,1
0.0003927847,-0.0003011791,4,1
0.0003115899,-0.0003426678,4,1
0.0002162954,-0.0003656811,4,1
0.0001180839,-0.0003720016,4,1
2.975825e-05,-0.0003666535,4,1
-4.187462e-05,-0.0003535262,4,1
-0.0001005423,-0.0003400748,4,1
-0.0001554824,-0.0003303509,4,1
-0.0002130156,-0.0003266234,4,1
-0.0002737901,-0.0003292164,4,1
-0.0003345645,-0.0003361852,4,1
-0.0003940425,-0.000345585,4,1
-0.0004483344,-0.0003493125,4,1
-0.0004971161,-0.0003403989,4,1
-0.0005379565,-0.0003180339,4,1
-0.0005653456,-0.0002856209,4,1
-0.0005794452,-0.000246239,4,1
-0.0005784728,-0.000208964,4,1
-0.000556756,-0.0001801163,4,1
-0.0005123502,-0.0001618029,4,1
-0.0004484965,-0.0001517549,4,1
-0.0003731361,-0.0001439758,4,1
-0.000298424,-0.0001329553,4,1
-0.0002331117,-0.0001159385,4,1
-0.0001851404,-9.713889e-05,4,1
-0.0001549962,-8.141856e-05,4,1
-0.0001441378,-6.845333e-05,4,1
-0.0001606685,-5.581224e-05,4,1
-0.0002047502,-3.895745e-05,4,1
-0.0002658489,-1.67545e-05,4,1
-0.0003267854,9.66215e-06,4,1
-0.0003710293,3.867184e-05,4,1
-0.0003886944,6.233338e-05,4,1
-0.0003799429,7.254349e-05,4,1
-0.0003499608,6.914012e-05,4,1
-0.0003086341,5.585077e-05,4,1
-0.0002684419,3.867184e-05,4,1
-0.0002392702,2.570662e-05,4,1
-0.0002222533,2.619281e-05,4,1
-0.0002123673,3.624086e-05,4,1
-0.0001998883,5.066468e-05,4,1
-0.0001695821,6.557468e-05,4,1
-0.000112373,7.789165e-05,4,1
-2.566809e-05,8.46984e-05,4,1
7.951231e-05,9.101894e-05,4,1
0.0001851789,0.0001046324,4,1
0.0002726942,0.0001271595,4,1
0.0003320101,0.0001527658,4,1
0.0003613439,0.0001764274,4,1
0.0003671783,0.0001900409,4,1
0.0003542131,0.0001892305,4,1
0.0003307136,0.0001777239,4,1
0.0003075383,0.0001678379,4,1
0.0002905214,0.0001675138,4,1
0.0002793389,0.0001793446,4,1
0.000274639,0.0002010613,4,1
0.0002749631,0.0002308813,4,1
0.0002675081,0.0002670219,4,1
0.0002406053,0.0003031625,4,1
0.0001973338,0.0003297412,4,1
0.0001547106,0.0003378445,4,1
0.0001334801,0.0003255275,4,1
0.0001378558,0.0002987867,4,1
0.0001519555,0.0002712356,4,1
0.0001595726,0.000249843,4,1
0.0001519555,0.0002376881,4,1
0.0001297526,0.0002370398,4,1
9.750156e-05,0.0002511395,4,1
6.119892e-05,0.0002817699,4,1
1.54965e-05,0.0003219621,4,1
-4.527799e-05,0.0003602095,4,1
-0.0001237176,0.0003820883,4,1
-0.0002104225,0.0003781987,4,1
-0.0002916173,0.000344165,4,1
-0.0003496366,0.0002877662,4,1
-0.0003710293,0.0002214815,4,1
-0.0003583881,0.0001574657,4,1
-0.0003225718,0.0001031738,4,1
-0.0002694143,6.071273e-05,4,1
-0.0002006986,2.603075e-05,4,1
-0.0001235555,-7.354709e-06,4,1
-5.435365e-05,-4.317115e-05,4,1
-2.654814e-06,-8.141856e-05,4,1
3.364782e-05,-0.0001190177,4,1
7.043665e-05,-0.0001501342,4,1
0.0001206769,-0.0001663408,4,1
0.0001937684,-0.0001661787,4,1
0.0002898731,-0.0001543479,4,1
0.0003895433,-0.0001399241,4,1
0.0004637693,-0.0001334415,4,1
0.0004884033,-0.0001433275,4,1
0.0004670106,-0.0001671511,4,1
0.0004235771,-0.00019924,4,1
0.00038614,-0.0002340841,4,1
0.0003670162,-0.0002690902,4,1
0.0003577785,-0.0003026377,4,1
0.000339141,-0.0003318095,4,1
0.0002981384,-0.0003519055,4,1
0.0002294227,-0.0003549848,4,1
0.0001410971,-0.0003368335,4,1
4.45062e-05,-0.0002963172,4,1
-4.349527e-05,-0.0002418632,4,1
-0.0001105903,-0.000184168,4,1
-0.0001511067,-0.0001332795,4,1
-0.0001624512,-9.486997e-05,4,1
-0.0001488377,-6.456377e-05,4,1
-0.0001178833,-3.879538e-05,4,1
-8.012204e-05,-2.015787e-05,4,1
-4.754691e-05,-1.448558e-05,4,1
-3.020592e-05,-2.566809e-05,4,1
-3.166451e-05,-5.078821e-05,4,1
-4.608832e-05,-8.093236e-05,4,1
-7.104638e-05,-0.0001029732,4,1
-0.0001062146,-0.0001112386,4,1
-0.0001609926,-0.0001062146,4,1
-0.0002420253,-9.29252e-05,4,1
-0.0003457471,-7.963584e-05,4,1
-0.0004559515,-7.412562e-05,4,1
-0.0005483287,-7.347736e-05,4,1
-0.0005971103,-7.380149e-05,4,1
-0.000583821,-7.250496e-05,4,1
-0.0005074882,-7.120844e-05,4,1
-0.0003857772,-6.861539e-05,4,1
-0.0002494803,-6.342931e-05,4,1
-0.0001237176,-5.030202e-05,4,1
-1.837515e-05,-2.583016e-05,4,1
7.918817e-05,1.014835e-05,4,1
0.0001837203,4.985435e-05,4,1
0.0002950592,8.712937e-05,4,1
0.0003991052,0.000121001,4,1
0.0004762483,0.000153252,4,1
0.0005131993,0.0001843686,4,1
0.0005091476,0.0002124059,4,1
0.0004757621,0.0002297469,4,1
0.00043087,0.0002334744,4,1
0.0003871123,0.0002269918,4,1
0.0003435168,0.0002153231,4,1
0.0002911697,0.0002059233,4,1
0.0002211574,0.0002060853,4,1
0.0001326697,0.0002138645,4,1
2.619281e-05,0.0002273159,4,1
-9.049421e-05,0.0002430362,4,1
-0.0001976194,0.0002587566,4,1
-0.000266173,0.0002760976,4,1
-0.0002715212,0.0002929524,4,1
-0.0002146363,0.0003064038,4,1
-0.0001324691,0.0003120761,4,1
-7.380149e-05,0.0003114278,4,1
-6.504996e-05,0.0003088348,4,1
-9.908367e-05,0.0002981384,4,1
-0.0001506204,0.0002712356,4,1
-0.0001927574,0.000225209,4,1
-0.0002055606,0.0001676758,4,1
-0.0001840059,0.0001177597,4,1
-0.0001300382,9.409818e-05,4,1
-4.965376e-05,9.750156e-05,4,1
5.552663e-05,0.0001166253,4,1
0.0001838824,0.0001386662,4,1
0.0003159656,0.0001616794,4,1
0.0004213082,0.0001837203,4,1
0.0004773828,0.0002031682,4,1
0.0004849998,0.0002166196,4,1
0.0004538833,0.0002213195,4,1
0.0003963501,0.0002159713,4,1
0.0003247172,0.0001963614,4,1
0.0002553532,0.0001650828,4,1
0.0001997648,0.0001250527,4,1
0.0001568175,7.935024e-05,4,1
0.0001205148,3.040651e-05,4,1
7.481241e-05,-1.983374e-05,4,1
8.527692e-06,-6.602235e-05,4,1
-8.579432e-05,-0.0001034594,4,1
-0.0001969711,-0.0001300382,4,1
-0.0003023136,-0.0001473791,4,1
-0.0003771877,-0.0001583996,4,1
-0.0004120317,-0.0001713648,4,1
-0.0004065215,-0.0001896782,4,1
-0.0003739464,-0.0002133397,4,1
-0.0003290543,-0.0002423494,4,1
-0.0002848105,-0.000273628,4,1
-0.0002504527,-0.0002992343,4,1
-0.0002326255,-0.0003123616,4,1
-0.0002310048,-0.0003134961,4,1
-0.0002345703,-0.0003023136,4,1
-0.0002342462,-0.0002846485,4,1
-0.0002272773,-0.0002664971,4,1
-0.0002178775,-0.0002556388,4,1
-0.0002125294,-0.000251101,4,1
-0.0002118811,-0.0002577456,4,1
-0.0002110708,-0.0002862691,4,1
-0.0002021572,-0.0003415334,4,1
-0.0001775233,-0.0004155972,4,1
-0.0001319829,-0.0004927403,4,1
-7.088431e-05,-0.0005559457,4,1
-4.599598e-06,-0.0005920863,4,1
5.763349e-05,-0.0005953276,4,1
0.0001154908,-0.0005737729,4,1
0.0001668655,-0.000541846,4,1
0.0002093267,-0.000507002,4,1
0.0002402811,-0.0004711856,4,1
0.0002566497,-0.0004331002,4,1
0.0002577842,-0.0003880461,4,1
0.0002457913,-0.0003329439,4,1
0.0002222919,-0.0002716832,4,1
0.0001840444,-0.0002144742,4,1
0.0001292664,-0.00016942,4,1
5.682316e-05,-0.0001331174,4,1
-3.312309e-05,-9.762509e-05,4,1
-0.0001340898,-5.338126e-05,4,1
-0.0002298704,5.124321e-06,4,1
-0.0003006929,7.57848e-05,4,1
-0.0003324577,0.0001498487,4,1
-0.0003212752,0.000222616,4,1
-0.0002833519,0.0002910076,4,1
-0.000243808,0.0003537269,4,1
-0.0002182017,0.0004096394,4,1
-0.0002062088,0.0004595556,4,1
-0.0002032917,0.0005057442,4,1
-0.0002122053,0.000552419,4,1
-0.0002442942,0.0005989318,4,1
-0.0002891863,0.0006371793,4,1
-0.0003144685,0.0006593822,4,1
-0.000288538,0.0006697544,4,1
-0.000194216,0.0006840162,4,1
-4.155049e-05,0.0007104329,4,1
0.0001394765,0.0007460872,4,1
0.0003188828,0.0007723419,4,1
0.0004793275,0.0007611593,4,1
0.0006185417,0.000695847,4,1
0.0007378219,0.0005846701,4,1
0.0008360335,0.0004537212,4,1
0.0009070183,0.0003294171,4,1
0.0009493173,0.0002312055,4,1
0.0009702237,0.0001654069,4,1
0.0009805959,0.0001274836,4,1
0.0009833511,0.0001052807,4,1
0.0009754099,8.583286e-05,4,1
0.0009455899,6.217132e-05,4,1
0.0008807636,3.526847e-05,4,1
0.0007739625,1.112074e-05,4,1
0.0006358828,-8.489166e-06,4,1
0.0004890515,-3.182657e-05,4,1
0.0003461098,-6.780507e-05,4,1
0.0002104611,-0.0001161005,4,1
8.226741e-05,-0.0001642339,4,1
-4.446767e-05,-0.0001977815,4,1
-0.000171851,-0.0002109087,4,1
-0.0003006929,-0.0002078295,4,1
-0.0004319658,-0.0001984297,4,1
-0.0005574043,-0.0001959987,4,1
-0.0006655019,-0.0002102605,4,1
-0.0007500999,-0.0002425115,4,1
-0.0008152502,-0.0002856209,4,1
-0.0008688938,-0.0003238683,4,1
-0.0009186479,-0.0003468815,4,1
-0.0009628917,-0.00035304,4,1
-0.0009944944,-0.0003444506,4,1
-0.001000167,-0.0003326198,4,1
-0.0009658089,-0.0003237062,4,1
-0.0008851003,-0.0003131719,4,1
-0.0007632272,-0.0002982619,4,1
-0.0006116962,-0.0002771934,4,1
-0.0004446069,-0.0002517492,4,1
-0.0002840002,-0.0002248464,4,1
-0.0001533756,-0.000199078,4,1
-6.326724e-05,-0.0001762268,4,1
-1.156841e-05,-0.0001566169,4,1
1.452411e-05,-0.0001428413,4,1
3.299956e-05,-0.0001344139,4,1
5.309566e-05,-0.000127283,4,1
7.562274e-05,-0.0001183694,4,1
9.344993e-05,-0.0001037836,4,1
0.0001033359,-8.660465e-05,4,1
0.0001041462,-6.893953e-05,4,1
0.0001020394,-5.305713e-05,4,1
0.0001056048,-4.009191e-05,4,1
0.0001219734,-3.020592e-05,4,1
0.0001519555,-2.194059e-05,4,1
0.0001902029,-1.610624e-05,4,1
0.0002261814,-1.3027e-05,4,1
0.0002480603,-1.010982e-05,4,1
0.0002511395,-2.168618e-06,4,1
0.0002363916,1.630683e-05,4,1
0.0002107852,4.110282e-05,4,1
0.0001812893,6.298164e-05,4,1
0.0001598967,7.448828e-05,4,1
0.0001558451,7.756752e-05,4,1
0.0001717275,7.594687e-05,4,1
0.0001986303,7.351589e-05,4,1
0.0002211574,7.238143e-05,4,1
0.0002198609,7.043665e-05,4,1
0.0001783722,6.476436e-05,4,1
9.652917e-05,5.666109e-05,4,1
-1.562004e-05,5.082674e-05,4,1
-0.0001337657,4.855783e-05,4,1
-0.000231329,4.790957e-05,4,1
-0.0002812451,5.423012e-05,4,1
-0.0002679557,7.20573e-05,4,1
-0.0001947022,0.0001046324,4,1
-8.158062e-05,0.000148228,4,1
4.645098e-05,0.0001961994,4,1
0.0001673517,0.0002402811,4,1
0.0002657254,0.0002767458,4,1
0.0003302274,0.0003062417,4,1
0.0003545372,0.0003274723,4,1
0.000336548,0.0003371962,4,1
0.0002807975,0.0003323342,4,1
0.0001971717,0.000311914,4,1
9.782569e-05,0.0002807975,4,1
-5.734056e-06,0.0002462775,4,1
-9.843541e-05,0.0002140265,4,1
-0.0001635857,0.0001869616,4,1
-0.0001896782,0.0001686482,4,1
-0.0001666649,0.0001637863,4,1
-9.649064e-05,0.0001764274,4,1
7.555301e-06,0.0002055991,4,1
0.0001291043,0.0002427121,4,1
0.0002566497,0.0002725321,4,1
0.000381278,0.0002811216,4,1
0.0004906721,0.0002642668,4,1
0.0005768909,0.0002312055,4,1
0.0006409068,0.0001973338,4,1
0.0006953608,0.0001790204,4,1
0.00074787,0.0001843686,4,1
0.0007880622,0.0002064095,4,1
0.0007992447,0.0002287745,4,1
0.0007718556,0.0002384984,4,1
0.000710919,0.0002297469,4,1
0.0006302104,0.0002005751,4,1
0.0005381573,0.0001553589,4,1
0.0004370285,9.733949e-05,4,1
0.0003328204,2.959619e-05,4,1
0.0002303951,-4.90055e-05,4,1
0.0001265113,-0.0001376552,4,1
2.035846e-05,-0.0002327876,4,1
-9.065628e-05,-0.0003248407,4,1
-0.0002055606,-0.0003993907,4,1
-0.0003245165,-0.0004436345,4,1
-0.0004489826,-0.0004565997,4,1
-0.0005775004,-0.000447362,4,1
-0.0007008321,-0.0004287245,4,1
-0.0008050401,-0.0004118697,4,1
-0.0008813728,-0.0004047388,4,1
-0.0009194582,-0.000405063,4,1
-0.0009175134,-0.0004089525,4,1
-0.000876673,-0.0004134903,4,1
-0.0008021229,-0.0004141386,4,1
-0.0006961322,-0.0004058733,4,1
-0.000568911,-0.0003843186,4,1
-0.0004353692,-0.0003520676,4,1
-0.0003126857,-0.0003143064,4,1
-0.0002162569,-0.000276059,4,1
-0.0001579134,-0.0002415391,4,1
-0.0001399241,-0.0002084778,4,1
-0.00015451,-0.0001715269,4,1
-0.0001812508,-0.000129714,4,1
-0.0001948643,-8.141856e-05,4,1
-0.0001786577,-3.085418e-05,4,1
-0.0001366828,1.355172e-05,4,1
-8.757704e-05,4.418206e-05,4,1
-5.759496e-05,5.585077e-05,4,1
-5.338126e-05,4.677511e-05,4,1
-5.791909e-05,2.408596e-05,4,1
-4.398147e-05,-7.100305e-07,4,1
1.257933e-05,-1.740276e-05,4,1
0.0001188942,-2.712668e-05,4,1
0.0002517878,-3.879538e-05,4,1
0.0003730126,-6.148453e-05,4,1
0.0004491834,-9.098041e-05,4,1
0.0004684692,-0.000117235,4,1
0.0004326527,-0.0001336036,4,1
0.0003550234,-0.000137169,4,1
0.0002464396,-0.0001276072,4,1
0.0001222976,-0.0001065387,4,1
4.313994e-06,-7.720486e-05,4,1
-8.482193e-05,-3.782299e-05,4,1
-0.0001302002,4.47606e-06,4,1
-0.0001289037,2.700314e-05,4,1
-8.644259e-05,-2.978945e-06,4,1
-2.404744e-05,-9.616651e-05,4,1
3.705119e-05,-0.0002230636,4,1
8.210535e-05,-0.0003313232,4,1
0.0001030118,-0.0003765395,4,1
9.814982e-05,-0.0003428299,4,1
7.465034e-05,-0.000246401,4,1
4.871989e-05,-0.0001173971,4,1
3.55926e-05,1.306552e-05,4,1
3.705119e-05,0.000120839,4,1
4.288554e-05,0.000195227,4,1
3.964424e-05,0.0002393087,4,1
2.878586e-05,0.0002610255,4,1
2.165498e-05,0.0002704253,4,1
2.81376e-05,0.0002769079,4,1
5.082674e-05,0.0002892249,4,1
7.805372e-05,0.0003101313,4,1
9.928428e-05,0.0003435168,4,1
0.0001090082,0.0003898674,4,1
0.0001128978,0.0004414042,4,1
0.000123432,0.000487917,4,1
0.0001537382,0.0005260024,4,1
0.000195227,0.0005592257,4,1
0.0002193747,0.0005963388,4,1
0.0001950649,0.0006469032,4,1
0.0001172735,0.0007097846,4,1
4.962256e-06,0.0007713694,4,1
-0.0001154523,0.0008165857,4,1
-0.0002230636,0.000839599,4,1
-0.0003023136,0.0008454334,4,1
-0.0003420196,0.0008391128,4,1
-0.0003447747,0.0008324682,4,1
-0.0003241924,0.0008378163,4,1
-0.0002878898,0.0008606675,4,1
-0.0002417012,0.0008958358,4,1
-0.0001927574,0.0009245213,4,1
-0.0001507825,0.0009159319,4,1
-0.0001284175,0.0008423541,4,1
-0.0001329553,0.000695847,4,1
-0.0001600202,0.0004896998,4,1
-0.0001904885,0.0002613496,4,1
-0.0002083157,5.455425e-05,4,1
-0.0002097743,-0.0001018388,4,1
-0.000206695,-0.00019924,4,1
-0.0002122053,-0.0002468872,4,1
-0.0002334358,-0.000258718,4,1
-0.0002648765,-0.0002541802,4,1
-0.0002924276,-0.0002506147,4,1
-0.0002946965,-0.0002608248,4,1
-0.0002533699,-0.0002916173,4,1
-0.0001618029,-0.0003373197,4,1
-3.571614e-05,-0.0003812394,4,1
9.426025e-05,-0.0004107352,4,1
0.00019782,-0.0004212695,4,1
0.0002689667,-0.0004183523,4,1
0.0003172622,-0.0004107352,4,1
0.0003568061,-0.0004061974,4,1
0.0003955397,-0.0004092767,4,1
0.0004321665,-0.0004196489,4,1
0.0004542074,-0.0004384484,4,1
0.0004436732,-0.0004642168,4,1
0.0003924605,-0.0004924161,4,1
0.0003101313,-0.0005180225,4,1
0.0002182402,-0.0005361738,4,1
0.0001438522,-0.0005527044,4,1
0.0001056048,-0.00056648,4,1
0.0001080358,-0.000573935,4,1
0.0001373696,-0.0005643732,4,1
0.0001752929,-0.0005355255,4,1
0.000207706,-0.0004919299,4,1
0.0002331503,-0.0004454172,4,1
0.0002569738,-0.0004070078,4,1
0.0002785285,-0.0003788084,4,1
0.0002889007,-0.0003569296,4,1
0.000282256,-0.0003342404,4,1
0.000267346,-0.0003040963,4,1
0.0002550291,-0.000261149,4,1
0.0002566497,-0.000209126,4,1
0.0002715597,-0.0001587237,4,1
0.0002914938,-0.0001156143,4,1
0.0003025142,-7.931171e-05,4,1
0.0002971661,-4.932962e-05,4,1
0.0002741528,-2.712668e-05,4,1
0.000242388,-1.3027e-05,4,1
0.0002064095,-5.734056e-06,4,1
0.0001694586,2.531276e-06,4,1
0.0001304008,1.355172e-05,4,1
8.453633e-05,3.121684e-05,4,1
2.927205e-05,5.633696e-05,4,1
-3.134038e-05,8.518459e-05,4,1
-9.049421e-05,0.0001114392,4,1
-0.000137169,0.0001331559,4,1
-0.0001656925,0.0001492004,4,1
-0.000176875,0.0001616794,4,1
-0.0001770371,0.0001689724,4,1
-0.0001741199,0.0001692965,4,1
-0.0001663408,0.0001636242,4,1
-0.0001421931,0.0001526038,4,1
-0.0001039456,0.0001310491,4,1
-7.477388e-05,8.729144e-05,4,1
-8.02841e-05,2.100672e-05,4,1
-0.0001191798,-5.208474e-05,4,1
-0.0001690959,-0.0001118868,4,1
-0.0002092881,-0.0001441378,4,1
-0.000241377,-0.0001451102,4,1
-0.0002809209,-0.000122259,4,1
-0.0003335922,-9.146661e-05,4,1
-0.0003946908,-6.634648e-05,4,1
-0.0004593548,-4.916756e-05,4,1
-0.0005220741,-3.571614e-05,4,1
-0.0005833348,-1.480971e-05,4,1
-0.0006449196,1.59827e-05,4,1
-0.0006935392,5.066468e-05,4,1
-0.0007076389,8.194328e-05,4,1
-0.0006635571,0.0001005808,4,1
-0.0005512458,0.0001033359,4,1
-0.0003788084,9.182927e-05,4,1
-0.0001741199,6.735741e-05,4,1
3.251336e-05,4.061663e-05,4,1
0.0002211574,2.278944e-05,4,1
0.000388733,1.501031e-05,4,1
0.0005388056,6.420843e-06,4,1
0.0006752646,-5.57199e-06,4,1
0.0007963275,-2.0482e-05,4,1
0.0008956737,-3.166451e-05,4,1
0.0009656859,-3.393342e-05,4,1
0.001000206,-2.631635e-05,4,1
0.0009945336,-7.678839e-06,4,1
0.0009457519,2.214118e-05,4,1
0.0008611537,5.325772e-05,4,1
0.0007590525,7.513654e-05,4,1
0.0006572754,8.405014e-05,4,1
0.0005660325,8.016057e-05,4,1
0.0004880791,6.78436e-05,4,1
0.0004195254,5.455425e-05,4,1
0.000349027,4.531652e-05,4,1
0.0002666978,4.434413e-05,4,1
0.000170431,4.888196e-05,4,1
6.395404e-05,5.341979e-05,4,1
-4.787104e-05,5.098881e-05,4,1
-0.0001645581,3.98063e-05,4,1
-0.0002865932,2.781346e-05,4,1
-0.0004180282,2.424803e-05,4,1
-0.0005608077,2.975825e-05,4,1
-0.0007047217,4.175109e-05,4,1
-0.000829674,5.228533e-05,4,1
-0.0009150825,5.017848e-05,4,1
-0.000943768,2.894792e-05,4,1
-0.0009079515,-9.785688e-06,4,1
-0.0008092538,-5.532604e-05,4,1
-0.0006601537,-9.341139e-05,4,1
-0.0004815578,-0.0001101041,4,1
-0.0003040963,-0.0001010285,4,1
-0.0001583996,-6.91016e-05,4,1
-6.504996e-05,-2.89094e-05,4,1
-2.566809e-05,6.420843e-06,4,1
-2.534396e-05,3.413401e-05,4,1
-3.944364e-05,5.52025e-05,4,1
-5.192267e-05,7.221937e-05,4,1
-5.467778e-05,8.712937e-05,4,1
-4.738484e-05,0.0001065772,4,1
-3.101625e-05,0.0001351007,4,1
-1.140634e-05,0.0001697827,4,1
-1.682422e-06,0.0002065715,4,1
-6.868513e-06,0.0002419018,4,1
-2.46957e-05,0.0002686426,4,1
-4.349527e-05,0.0002848491,4,1
-5.402952e-05,0.0002929524,4,1
-5.435365e-05,0.0002983005,4,1
-5.192267e-05,0.0003049452,4,1
-5.483985e-05,0.0003146691,4,1
-5.953974e-05,0.0003258516,4,1
-5.759496e-05,0.0003360618,4,1
-4.787104e-05,0.0003438409,4,1
-3.555408e-05,0.0003478926,4,1
-2.680255e-05,0.000351458,4,1
-2.339918e-05,0.0003571303,4,1
-2.534396e-05,0.0003665301,4,1
-3.490581e-05,0.0003775505,4,1
-4.997789e-05,0.0003859779,4,1
-6.731888e-05,0.0003905157,4,1
-8.563225e-05,0.0003869503,4,1
-0.0001138316,0.0003658818,4,1
-0.0001655305,0.0003072141,4,1
-0.0002417012,0.000195389,4,1
-0.0003267854,3.18651e-05,4,1
-0.0003942046,-0.0001477033,4,1
-0.0004222419,-0.0002971275,4,1
-0.0004070078,-0.0004011734,4,1
-0.0003626019,-0.0004742648,4,1
-0.0003081479,-0.0005345531,4,1
-0.0002564491,-0.0005881967,4,1
-0.0002138259,-0.000623689,4,1
-0.0001799543,-0.0006291993,4,1
-0.0001488377,-0.0006029447,4,1
-0.0001070249,-0.0005538389,4,1
-4.706071e-05,-0.000496954,4,1
3.316162e-05,-0.0004452552,4,1
0.0001304008,-0.000407656,4,1
0.0002336365,-0.0003862634,4,1
0.000329255,-0.0003775118,4,1
0.0004029947,-0.0003755671,4,1
0.0004459421,-0.0003671397,4,1
0.0004514523,-0.0003410472,4,1
0.0004203358,-0.0002945344,4,1
0.0003577785,-0.0002329496,4,1
0.0002783665,-0.0001645581,4,1
0.0002111094,-9.470791e-05,4,1
0.0001790204,-2.485776e-05,4,1
0.0001867996,4.888196e-05,4,1
0.0002243987,0.0001286181,4,1
0.0002709115,0.0002112714,4,1
0.0003140208,0.0002939248,4,1
0.0003488649,0.0003765781,4,1
0.0003751195,0.0004694416,4,1
0.0003994293,0.0005825632,4,1
0.0004350837,0.0007188602,4,1
0.0004862963,0.0008598572,4,1
0.0005441537,0.0009760582,4,1
0.0005971491,0.001036509,4,1
0.0006306967,0.001025974,4,1
0.0006360448,0.0009619584,4,1
0.0006118971,0.0008930806,4,1
0.0005665187,0.0008627744,4,1
0.0005042856,0.0008775223,4,1
0.0004294114,0.0008998874,4,1
0.0003472443,0.0008752534,4,1
0.0002699391,0.000767804,4,1
0.0002073819,0.0005754323,4,1
0.0001577899,0.0003294171,4,1
0.0001072255,7.886404e-05,4,1
4.369587e-05,-0.0001303623,4,1
-3.21507e-05,-0.0002752487,4,1
-0.000112211,-0.0003548227,4,1
-0.0001831956,-0.0003854531,4,1
-0.0002358668,-0.0003888564,4,1
-0.000276221,-0.0003801049,4,1
-0.0003170615,-0.0003656811,4,1
-0.0003608192,-0.0003483401,4,1
-0.0003932322,-0.0003305129,4,1
-0.0003964735,-0.0003143064,4,1
-0.000360333,-0.0003026377,4,1
-0.0002938862,-0.0003026377,4,1
-0.0002177155,-0.0003172236,4,1
-0.0001464067,-0.0003408851,4,1
-9.049421e-05,-0.0003637363,4,1
-5.159854e-05,-0.0003775118,4,1
-2.518189e-05,-0.0003805911,4,1
-7.840905e-06,-0.0003741085,4,1
3.989864e-06,-0.0003624398,4,1
1.565857e-05,-0.0003523917,4,1
3.510641e-05,-0.0003472056,4,1
7.076078e-05,-0.0003462333,4,1
0.000118408,-0.000345585,4,1
0.0001590864,-0.0003418575,4,1
0.0001801549,-0.000325813,4,1
0.0001843686,-0.000290969,4,1
0.0001819376,-0.0002428356,4,1
0.0001837203,-0.0001964849,4,1
0.000187934,-0.0001634236,4,1
0.0001845306,-0.0001442999,4,1
0.0001634622,-0.0001342519,4,1
0.0001219734,-0.0001282554,4,1
5.893001e-05,-0.0001261486,4,1
-2.031993e-05,-0.0001282554,4,1
-0.0001052422,-0.0001267968,4,1
-0.0001849783,-0.0001193418,4,1
-0.0002520733,-0.0001060525,4,1
-0.0003011791,-9.114248e-05,4,1
-0.0003272716,-7.493595e-05,4,1
-0.0003271096,-5.953974e-05,4,1
-0.0003003688,-4.819517e-05,4,1
-0.0002558008,-3.960571e-05,4,1
-0.0002118811,-3.506788e-05,4,1
-0.0001890299,-3.668853e-05,4,1
-0.0001968091,-4.997789e-05,4,1
-0.0002295462,-7.266703e-05,4,1
-0.000268766,-9.357346e-05,4,1
-0.0002958309,-0.0001018388,4,1
-0.0003005308,-9.2439e-05,4,1
-0.0002854588,-6.958779e-05,4,1
-0.0002630937,-4.835724e-05,4,1
-0.0002509389,-4.446767e-05,4,1
-0.0002603387,-6.796714e-05,4,1
-0.0002930758,-0.0001195039,4,1
-0.000335699,-0.0001861127,4,1
-0.0003698948,-0.0002476975,4,1
-0.0003776739,-0.0002856209,4,1
-0.0003601709,-0.0002972895,4,1
-0.0003284061,-0.000288538,4,1
-0.0002908069,-0.0002718453,4,1
-0.0002532078,-0.0002570974,4,1
-0.0002243602,-0.0002447804,4,1
-0.0002251705,-0.0002298704,4,1
-0.0002694143,-0.0002086398,4,1
-0.0003543365,-0.0001831956,4,1
-0.0004546549,-0.0001533756,4,1
-0.0005326084,-0.0001182074,4,1
-0.0005489769,-7.688073e-05,4,1
-0.0004885266,-3.134038e-05,4,1
-0.0003647087,1.614476e-05,4,1
-0.0002105846,5.925414e-05,4,1
-6.375344e-05,9.182927e-05,4,1
4.969229e-05,0.0001128978,4,1
0.0001244044,0.0001224596,4,1
0.0001736723,0.0001263492,4,1
0.0002235884,0.0001240803,4,1
0.0002939248,0.000120839,4,1
0.0003931088,0.0001177597,4,1
0.0005078511,0.0001143563,4,1
0.0006024973,0.0001140322,4,1
0.0006465791,0.000120839,4,1
0.0006308587,0.000133318,4,1
0.0005725152,0.0001496866,4,1
0.0004969927,0.0001683241,4,1
0.0004208219,0.0001914995,4,1
0.0003631267,0.0002255332,4,1
0.0003464339,0.0002723701,4,1
0.0003871123,0.0003252034,4,1
0.0004801379,0.0003683128,4,1
0.000596825,0.0003828986,4,1
0.0006927677,0.0003681507,4,1
0.0007349047,0.000336548,4,1
0.0007255049,0.0003089969,4,1
0.0006919574,0.0003052694,4,1
0.0006532237,0.0003324963,4,1
0.0006195141,0.0003853296,4,1
0.0005924492,0.000448211,4,1
0.0005749461,0.0005008822,4,1
0.0005691118,0.0005248679,4,1
0.0005757565,0.0005157923,4,1
0.0005883976,0.0004809482,4,1
0.0005973112,0.0004373526,4,1
0.0005997422,0.0003995914,4,1
0.0006007145,0.0003697714,4,1
0.0006084936,0.0003443271,4,1
0.0006284277,0.0003175863,4,1
0.0006598685,0.0002880904,4,1
0.000693578,0.0002540567,4,1
0.0007138362,0.0002090025,4,1
0.0007002227,0.0001513072,4,1
0.0006302104,8.405014e-05,4,1
0.0004934272,1.54965e-05,4,1
0.000297004,-4.706071e-05,4,1
6.217132e-05,-0.0001010285,4,1
-0.0001770371,-0.000144462,4,1
-0.0003950149,-0.0001794681,4,1
-0.0005830107,-0.0002105846,4,1
-0.0007450759,-0.0002374874,4,1
-0.0008873693,-0.0002579077,4,1
-0.001005353,-0.0002723315,4,1
-0.001080713,-0.0002822175,4,1
-0.001095137,-0.0002818933,4,1
-0.00103728,-0.0002741142,4,1
-0.0009105446,-0.0002658489,4,1
-0.0007466965,-0.0002608248,4,1
-0.000606348,-0.0002588801,4,1
-0.00053666,-0.0002590421,4,1
-0.0005433047,-0.0002601766,4,1
-0.0005933828,-0.0002549905,4,1
-0.0006447575,-0.0002410529,4,1
-0.0006638812,-0.0002211189,4,1
-0.0006363301,-0.0002019951,4,1
-0.0005706937,-0.0001895161,4,1
-0.0004862577,-0.0001862748,4,1
-0.0004037664,-0.0001880575,4,1
-0.000340561,-0.0001857886,4,1
-0.0003079858,-0.0001731475,4,1
-0.0003079858,-0.0001554824,4,1
-0.0003335922,-0.0001421931,4,1
-0.0003638984,-0.0001373311,4,1
-0.0003763774,-0.0001417068,4,1
-0.0003569296,-0.0001477033,4,1
-0.0003105789,-0.0001454344,4,1
-0.0002572594,-0.0001313347,4,1
-0.0002136638,-0.0001102662,4,1
-0.0001904885,-0.0001024871,4,1
-0.0001896782,-0.0001250141,4,1
-0.0001994021,-0.0001729855,4,1
-0.0002002124,-0.000221605,4,1
-0.0001804405,-0.0002433218,4,1
-0.0001434896,-0.0002204706,4,1
-9.600444e-05,-0.0001533756,4,1
-4.398147e-05,-6.148453e-05,4,1
8.527692e-06,2.554455e-05,4,1
5.52025e-05,8.323981e-05,4,1
8.939829e-05,0.0001086841,4,1
0.00010366,0.0001124116,4,1
9.118101e-05,0.0001043083,4,1
4.337174e-05,8.939829e-05,4,1
-4.527799e-05,6.168512e-05,4,1
-0.00016942,-1.034161e-06,4,1
-0.0003113892,-0.0001037836,4,1
-0.0004510895,-0.0002178775,4,1
-0.0005770142,-0.0002930758,4,1
-0.0006852738,-0.0002938862,4,1
-0.0007671168,-0.0002175534,4,1
-0.000792561,-9.146661e-05,4,1
-0.0007210903,4.807163e-05,4,1
-0.0005212637,0.0001717275,4,1
-0.000204102,0.0002663737,4,1
0.0001733481,0.0003378445,4,1
0.000522599,0.0004023465,4,1
0.0007707212,0.0004726828,4,1
0.0008925945,0.0005525811,4,1
0.0009126905,0.0006347483,4,1
0.0008825464,0.0007021675,4,1
0.0008489988,0.0007473837,4,1
0.0008428403,0.000777528,4,1
0.0008739569,0.0008050791,4,1
0.0009276005,0.000837168,4,1
0.0009838373,0.0008676364,4,1
0.001033916,0.0008825464,4,1
0.001080266,0.0008681226,4,1
0.001133262,0.0008261476,4,1
0.001189823,0.0007707212,4,1
0.001222722,0.0007225877,4,1
0.001190309,0.0007013571,4,1
0.001071677,0.0007080019,4,1
0.0008817361,0.0007305289,4,1
0.0006545202,0.0007460872,4,1
0.0004324906,0.0007376599,4,1
0.0002569738,0.0007094605,4,1
0.0001508211,0.0006869333,4,1
0.0001101427,0.0006913091,4,1
0.0001072255,0.0007221015,4,1
0.000106091,0.0007496527,4,1
7.918817e-05,0.0007293945,4,1
1.679302e-05,0.0006253485,4,1
-7.104638e-05,0.0004273046,4,1
-0.0001665028,0.0001663793,4,1
-0.0002574215,-0.0001029732,4,1
-0.0003368335,-0.000333268,4,1
-0.0004081422,-0.0005026262,4,1
-0.0004786406,-0.0006084549,4,1
-0.0005536768,-0.0006643674,4,1
-0.0006266062,-0.0006888393,4,1
-0.0006834911,-0.0006954839,4,1
-0.0007040734,-0.0006975908,4,1
-0.0006718224,-0.0007035872,4,1
-0.0005802555,-0.0007170386,4,1
-0.0004403932,-0.0007348658,4,1
-0.0002797865,-0.0007522068,4,1
-0.0001404103,-0.0007624169,4,1
-5.791909e-05,-0.0007646859,4,1
-4.997789e-05,-0.0007635514,4,1
-0.0001042698,-0.0007586894,4,1
-0.0001770371,-0.0007497758,4,1
-0.0002271153,-0.0007347037,4,1
-0.0002426735,-0.0007126629,4,1
-0.0002348944,-0.0006867325,4,1
-0.0002160948,-0.0006590193,4,1
-0.0002042641,-0.0006293613,4,1
-0.0002159328,-0.0006000275,4,1
-0.0002796244,-0.0005781487,4,1
-0.000424997,-0.0005692351,4,1
-0.00065594,-0.0005693972,4,1
-0.0009392301,-0.0005698834,4,1
-0.001210203,-0.0005671282,4,1
-0.001400144,-0.0005640491,4,1
-0.001457353,-0.0005666421,4,1
-0.001369676,-0.000571504,4,1
-0.001160935,-0.0005672903,4,1
-0.0008761868,-0.000544115,4,1
-0.0005663179,-0.0005010056,4,1
-0.000268604,-0.0004446069,4,1
-8.720959e-07,-0.0003822118,4,1
0.0002365536,-0.0003173856,4,1
0.0004486972,-0.0002475355,4,1
0.0006457687,-0.0001734716,4,1
0.0008331164,-0.0001010285,4,1
0.001013819,-3.506788e-05,4,1
0.001184312,1.711715e-05,4,1
0.001341192,5.341979e-05,4,1
0.001477651,7.772959e-05,4,1
0.001582184,9.63671e-05,4,1
0.001637286,0.0001099806,4,1
0.001628859,0.0001206769,4,1
0.001563708,0.0001299146,4,1
0.001464686,0.0001398006,4,1
0.001357398,0.000155683,4,1
0.00125319,0.0001752929,4,1
0.001144282,0.0001983062,4,1
0.001015926,0.0002295848,4,1
0.000861964,0.0002691288,4,1
0.000685961,0.0003099692,4,1
0.000492779,0.0003422202,4,1
0.0002863077,0.0003628026,4,1
7.67572e-05,0.0003709058,4,1
-0.0001235555,0.0003697714,4,1
-0.0003073376,0.0003587509,4,1
-0.0004726442,0.0003380065,4,1
-0.0006094273,0.0003128864,4,1
-0.0007066664,0.0002924662,4,1
-0.0007507482,0.0002869559,4,1
-0.0007372968,0.0003030004,4,1
-0.0006739292,0.0003425444,4,1
-0.0005760419,0.0003969983,4,1
-0.0004650271,0.0004454559,4,1
-0.0003768636,0.0004665244,4,1
-0.0003470436,0.0004417284,4,1
-0.0003870737,0.0003704196,4,1
-0.0004765338,0.0002731804,4,1
-0.0005757177,0.0001749688,4,1
-0.000648323,9.458438e-05,4,1
-0.0006690673,4.256141e-05,4,1
-0.0006303337,1.630683e-05,4,1
-0.0005394151,6.258778e-06,4,1
-0.0004165696,2.693341e-06,4,1
-0.0002828657,3.989864e-06,4,1
-0.00015451,6.096713e-06,4,1
-5.143648e-05,6.744974e-06,4,1
6.90704e-06,3.341602e-06,4,1
8.851824e-06,-6.544382e-06,4,1
-3.928157e-05,-2.129233e-05,4,1
-0.0001245279,-3.555408e-05,4,1
-0.000228898,-4.317115e-05,4,1
-0.0003305129,-3.895745e-05,4,1
-0.0004066836,-2.680255e-05,4,1
-0.0004429862,-1.286493e-05,4,1
-0.0004387725,-6.058186e-06,4,1
-0.000405225,-1.270286e-05,4,1
-0.0003627639,-3.944364e-05,4,1
-0.0003272716,-8.287715e-05,4,1
-0.0003070135,-0.0001326312,4,1
-0.0002987481,-0.0001734716,4,1
-0.0002964792,-0.0001948643,4,1
-0.0002964792,-0.0001912988,4,1
-0.0002961551,-0.0001689338,4,1
-0.0002940482,-0.0001400862,4,1
-0.0002791382,-0.0001157764,4,1
-0.0002397564,-0.0001055663,4,1
-0.0001724993,-0.0001135075,4,1
-8.692878e-05,-0.0001407345,4,1
-1.682422e-06,-0.0001781716,4,1
6.314371e-05,-0.000206533,4,1
9.604298e-05,-0.0002097743,4,1
0.0001022015,-0.0001838438,4,1
9.814982e-05,-0.0001426792,4,1
0.0001007429,-9.924574e-05,4,1
0.0001195424,-6.180866e-05,4,1
0.0001527658,-3.474375e-05,4,1
0.0001916615,-2.647842e-05,4,1
0.0002302331,-4.317115e-05,4,1
0.0002637806,-7.088431e-05,4,1
0.0002884145,-9.2439e-05,4,1
0.0003021901,-0.000114804,4,1
0.0003007315,-0.0001571031,4,1
0.0002790148,-0.0002237119,4,1
0.000237526,-0.000295993,4,1
0.0001830721,-0.0003413713,4,1
0.0001323456,-0.000333268,4,1
0.0001020394,-0.0002656868,4,1
0.0001031738,-0.0001553203,4,1
0.0001321835,-2.323711e-05,4,1
0.0001757791,0.0001161391,4,1
0.0002172679,0.0002530843,4,1
0.0002436845,0.0003817642,4,1
0.000249843,0.0004911583,4,1
0.000242388,0.0005728393,4,1
0.0002341226,0.0006211348,4,1
0.0002289366,0.0006384758,4,1
0.0002256952,0.0006323173,4,1
0.0002229401,0.0006140039,4,1
0.0002192126,0.000591963,4,1
0.0002154851,0.0005754323,4,1
0.0002162954,0.0005668429,4,1
0.0002245608,0.0005648981,4,1
0.0002389846,0.0005692738,4,1
0.0002530843,0.0005768909,4,1
0.0002558394,0.0005849942,4,1
0.0002401191,0.0005948802,4,1
0.0002041406,0.0006133557,4,1
0.0001560072,0.0006459308,4,1
0.0001132219,0.0006930918,4,1
8.777764e-05,0.0007545147,4,1
8.46984e-05,0.000819827,4,1
0.0001028497,0.0008655295,4,1
0.0001323456,0.0008703915,4,1
0.0001573037,0.0008253373,4,1
0.0001608691,0.0007290703,4,1
0.0001302388,0.0005827253,4,1
6.379197e-05,0.0003976466,4,1
-2.09682e-05,0.000195227,4,1
-0.0001037836,-2.238346e-07,4,1
-0.0001679614,-0.0001642339,4,1
-0.0002045882,-0.0002814071,4,1
-0.0002149604,-0.0003486642,4,1
-0.0002086398,-0.0003732982,4,1
-0.0001994021,-0.000367788,4,1
-0.0002031296,-0.0003483401,4,1
-0.0002342462,-0.0003316474,4,1
-0.0002930758,-0.0003275957,4,1
-0.000365519,-0.0003363473,4,1
-0.0004230522,-0.0003507711,4,1
-0.0004425001,-0.0003716775,4,1
-0.0004139766,-0.0003985804,4,1
-0.0003449367,-0.0004282383,4,1
-0.0002630937,-0.0004543308,4,1
-0.0001964849,-0.000467134,4,1
-0.0001575893,-0.0004627582,4,1
-0.0001387897,-0.0004459034,4,1
-0.0001250141,-0.0004188385,4,1
-0.0001107524,-0.0003841565,4,1
-0.0001005423,-0.0003472056,4,1
-0.0001036215,-0.0003151167,4,1
-0.0001264727,-0.000285945,4,1
-0.0001652063,-0.0002572594,4,1
-0.000201671,-0.0002293842,4,1
-0.0002131776,-0.0002036158,4,1
-0.0001935677,-0.0001859507,4,1
-0.0001486757,-0.0001862748,4,1
-8.919769e-05,-0.0002029675,4,1
-2.84232e-05,-0.0002235498,4,1
2.667901e-05,-0.0002350565,4,1
7.935024e-05,-0.0002358668,4,1
0.0001386662,-0.0002284118,4,1
0.0002130541,-0.0002151224,4,1
0.0003051073,-0.0001984297,4,1
0.0004015361,-0.0001822232,4,1
0.0004837033,-0.0001734716,4,1
0.0005405883,-0.0001759026,4,1
0.000572029,-0.000186761,4,1
0.0005783495,-0.000199078,4,1
0.0005546879,-0.0002055606,4,1
0.0004981271,-0.0002023193,4,1
0.0004187151,-0.0001919471,4,1
0.0003299033,-0.0001781716,4,1
0.00024255,-0.0001640719,4,1
0.0001645966,-0.0001480274,4,1
0.0001039842,-0.0001323071,4,1
6.362991e-05,-0.0001216107,4,1
4.628891e-05,-0.000119666,4,1
4.953022e-05,-0.0001290658,4,1
6.525056e-05,-0.0001488377,4,1
8.113296e-05,-0.0001737958,4,1
8.648112e-05,-0.0001968091,4,1
7.740546e-05,-0.0002125294,4,1
6.071273e-05,-0.0002183637,4,1
5.309566e-05,-0.000211557,4,1
6.670914e-05,-0.0001921092,4,1
0.0001039842,-0.0001614788,4,1
0.0001539003,-0.0001289037,4,1
0.000200413,-9.778715e-05,4,1
0.0002313675,-6.586029e-05,4,1
0.0002454672,-3.458168e-05,4,1
0.0002538946,-8.813297e-06,4,1
0.0002760976,6.90704e-06,4,1
0.0003255275,1.160693e-05,4,1
0.0003976466,1.160693e-05,4,1
0.0004728449,1.484824e-05,4,1
0.0005166026,2.489629e-05,4,1
0.0005068787,4.434413e-05,4,1
0.0004451317,7.562274e-05,4,1
0.000353889,0.0001127357,4,1
0.0002611876,0.0001459591,4,1
0.0001788584,0.0001663793,4,1
0.0001051186,0.0001707551,4,1
3.60788e-05,0.0001626518,4,1
-3.587821e-05,0.0001487142,4,1
-0.0001178833,0.0001338042,4,1
-0.0002049123,0.0001276457,4,1
-0.0002742763,0.0001341283,4,1
-0.0002883759,0.0001500107,4,1
-0.0002361909,0.0001657311,4,1
-0.0001509446,0.0001743205,4,1
-9.519411e-05,0.0001765894,4,1
-0.0001138316,0.0001788584,4,1
-0.0002032917,0.0001874478,4,1
-0.0003159271,0.0001994406,4,1
-0.000397608,0.0002111094,4,1
-0.0004212695,0.0002185644,4,1
-0.0003950149,0.0002205092,4,1
-0.0003517435,0.0002192126,4,1
-0.00032322,0.0002195368,4,1
-0.0003214373,0.000220023,4,1
-0.0003342404,0.0002174299,4,1
-0.0003384541,0.0002124059,4,1
-0.0003245165,0.0002039785,4,1
-0.0002912931,0.0001905271,4,1
-0.000238946,0.0001762653,4,1
-0.0001707166,0.0001620036,4,1
-9.843541e-05,0.0001445005,4,1
-4.300908e-05,0.0001211631,4,1
-1.853722e-05,9.280167e-05,4,1
-2.501983e-05,6.557468e-05,4,1
-5.69467e-05,4.936815e-05,4,1
-0.0001065387,4.677511e-05,4,1
-0.0001618029,5.082674e-05,4,1
-0.0002143121,4.758544e-05,4,1
-0.0002593663,2.522042e-05,4,1
-0.0002934,-1.805102e-05,4,1
-0.0003078238,-6.569822e-05,4,1
-0.0002932379,-9.794922e-05,4,1
-0.0002525595,-0.0001036215,4,1
-0.0001981056,-8.44978e-05,4,1
-0.0001528894,-5.662256e-05,4,1
-0.0001357104,-4.641245e-05,4,1
-0.0001532135,-6.974985e-05,4,1
-0.0001885437,-0.0001229073,4,1
-0.0002256567,-0.0001887058,4,1
-0.0002668213,-0.0002468872,4,1
-0.0003225718,-0.0002887001,4,1
-0.0003825359,-0.0003219235,4,1
-0.0004196489,-0.0003541745,4,1
-0.0004146248,-0.0003818876,4,1
-0.0003781601,-0.0003950149,4,1
-0.0003303509,-0.0003825359,4,1
-0.0002794623,-0.0003368335,4,1
-0.0002209568,-0.0002588801,4,1
-0.0001462447,-0.0001580754,4,1
-4.819517e-05,-5.095028e-05,4,1
6.800567e-05,4.402e-05,4,1
0.0001932822,0.0001116012,4,1
0.0003078624,0.0001498487,4,1
0.0003999155,0.000168,4,1
0.0004713863,0.0001764274,4,1
0.0005316747,0.0001897167,4,1
0.0005934216,0.0002224539,4,1
0.0006600305,0.0002704253,4,1
0.0007216153,0.0003002453,4,1
0.0007571077,0.0002780424,4,1
0.0007517595,0.0002072198,4,1
0.0007007089,0.0001255389,4,1
0.0006238899,8.226741e-05,4,1
0.0005483674,0.0001093323,4,1
0.0004961824,0.0002067336,4,1
0.0004652279,0.0003452995,4,1
0.000433301,0.0004833792,4,1
0.0003769022,0.0005898562,4,1
0.0002874421,0.0006569512,4,1
0.0001692965,0.0006966573,4,1
3.380988e-05,0.0007295565,4,1
-0.000112373,0.0007671557,4,1
-0.0002574215,0.0008135065,4,1
-0.0003916115,0.0008613158,4,1
-0.0004984126,0.0008942151,4,1
-0.0005604835,0.0008909738,4,1
-0.0005700454,0.0008313337,4,1
-0.0005215878,0.0007151327,4,1
-0.0004167317,0.0005648981,4,1
-0.0002639041,0.0004096394,4,1
-9.308726e-05,0.0002762596,4,1
5.001642e-05,0.00018291,4,1
0.0001326697,0.0001346145,4,1
0.0001517934,0.0001273216,4,1
0.0001229458,0.0001487142,4,1
7.173317e-05,0.0001816135,4,1
2.700314e-05,0.0002059233,4,1
1.663096e-05,0.0002115956,4,1
5.066468e-05,0.0002021958,4,1
0.0001219734,0.0001918236,4,1
0.000205275,0.0001910133,4,1
0.0002608634,0.0001939304,4,1
0.0002517878,0.0001775618,4,1
0.0001621656,0.0001171115,4,1
8.851824e-06,2.369211e-06,4,1
-0.0001658546,-0.0001533756,4,1
-0.0003211132,-0.0003154408,4,1
-0.0004316416,-0.0004501171,4,1
-0.0004873921,-0.0005407116,4,1
-0.0004867439,-0.0005873864,4,1
-0.0004433104,-0.0006027826,4,1
-0.0003781601,-0.000608617,4,1
-0.0003100927,-0.0006207718,4,1
-0.0002496423,-0.0006400577,4,1
-0.0002018331,-0.0006582089,4,1
-0.0001726613,-0.0006724707,4,1
-0.0001579134,-0.0006826808,4,1
-0.0001472171,-0.0006898117,4,1
-0.0001233935,-0.0006925668,4,1
-8.07703e-05,-0.0006894876,4,1
-2.501983e-05,-0.0006770085,4,1
2.975825e-05,-0.0006541573,4,1
6.83298e-05,-0.0006240131,4,1
7.935024e-05,-0.000591276,4,1
6.087479e-05,-0.0005577285,4,1
2.035846e-05,-0.0005235327,4,1
-2.7937e-05,-0.0004865818,4,1
-6.91016e-05,-0.0004504412,4,1
-9.568031e-05,-0.000419973,4,1
-0.0001013526,-0.0003955011,4,1
-7.55842e-05,-0.0003741085,4,1
-1.432352e-05,-0.0003577399,4,1
7.173317e-05,-0.0003446126,4,1
0.0001577899,-0.000328244,4,1
0.0002190506,-0.0003040963,4,1
0.0002401191,-0.0002726556,4,1
0.0002247229,-0.0002350565,4,1
0.0001924718,-0.0001943781,4,1
0.0001616794,-0.0001538618,4,1
0.0001415833,-0.0001144799,4,1
0.0001368834,-7.752899e-05,4,1
0.0001521176,-4.138842e-05,4,1
0.0001902029,-9.137427e-06,4,1
0.0002456293,1.582063e-05,4,1
0.0003002453,3.267542e-05,4,1
0.0003313618,4.72613e-05,4,1
0.0003295791,6.427817e-05,4,1
0.0002957075,8.567078e-05,4,1
0.0002384984,0.0001127357,4,1
0.0001743205,0.0001420695,4,1
0.0001166253,0.0001701068,4,1
6.719535e-05,0.0001895547,4,1
3.105477e-05,0.0001981441,4,1
1.630683e-05,0.0001989545,4,1
3.073064e-05,0.0002013854,4,1
6.055066e-05,0.0002159713,4,1
8.307774e-05,0.0002483844,4,1
8.42122e-05,0.0002934386,4,1
7.400208e-05,0.0003430306,4,1
7.076078e-05,0.0003859779,4,1
8.453633e-05,0.0004154738,4,1
0.0001096565,0.0004300596,4,1
0.0001375317,0.0004302217,4,1
0.0001636242,0.0004187151,4,1
0.0001808031,0.0003994293,4,1
0.0001790204,0.0003777126,4,1
0.0001503349,0.0003574544,4,1
8.372601e-05,0.0003357376,4,1
-1.950961e-05,0.000309321,4,1
-0.0001464067,0.0002799871,4,1
-0.0002801106,0.0002530843,4,1
-0.0004049009,0.0002289366,4,1
-0.0005029504,0.0002039785,4,1
-0.0005603215,0.0001772377,4,1
-0.0005732867,0.0001467694,4,1
-0.0005463839,0.0001099806,4,1
-0.0004890127,6.78436e-05,4,1
-0.0004138145,2.084466e-05,4,1
-0.000340561,-2.583016e-05,4,1
-0.000295993,-6.407757e-05,4,1
-0.0002893484,-8.709085e-05,4,1
-0.000300855,-0.0001016767,4,1
-0.0002942103,-0.0001146419,4,1
-0.0002420253,-0.0001284175,4,1
-0.0001441378,-0.0001465688,4,1
-1.902341e-05,-0.0001721751,4,1
0.0001185701,-0.0002003745,4,1
0.0002658874,-0.000224036,4,1
0.0004156358,-0.0002306807,4,1
0.0005559844,-0.000213988,4,1
0.0006669993,-0.0001784957,4,1
0.0007311772,-0.0001373311,4,1
0.0007520836,-0.0001060525,4,1
0.0007434942,-9.324933e-05,4,1
0.0007224257,-9.713889e-05,4,1
0.0006992503,-0.0001101041,4,1
0.0006823955,-0.00012469,4,1
0.0006723474,-0.0001327933,4,1
0.0006684579,-0.0001277692,4,1
0.0006618132,-0.0001075111,4,1
0.0006420412,-7.979791e-05,4,1
0.0005971491,-6.099833e-05,4,1
0.0005235714,-6.180866e-05,4,1
0.000435894,-8.790117e-05,4,1
0.0003522683,-0.0001407345,4,1
0.0002816078,-0.0002058847,4,1
0.0002124059,-0.0002595283,4,1
0.0001318594,-0.0002830278,4,1
3.996837e-05,-0.0002708729,4,1
-5.402952e-05,-0.0002293842,4,1
-0.0001368449,-0.0001703924,4,1
-0.0002062088,-0.0001050801,4,1
-0.0002676316,-3.830919e-05,4,1
-0.00032322,3.008238e-05,4,1
-0.0003616295,0.0001002567,4,1
-0.000370543,0.0001657311,4,1
-0.0003434782,0.000215161,4,1
-0.000286107,0.0002459534,4,1
-0.0002146363,0.0002632944,4,1
-0.0001475412,0.0002773941,4,1
-9.746302e-05,0.0002926282,4,1
-6.81292e-05,0.0002973281,4,1
-5.467778e-05,0.0002782044,4,1
-4.819517e-05,0.000237526,4,1
-4.770897e-05,0.0001937684,4,1
-5.808115e-05,0.0001683241,4,1
-8.579432e-05,0.0001735102,4,1
-0.000127283,0.000207706,4,1
-0.0001681235,0.0002607014,4,1
-0.0001935677,0.0003182346,4,1
-0.0002005366,0.0003679886,4,1
-0.0001969711,0.0004051016,4,1
-0.0001846542,0.0004221185,4,1
-0.0001616409,0.0004170944,4,1
-0.0001279313,0.0003984569,4,1
-8.838737e-05,0.0003783608,4,1
-5.22468e-05,0.0003666921,4,1
-3.279896e-05,0.0003696093,4,1
-3.766092e-05,0.0003845193,4,1
-6.893953e-05,0.0004072085,4,1
-0.0001233935,0.0004381629,4,1
-0.0001880575,0.0004796517,4,1
-0.000253856,0.0005302161,4,1
-0.0003170615,0.000577215,4,1
-0.0003734602,0.0006054144,4,1
-0.0004143007,0.0005939078,4,1
-0.0004366657,0.0005219508,4,1
-0.0004604893,0.0003854917,4,1
-0.0005185087,0.0002043026,4,1
-0.0006296854,1.209313e-05,4,1
-0.0007797579,-0.0001524032,4,1
-0.0009273994,-0.0002690902,4,1
-0.001028528,-0.0003410472,4,1
-0.001055917,-0.0003851289,4,1
-0.001011349,-0.0004178661,4,1
-0.0009137859,-0.0004436345,4,1
-0.0007876991,-0.0004601652,4,1
-0.0006470265,-0.0004632444,4,1
-0.0004948471,-0.0004507654,4,1
-0.0003251648,-0.0004191627,4,1
-0.0001302002,-0.0003689224,4,1
9.134307e-05,-0.0003125237,4,1
0.0003229345,-0.0002632558,4,1
0.0005295678,-0.0002277635,4,1
0.0006746164,-0.0002032917,4,1
0.000743008,-0.00018433,4,1
0.0007486803,-0.0001656925,4,1
0.0007185361,-0.0001480274,4,1
0.0006799645,-0.0001318209,4,1
0.0006422033,-0.0001156143,4,1
0.0005908285,-9.827335e-05,4,1
0.000512551,-8.125649e-05,4,1
0.000413529,-6.683268e-05,4,1
0.000319369,-5.32192e-05,4,1
0.0002555152,-3.879538e-05,4,1
0.0002266676,-2.145439e-05,4,1
0.0002221298,2.369211e-06,4,1
0.0002320158,4.207521e-05,4,1
0.0002537325,9.490851e-05,4,1
0.0002806354,0.0001490383,4,1
0.0002937627,0.0001859892,4,1
0.0002717218,0.0001871237,4,1
0.0002114335,0.0001449867,4,1
0.0001297526,6.946425e-05,4,1
4.709924e-05,-1.610624e-05,4,1
-2.09682e-05,-8.838737e-05,4,1
-7.720486e-05,-0.0001311726,4,1
-0.0001276072,-0.0001452723,4,1
-0.0001734716,-0.0001391138,4,1
-0.000209126,-0.0001242038,4,1
-0.0002258187,-0.0001102662,4,1
-0.000216419,-0.0001018388,4,1
-0.0001773612,-9.859748e-05,4,1
-0.0001110765,-9.956988e-05,4,1
-3.036798e-05,-0.0001034594,4,1
3.591673e-05,-0.0001096179,4,1
5.698522e-05,-0.0001170729,4,1
2.846173e-05,-0.0001177212,4,1
-1.659243e-05,-0.0001058904,4,1
-3.166451e-05,-8.320128e-05,4,1
1.079661e-05,-5.483985e-05,4,1
0.0001033359,-2.728874e-05,4,1
0.0002184023,-6.868513e-06,4,1
0.0003383307,3.341602e-06,4,1
0.0004561522,3.989864e-06,4,1
0.0005676532,-3.789272e-06,4,1
0.0006653786,-1.659243e-05,4,1
0.0007389564,-2.858527e-05,4,1
0.0007797969,-3.555408e-05,4,1
0.0007913035,-3.571614e-05,4,1
0.0007802831,-2.858527e-05,4,1
0.0007503009,-1.659243e-05,4,1
0.0006966573,1.002961e-07,4,1
0.0006128695,1.744129e-05,4,1
0.0005007202,2.538249e-05,4,1
0.0003817642,2.149292e-05,4,1
0.0002880904,9.500085e-06,4,1
0.0002513016,-2.006553e-06,4,1
0.0002816078,-8.489166e-06,4,1
0.0003522683,-7.840905e-06,4,1
0.0004102877,-5.734056e-06,4,1
0.0004047775,-1.237873e-05,4,1
0.0003114278,-3.960571e-05,4,1
0.0001373696,-9.049421e-05,4,1
-7.817725e-05,-0.0001507825,4,1
-0.0002899966,-0.0002005366,4,1
-0.0004643789,-0.0002282497,4,1
-0.0005869002,-0.0002371633,4,1
-0.000660802,-0.0002350565,4,1
-0.0006940254,-0.0002263049,4,1
-0.0006941874,-0.0002086398,4,1
-0.000675712,-0.0001836818,4,1
-0.0006514022,-0.0001499722,4,1
-0.0006296854,-0.0001042698,4,1
-0.0006165582,-4.738484e-05,4,1
-0.000616072,1.533444e-05,4,1
-0.0006266062,7.643307e-05,4,1
-0.0006420024,0.0001295905,4,1
-0.000640868,0.0001728619,4,1
-0.0006006758,0.0002036544,4,1
-0.0005076503,0.0002059233,4,1
-0.0003716775,0.0001576278,4,1
-0.0002186879,6.184718e-05,4,1
-8.336335e-05,-4.90055e-05,4,1
1.501031e-05,-0.0001305243,4,1
7.173317e-05,-0.0001522411,4,1
8.583286e-05,-0.0001177212,4,1
5.795762e-05,-5.59743e-05,4,1
-1.691656e-05,-4.761664e-06,4,1
-0.0001491618,2.149292e-05,4,1
-0.0003485022,2.781346e-05,4,1
-0.0005985689,3.105477e-05,4,1
-0.0008554424,4.645098e-05,4,1
-0.001067748,8.259155e-05,4,1
-0.001192862,0.000138342,4,1
-0.001201776,0.000207706,4,1
-0.001083954,0.0002804733,4,1
-0.0008611146,0.0003509718,4,1
-0.0005859278,0.0004143393,4,1
-0.000318358,0.0004709002,4,1
-9.697683e-05,0.0005211404,4,1
6.816773e-05,0.0005704083,4,1
0.0001947408,0.0006156246,4,1
0.0003091589,0.0006524134,4,1
0.0004362182,0.0006716992,4,1
0.0005828873,0.0006669993,4,1
0.0007363633,0.0006405826,4,1
0.0008746051,0.0005981215,4,1
0.0009818925,0.0005431813,4,1
0.00104915,0.0004793275,4,1
0.00106957,0.0004138531,4,1
0.001049312,0.0003546993,4,1
0.001009444,0.0003130485,4,1
0.0009861062,0.0002940868,4,1
0.001002637,0.000282256,4,1
0.001055308,0.0002501671,4,1
0.001107818,0.0001756171,4,1
0.001117379,5.698522e-05,4,1
0.00106017,-8.547019e-05,4,1
0.000933597,-0.0002225774,4,1
0.0007481941,-0.0003321336,4,1
0.0005230852,-0.0003997148,4,1
0.0002777182,-0.0004215936,4,1
4.110282e-05,-0.0004091146,4,1
-0.0001509446,-0.000380267,4,1
-0.0002726556,-0.0003509331,4,1
-0.0003284061,-0.0003266234,4,1
-0.0003420196,-0.0003062031,4,1
-0.0003434782,-0.000285945,4,1
-0.0003595226,-0.0002632558,4,1
-0.000402794,-0.0002382978,4,1
-0.0004617858,-0.0002097743,4,1
-0.0005185087,-0.0001809267,4,1
-0.0005481666,-0.0001525652,4,1
-0.0005233706,-0.0001251762,4,1
-0.0004282383,-0.000102325,4,1
-0.0002733039,-9.065628e-05,4,1
-9.66527e-05,-9.616651e-05,4,1
6.83298e-05,-0.0001131834,4,1
0.0002112714,-0.0001298761,4,1
0.0003299033,-0.0001363587,4,1
0.0004089912,-0.0001285796,4,1
0.000428277,-0.0001139937,4,1
0.0003796573,-0.0001018388,4,1
0.0002816078,-9.422172e-05,4,1
0.0001701068,-8.919769e-05,4,1
7.90261e-05,-8.628052e-05,4,1
2.505836e-05,-8.514606e-05,4,1
1.234753e-06,-8.222889e-05,4,1
-1.20546e-05,-7.947377e-05,4,1
-4.171256e-05,-7.65566e-05,4,1
-0.0001024871,-7.477388e-05,4,1
-0.0001900023,-7.623246e-05,4,1
-0.0002840002,-7.785312e-05,4,1
-0.0003601709,-7.801519e-05,4,1
-0.0004084663,-7.266703e-05,4,1
-0.0004353692,-5.856735e-05,4,1
-0.0004465517,-4.398147e-05,4,1
-0.0004476861,-4.673658e-05,4,1
-0.0004484965,-8.498399e-05,4,1
-0.0004567618,-0.0001609926,4,1
-0.0004689167,-0.0002601766,4,1
-0.0004786406,-0.0003509331,4,1
-0.0004741028,-0.000410087,4,1
-0.0004531963,-0.0004285624,4,1
-0.0004228902,-0.0004086284,4,1
-0.0003922598,-0.0003606571,4,1
-0.0003661673,-0.0002972895,4,1
-0.0003467195,-0.0002298704,4,1
-0.0003238683,-0.0001652063,4,1
-0.0002801106,-0.0001084835,4,1
-0.0001997262,-6.456377e-05,4,1
-8.482193e-05,-3.992984e-05,4,1
5.212327e-05,-3.733679e-05,4,1
0.0001914995,-5.32192e-05,4,1
0.0003088348,-7.882551e-05,4,1
0.0003840331,-9.989401e-05,4,1
0.0004114222,-9.746302e-05,4,1
0.0003931088,-6.06742e-05,4,1
0.0003396272,3.989864e-06,4,1
0.0002645909,7.448828e-05,4,1
0.0001817755,0.0001287802,4,1
9.993253e-05,0.0001595726,4,1
1.59827e-05,0.0001665414,4,1
-7.65566e-05,0.0001376938,4,1
-0.0001755785,6.071273e-05,4,1
-0.000271197,-5.516398e-05,4,1
-0.0003436402,-0.0001783336,4,1
-0.0003804291,-0.0002695764,4,1
-0.0003823738,-0.0002997205,4,1
-0.000360333,-0.0002617972,4,1
-0.0003222476,-0.000171851,4,1
-0.0002551526,-6.44017e-05,4,1
-0.0001339277,2.748934e-05,4,1
3.996837e-05,8.275361e-05,4,1
0.0002265056,0.0001015532,4,1
0.0003752816,0.0001030118,4,1
0.0004615004,0.000110953,4,1
0.0004947237,0.0001419075,4,1
0.0005157923,0.0001950649,4,1
0.0005653843,0.0002564877,4,1
0.0006608408,0.0002997591,4,1
0.0007830382,0.0003065659,4,1
0.0008864359,0.0002807975,4,1
0.0009217662,0.000242388,4,1
0.0008609917,0.0002140265,4,1
0.0007152948,0.00021273,4,1
0.000537347,0.0002415777,4,1
0.0003882468,0.0002916559,4,1
0.0003038107,0.0003534027,4,1
0.0002830664,0.0004217943,4,1
0.0003025142,0.0004969927,4,1
0.0003342791,0.0005702463,4,1
0.0003582647,0.0006326414,4,1
0.000359075,0.000686123,4,1
0.0003195311,0.0007332841,4,1
0.0002342847,0.0007721797,4,1
0.0001187321,0.0007861174,4,1
-5.734056e-06,0.0007517595,4,1
-0.000127121,0.0006561409,4,1
-0.0002426735,0.000507527,4,1
-0.0003488263,0.0003378445,4,1
-0.0004368278,0.0001859892,4,1
-0.0004995471,8.550872e-05,4,1
-0.000539091,5.050261e-05,4,1
-0.0005668041,7.157111e-05,4,1
-0.0005916001,0.0001206769,4,1
-0.0006147755,0.0001678379,4,1
-0.0006296854,0.0001991165,4,1
-0.0006291993,0.0002107852,4,1
-0.0006076446,0.000202844,4,1
-0.0005582146,0.0001783722,4,1
-0.0004786406,0.0001443384,4,1
-0.0003724878,0.0001041462,4,1
-0.0002498044,6.330578e-05,4,1
-0.0001258245,2.959619e-05,4,1
-2.210265e-05,3.989864e-06,4,1
4.693717e-05,-1.99958e-05,4,1
7.092284e-05,-4.657452e-05,4,1
4.77475e-05,-7.736692e-05,4,1
-1.075808e-05,-0.0001112386,4,1
-7.282909e-05,-0.0001462447,4,1
-0.0001020008,-0.0001818991,4,1
-7.688073e-05,-0.0002222533,4,1
-1.844488e-06,-0.0002684419,4,1
9.847395e-05,-0.0003175477,4,1
0.0001926339,-0.0003651949,4,1
0.0002529222,-0.0004045768,4,1
0.0002681563,-0.0004284004,4,1
0.0002456293,-0.0004343968,4,1
0.0002068957,-0.0004253211,4,1
0.0001696206,-0.0004107352,4,1
0.000135749,-0.000402794,4,1
9.733949e-05,-0.0004091146,4,1
4.596478e-05,-0.0004314796,4,1
-1.983374e-05,-0.0004593548,4,1
-9.746302e-05,-0.0004835025,4,1
-0.000181737,-0.0004984126,4,1
-0.0002596904,-0.0005016539,4,1
-0.0003160891,-0.0004904714,4,1
-0.0003386162,-0.0004651892,4,1
-0.000325651,-0.0004288866,4,1
-0.0002895104,-0.0003851289,4,1
-0.0002429977,-0.0003384541,4,1
-0.0001927574,-0.0002932379,4,1
-0.0001402483,-0.0002525595,4,1
-9.098041e-05,-0.0002254946,4,1
-5.030202e-05,-0.0002185258,4,1
-2.372331e-05,-0.0002237119,4,1
-1.351319e-05,-0.0002306807,4,1
-1.643037e-05,-0.0002284118,4,1
-2.194059e-05,-0.0002182017,4,1
-1.967167e-05,-0.0002104225,4,1
-8.720959e-07,-0.0002057227,4,1
3.753739e-05,-0.0001896782,4,1
9.247754e-05,-0.0001506204,4,1
0.0001589243,-9.211487e-05,4,1
0.0002307193,-3.944364e-05,4,1
0.0002997591,-1.383732e-05,4,1
0.0003553475,-1.578211e-05,4,1
0.0003872744,-3.166451e-05,4,1
0.0003884089,-3.895745e-05,4,1
0.000361506,-2.242678e-05,4,1
0.0003060797,1.387585e-05,4,1
0.0001979821,5.131294e-05,4,1
-1.520357e-06,7.351589e-05,4,1
-0.0003060411,7.886404e-05,4,1
-0.0006689052,7.448828e-05,4,1
-0.001011025,7.52986e-05,4,1
-0.001264981,9.31258e-05,4,1
-0.00139982,0.0001315353,4,1
-0.001414082,0.0001859892,4,1
-0.001319759,0.0002470879,4,1
-0.001126254,0.0003047831,4,1
-0.0008426392,0.0003555096,4,1
-0.0004891749,0.0004039671,4,1
-0.0001050801,0.0004597176,4,1
0.0002660495,0.0005230852,4,1
0.0005990939,0.0005950422,4,1
0.00089146,0.0006738061,4,1
0.001150927,0.0007501388,4,1
0.001372633,0.0008109135,4,1
0.001538588,0.000846892,4,1
0.001625779,0.0008540229,4,1
0.001617028,0.0008387887,4,1
0.001511847,0.0008165857,4,1
0.001335844,0.000797462,4,1
0.001130182,0.0007854691,4,1
0.0009347314,0.0007773659,4,1
0.0007780141,0.0007614834,4,1
0.0006734819,0.0007224257,4,1
0.0006120591,0.0006465791,4,1
0.0005631154,0.0005261644,4,1
0.0004955341,0.0003710679,4,1
0.0003940812,0.0002059233,4,1
0.0002632944,5.730935e-05,4,1
0.0001190562,-5.872941e-05,4,1
-2.356124e-05,-0.0001392759,4,1
-0.0001530514,-0.0001911368,4,1
-0.0002650386,-0.0002251705,4,1
-0.0003582261,-0.0002502906,4,1
-0.0004301831,-0.0002718453,4,1
-0.0004752372,-0.0002916173,4,1
-0.0004950092,-0.0003092824,4,1
-0.0004966299,-0.0003259751,4,1
-0.0004948471,-0.0003415334,4,1
-0.0004904714,-0.0003528779,4,1
-0.0004713477,-0.000353202,4,1
-0.0004212695,-0.0003407231,4,1
-0.0003253268,-0.0003173856,4,1
-0.0001784957,-0.0002906449,4,1
6.096713e-06,-0.0002705488,4,1
0.0001960373,-0.0002609869,4,1
0.0003475684,-0.0002609869,4,1
0.0004130428,-0.0002650386,4,1
0.0003699334,-0.0002716832,4,1
0.0002354192,-0.0002780038,4,1
5.56887e-05,-0.0002809209,4,1
-0.0001185315,-0.0002757348,4,1
-0.0002566112,-0.0002656868,4,1
-0.0003441264,-0.0002598524,4,1
-0.0003663294,-0.0002650386,4,1
-0.0003031239,-0.0002783279,4,1
-0.0001407345,-0.0002922655,4,1
9.037068e-05,-0.0002971275,4,1
0.000316938,-0.0002869174,4,1
0.0004697657,-0.0002619593,4,1
0.0005222749,-0.0002293842,4,1
0.0004882411,-0.0001971332,4,1
0.0003960259,-0.0001746061,4,1
0.0002709115,-0.0001658546,4,1
0.0001289422,-0.0001712027,4,1
-1.351319e-05,-0.0001870851,4,1
-0.0001378173,-0.0002032917,4,1
-0.0002311669,-0.0002151224,4,1
-0.0002843243,-0.0002227395,4,1
-0.0002979378,-0.0002209568,4,1
-0.0002758969,-0.0002068571,4,1
-0.0002310048,-0.0001820611,4,1
-0.0001828714,-0.0001514308,4,1
-0.0001421931,-0.0001214487,4,1
-0.0001091317,-0.0001011905,4,1
-8.417367e-05,-9.454585e-05,4,1
-6.423963e-05,-0.0001013526,4,1
-5.257093e-05,-0.000119666,4,1
-4.85193e-05,-0.0001418689,4,1
-5.095028e-05,-0.0001532135,4,1
-6.116039e-05,-0.0001417068,4,1
-8.093236e-05,-0.000104756,4,1
-0.0001039456,-4.770897e-05,4,1
-0.0001290658,1.760335e-05,4,1
-0.0001558065,8.161915e-05,4,1
-0.0001870851,0.0001365593,4,1
-0.0002196603,0.0001757791,4,1
-0.0002496423,0.0001981441,4,1
-0.0002715212,0.0002017096,4,1
-0.0002841623,0.0001926339,4,1
-0.0002946965,0.0001767515,4,1
-0.0003193304,0.000160545,4,1
-0.0003690845,0.0001480659,4,1
-0.000437314,0.000140773,4,1
-0.0005018159,0.000140773,4,1
-0.0005410357,0.0001503349,4,1
-0.0005371462,0.0001668655,4,1
-0.0004859335,0.0001835583,4,1
-0.0004040906,0.000192796,4,1
-0.0003104168,0.0001916615,4,1
-0.0002105846,0.0001799928,4,1
-0.0001086455,0.0001633001,4,1
-2.242678e-05,0.0001513072,4,1
2.246531e-05,0.0001440143,4,1
1.160693e-05,0.0001393144,4,1
-3.63644e-05,0.0001347766,4,1
-8.530812e-05,0.0001299146,4,1
-0.0001091317,0.0001248906,4,1
-0.0001131834,0.0001190562,4,1
-0.0001156143,0.0001107909,4,1
-0.0001290658,0.0001005808,4,1
-0.0001478653,9.037068e-05,4,1
-0.0001559686,7.740546e-05,4,1
-0.000134738,6.168512e-05,4,1
-7.979791e-05,4.807163e-05,4,1
-3.465141e-06,3.721326e-05,4,1
7.221937e-05,2.81376e-05,4,1
0.0001289422,2.165498e-05,4,1
0.0001534141,2.165498e-05,4,1
0.0001386662,2.878586e-05,4,1
9.571884e-05,4.223728e-05,4,1
4.304761e-05,6.735741e-05,4,1
1.558884e-06,0.0001049566,4,1
-1.594417e-05,0.000145635,4,1
-8.327101e-06,0.0001529279,4,1
1.938607e-05,8.84259e-05,4,1
5.260946e-05,-5.548811e-05,4,1
7.108491e-05,-0.000241377,4,1
6.476436e-05,-0.0004094387,4,1
3.445814e-05,-0.0005055434,4,1
-1.594417e-05,-0.0005117019,4,1
-7.833932e-05,-0.0004525481,4,1
-0.0001384655,-0.0003702189,4,1
-0.000179306,-0.0002998826,4,1
-0.0002058847,-0.0002559629,4,1
-0.0002384598,-0.0002350565,4,1
-0.0002930758,-0.0002229016,4,1
-0.0003634122,-0.0002063709,4,1
-0.0004339106,-0.0001759026,4,1
-0.0004912817,-0.0001298761,4,1
-0.0005269361,-7.056019e-05,4,1
-0.0005356876,4.962256e-06,4,1
-0.0005147812,9.620504e-05,4,1
-0.000457248,0.0001944166,4,1
-0.0003468815,0.0002911697,4,1
-0.0001724993,0.0003807918,4,1
5.682316e-05,0.0004577728,4,1
0.0003162898,0.0005177371,4,1
0.0005752703,0.0005653843,4,1
0.000804755,0.0005987698,4,1
0.00097071,0.0006091419,4,1
0.001049798,0.0005867769,4,1
0.001049798,0.0005342677,4,1
0.001010092,0.000467983,4,1
0.0009805959,0.0004059119,4,1
0.0009899958,0.0003572923,4,1
0.001032943,0.0003269861,4,1
0.001081725,0.0003124002,4,1
0.001107169,0.0002958695,4,1
0.001093394,0.0002589186,4,1
0.001054984,0.000192796,4,1
0.001025812,0.0001093323,4,1
0.001017223,3.510641e-05,4,1
0.001005716,-6.220252e-06,4,1
0.0009525587,-1.010982e-05,4,1
0.0008314957,1.468618e-05,4,1
0.0006399344,4.839576e-05,4,1
0.0004004017,6.800567e-05,4,1
0.0001626518,6.184718e-05,4,1
-1.659243e-05,3.640293e-05,4,1
-0.0001044318,5.772582e-06,4,1
-0.0001177212,-1.578211e-05,4,1
-0.0001037836,-1.918548e-05,4,1
-0.000112373,-4.923729e-06,4,1
-0.0001783336,2.457216e-05,4,1
-0.0003045825,5.633696e-05,4,1
-0.0004643789,8.194328e-05,4,1
-0.0006133168,9.733949e-05,4,1
-0.0007084492,0.0001047945,4,1
-0.0007254661,0.0001083599,4,1
-0.0006679329,0.0001114392,4,1
-0.0005632387,0.0001166253,4,1
-0.0004400691,0.0001214872,4,1
-0.0003204649,0.0001265113,4,1
-0.0002144742,0.000138342,4,1
-0.0001266348,0.000165569,4,1
-5.467778e-05,0.0002109473,4,1
7.879432e-06,0.0002663737,4,1
6.41161e-05,0.0003128864,4,1
0.0001145184,0.0003239069,4,1
0.0001574657,0.0002830664,4,1
0.0001851789,0.000195227,4,1
0.0001859892,8.323981e-05,4,1
0.0001598967,-2.809907e-05,4,1
0.0001150046,-0.000119666,4,1
6.476436e-05,-0.0001919471,4,1
1.9224e-05,-0.0002574215,4,1
-1.156841e-05,-0.000328082,4,1
-1.869928e-05,-0.0004053871,4,1
-1.844488e-06,-0.0004775062,4,1
2.34377e-05,-0.0005303394,4,1
2.522042e-05,-0.0005635628,4,1
-2.809907e-05,-0.0005922483,4,1
-0.0001478653,-0.0006257959,4,1
-0.0003146305,-0.0006554538,4,1
-0.000489661,-0.0006705259,4,1
-0.0006334129,-0.0006637191,4,1
-0.0007126629,-0.0006329267,4,1
-0.0007167145,-0.0005822003,4,1
-0.0006650157,-0.0005228845,4,1
-0.0006009999,-0.0004656754,4,1
-0.0005598353,-0.0004149489,4,1
-0.0005536768,-0.0003687603,4,1
-0.0005621043,-0.0003191683,4,1
-0.0005431426,-0.0002575835,4,1
-0.0004564377,-0.0001818991,4,1
-0.0002797865,-0.0001000561,4,1
-2.550602e-05,-1.124428e-05,4,1
0.000252274,8.631905e-05,4,1
0.0004885653,0.0001898788,4,1
0.0006449584,0.0002874421,4,1
0.0007235601,0.0003683128,4,1
0.00074317,0.000423415,4,1
0.0007222636,0.0004499937,4,1
0.0006681338,0.0004503179,4,1
0.0005804563,0.0004268184,4,1
0.000462959,0.0003806297,4,1
0.000331686,0.0003120761,4,1
0.0001997648,0.0002239125,4,1
7.011252e-05,0.000123432,4,1
-5.986387e-05,2.003433e-05,4,1
-0.0001925954,-8.07703e-05,4,1
-0.0003292164,-0.0001671511,4,1
-0.0004716718,-0.0002347323,4,1
-0.0006193133,-0.0002882139,4,1
-0.0007671168,-0.0003441264,4,1
-0.0008945001,-0.0004141386,4,1
-0.0009682399,-0.0004917679,4,1
-0.0009567332,-0.0005549733,4,1
-0.0008389117,-0.0005877105,4,1
-0.0006126686,-0.0005846313,4,1
-0.0003091203,-0.0005527044,4,1
2.855407e-06,-0.0005016539,4,1
0.0002428742,-0.000439907,4,1
0.0003655576,-0.0003713534,4,1
0.0003762539,-0.0002956689,4,1
0.0003166139,-0.0002144742,4,1
0.0002396328,-0.0001342519,4,1
0.0001898788,-6.39155e-05,4,1
0.0001926339,-7.516774e-06,4,1
0.0002373639,4.320967e-05,4,1
0.0002947351,0.0001030118,4,1
0.0003456236,0.0001811273,4,1
0.0003801436,0.0002809595,4,1
0.000383871,0.0003991052,4,1
0.0003287688,0.0005245438,4,1
0.0001859892,0.0006376655,4,1
-5.662256e-05,0.0007242084,4,1
-0.0003634122,0.0007862795,4,1
-0.0006619364,0.0008285785,4,1
-0.0008706765,0.0008498091,4,1
-0.0009285338,0.0008391128,4,1
-0.0008223811,0.0007832003,4,1
-0.0005805797,0.0006874196,4,1
-0.000261149,0.0005812666,4,1
6.654708e-05,0.000507527,4,1
0.0003501615,0.0004947237,4,1
0.0005644119,0.0005415607,4,1
0.0007003848,0.0006154625,4,1
0.0007558112,0.0006716992,4,1
0.0007376599,0.0006742922,4,1
0.000666189,0.0006104385,4,1
0.0005777013,0.0004884033,4,1
0.0005097958,0.0003337929,4,1
0.0004947237,0.000175455,4,1
0.0005428572,3.899597e-05,4,1
0.0006251864,-6.229485e-05,4,1
0.0006930918,-0.0001263107,4,1
0.0006997365,-0.000159534,4,1
0.0006180556,-0.0001712027,4,1
0.0004568005,-0.0001728234,4,1
0.0002600531,-0.000171851,4,1
7.076078e-05,-0.0001724993,4,1
-8.725291e-05,-0.0001783336,4,1
-0.0002099363,-0.0001909747,4,1
-0.0003052308,-0.0002100984,4,1
-0.0003804291,-0.0002326255,4,1
-0.0004303451,-0.0002541802,4,1
-0.0004386105,-0.0002728177,4,1
-0.000400201,-0.0002877277,4,1
-0.0003334301,-0.0002979378,4,1
-0.0002664971,-0.0003027998,4,1
-0.0002246843,-0.0002993964,4,1
-0.0002107467,-0.0002870794,4,1
-0.0002147983,-0.0002702246,4,1
-0.0002250084,-0.0002541802,4,1
-0.0002300324,-0.0002426735,4,1
-0.0002250084,-0.0002324634,4,1
-0.0002076674,-0.0002186879,4,1
-0.0001836818,-0.0001951884,4,1
-0.0001622891,-0.0001626133,4,1
-0.0001524032,-0.0001417068,4,1
-0.0001553203,-0.0001572651,4,1
-0.0001639098,-0.0002118811,4,1
-0.0001721751,-0.0002804347,4,1
-0.000181737,-0.0003274337,4,1
-0.0001972953,-0.0003344025,4,1
-0.0002173914,-0.0003081479,4,1
-0.0002280877,-0.0002684419,4,1
-0.0002117191,-0.0002297083,4,1
-0.0001626133,-0.0002028055,4,1
-9.017008e-05,-0.0001890299,4,1
-1.821308e-05,-0.0001887058,4,1
3.170304e-05,-0.0001932436,4,1
5.439218e-05,-0.0001875713,4,1
5.585077e-05,-0.0001579134,4,1
4.158902e-05,-0.0001032974,4,1
1.484824e-05,-2.809907e-05,4,1
-2.113026e-05,5.61749e-05,4,1
-5.386745e-05,0.0001394765,4,1
-6.359137e-05,0.0002132162,4,1
-3.506788e-05,0.000272208,4,1
2.554455e-05,0.0003149933,4,1
9.26396e-05,0.0003459477,4,1
0.0001362352,0.0003707437,4,1
0.0001401247,0.0003905157,4,1
0.0001049566,0.0004089912,4,1
4.35338e-05,0.0004248736,4,1
-1.869928e-05,0.0004342734,4,1
-4.916756e-05,0.0004362182,4,1
-2.631635e-05,0.0004305459,4,1
5.423012e-05,0.0004190393,4,1
0.0001654069,0.000411098,4,1
0.0002654013,0.0004188772,4,1
0.0003127243,0.0004420525,4,1
0.0002913317,0.0004608521,4,1
0.0002146748,0.0004459421,4,1
0.0001188942,0.0003841952,4,1
4.110282e-05,0.0002884145,4,1
3.017472e-06,0.0001895547,4,1
5.448452e-06,0.0001117633,4,1
3.218923e-05,6.541262e-05,4,1
6.103686e-05,4.661304e-05,4,1
7.140904e-05,4.337174e-05,4,1
5.633696e-05,4.677511e-05,4,1
2.278944e-05,4.969229e-05,4,1
-1.432352e-05,4.661304e-05,4,1
-4.187462e-05,3.413401e-05,4,1
-5.678463e-05,1.12828e-05,4,1
-6.294311e-05,-2.031993e-05,4,1
-6.715681e-05,-5.354332e-05,4,1
-7.817725e-05,-7.866345e-05,4,1
-9.486997e-05,-9.389759e-05,4,1
-0.0001135075,-0.0001016767,4,1
-0.000137007,-0.0001039456,4,1
-0.0001752544,-0.000104756,4,1
-0.0002391081,-0.0001060525,4,1
-0.0003327818,-0.0001118868,4,1
-0.0004408794,-0.0001232314,4,1
-0.0005222362,-0.0001438137,4,1
-0.0005340669,-0.0001778474,4,1
-0.0004557894,-0.0002250084,4,1
-0.0003055549,-0.0002747625,4,1
-0.0001337657,-0.000310741,4,1
1.160693e-05,-0.0003198166,4,1
0.0001078737,-0.0003099306,4,1
0.0001573037,-0.0003146305,4,1
0.000170593,-0.0003617915,4,1
0.0001470936,-0.0004489826,4,1
9.26396e-05,-0.0005478425,4,1
2.570662e-05,-0.000621258,4,1
-2.7937e-05,-0.0006442713,4,1
-4.592625e-05,-0.0006133168,4,1
-9.623623e-06,-0.000546708,4,1
8.972242e-05,-0.0004687546,4,1
0.0002433604,-0.0004016596,4,1
0.0004247115,-0.000365357,4,1
0.0005984457,-0.0003724878,4,1
0.0007349047,-0.0004170558,4,1
0.0008217718,-0.000469727,4,1
0.0008695811,-0.0004958195,4,1
0.000896322,-0.0004762096,4,1
0.0009141492,-0.0004039285,4,1
0.000916256,-0.0002877277,4,1
0.000896322,-0.000149486,4,1
0.0008577504,-9.461558e-06,4,1
0.0008041067,0.0001190562,4,1
0.0007374978,0.0002261814,4,1
0.0006548444,0.0003075383,4,1
0.000542209,0.0003702575,4,1
0.0003919743,0.0004263322,4,1
0.0002093267,0.000483055,4,1
2.603075e-05,0.0005430193,4,1
-0.000112373,0.0006005525,4,1
-0.0001720131,0.00064901,4,1
-0.0001558065,0.0006879058,4,1
-9.049421e-05,0.0007203188,4,1
7.485573e-07,0.0007532181,4,1
0.0001090082,0.0007822278,4,1
0.0002354192,0.0007870898,4,1
0.0003733368,0.00074787,4,1
0.0005015305,0.0006648925,4,1
0.0005854804,0.0005577672,4,1
0.000599418,0.0004579349,4,1
0.0005412365,0.0003882468,4,1
0.000438325,0.0003558337,4,1
0.0003360618,0.0003556717,4,1
0.0002738286,0.000373823,4,1
0.0002720459,0.0003908399,4,1
0.0003166139,0.0003994293,4,1
0.0003679886,0.0003994293,4,1
0.0003934329,0.0003919743,4,1
0.0003734989,0.0003725265,4,1
0.0003015418,0.0003373583,4,1
0.00018291,0.0002838767,4,1
3.899597e-05,0.0002143507,4,1
-0.0001002181,0.0001342904,4,1
-0.0002157707,5.487838e-05,4,1
-0.0003050687,-1.464765e-05,4,1
-0.0003843186,-7.542214e-05,4,1
-0.0004763717,-0.0001242038,4,1
-0.0005964621,-0.0001590478,4,1
-0.0007366485,-0.000179306,4,1
-0.0008685697,-0.0001874093,4,1
-0.0009614331,-0.0001874093,4,1
-0.0009962771,-0.0001810887,4,1
-0.000976019,-0.0001737958,4,1
-0.0009269132,-0.0001695821,4,1
-0.0009017931,-0.0001705545,4,1
-0.0009497644,-0.0001760647,4,1
-0.001073096,-0.0001836818,4,1
-0.001223493,-0.0001864369,4,1
-0.001334994,-0.0001796301,4,1
-0.001363031,-0.0001639098,4,1
-0.001307929,-0.0001417068,4,1
-0.001203883,-0.0001161005,4,1
-0.001099837,-9.098041e-05,4,1
-0.001034687,-7.704279e-05,4,1
-0.001023828,-8.07703e-05,4,1
-0.001052514,-0.0001016767,4,1
-0.001082982,-0.0001391138,4,1
-0.001072124,-0.0001900023,4,1
-0.00099336,-0.0002486699,4,1
-0.0008389117,-0.0003050687,4,1
-0.0006253097,-0.0003509331,4,1
-0.0003775118,-0.0003789705,4,1
-0.0001212866,-0.000387722,4,1
0.0001198666,-0.0003718396,4,1
0.0003208276,-0.0003305129,4,1
0.000465552,-0.0002700626,4,1
0.0005491778,-0.0002057227,4,1
0.0005819149,-0.0001553203,4,1
0.0005838597,-0.0001324691,4,1
0.0005780254,-0.0001384655,4,1
0.0005879114,-0.0001715269,4,1
0.000616597,-0.0002232257,4,1
0.0006520892,-0.0002833519,4,1
0.0006806127,-0.0003418575,4,1
0.0007000606,-0.0003901529,4,1
0.0007144845,-0.0004222419,4,1
0.0007242084,-0.0004327761,4,1
0.0007319876,-0.0004198109,4,1
0.0007412253,-0.0003856151,4,1
0.000753056,-0.0003410472,4,1
0.0007687764,-0.0002993964,4,1
0.0007780141,-0.0002728177,4,1
0.0007533802,-0.0002664971,4,1
0.0006642442,-0.0002723315,4,1
0.0005039615,-0.0002746004,4,1
0.0003004074,-0.0002566112,4,1
0.0001088461,-0.0002128535,4,1
-1.707863e-05,-0.0001462447,4,1
-5.500191e-05,-6.44017e-05,4,1
-1.707863e-05,2.522042e-05,4,1
6.962632e-05,0.0001177597,4,1
0.0001806411,0.0002055991,4,1
0.0002940868,0.0002832284,4,1
0.0003924605,0.000346596,4,1
0.0004637693,0.0003976466,4,1
0.0005083373,0.0004418904,4,1
0.0005431813,0.0004838654,4,1
0.0006034696,0.0005260024,4,1
0.0007071915,0.0005661946,4,1
0.0008308475,0.0005999042,4,1
0.0009225765,0.0006190279,4,1
0.000943645,0.0006162729,4,1
0.0008958358,0.0005898562,4,1
0.0008143168,0.0005439916,4,1
0.0007339324,0.0004825689,4,1
0.000666189,0.0004132049,4,1
0.0005995801,0.0003428685,4,1
0.0005159543,0.0002733424,4,1
0.0004067223,0.0002034923,4,1
0.0002723701,0.0001203528,4,1
0.0001232699,1.193106e-05,4,1
-3.166451e-05,-0.000117235,4,1
-0.0001903264,-0.0002420253,4,1
-0.0003446126,-0.0003386162,4,1
-0.0004758855,-0.0003950149,4,1
-0.000576528,-0.0004097628,4,1
-0.0006491333,-0.0003904771,4,1
-0.0007037492,-0.000353202,4,1
-0.0007492896,-0.0003120375,4,1
-0.0007940196,-0.0002758969,4,1
-0.0008372911,-0.0002417012,4,1
-0.0008616009,-0.0002052365,4,1
-0.0008408565,-0.0001656925,4,1
-0.0007616066,-0.0001217728,4,1
-0.0006475127,-7.639453e-05,4,1
-0.0005538389,-3.409549e-05,4,1
-0.0005251534,4.638125e-06,4,1
-0.0005646973,4.061663e-05,4,1
-0.000643299,7.20573e-05,4,1
-0.00072028,0.0001002567,4,1
-0.0007643617,0.0001286181,4,1
-0.0007701961,0.0001568175,4,1
-0.0007441035,0.0001830721,4,1
-0.000700508,0.00021273,4,1
-0.0006505919,0.0002527602,4,1
-0.0005972724,0.0003077003,4,1
-0.0005405495,0.0003762539,4,1
-0.0004778303,0.0004504799,4,1
-0.0004044147,0.0005182233,4,1
-0.0003235441,0.0005676532,4,1
-0.0002421874,0.0005986077,4,1
-0.0001746061,0.0006180556,4,1
-0.0001300382,0.0006326414,4,1
-0.000107349,0.0006329655,4,1
-9.66527e-05,0.0006026593,4,1
-9.584238e-05,0.0005337815,4,1
-0.0001041077,0.0004354078,4,1
-0.0001188556,0.0003232586,4,1
-0.0001349001,0.0002164575,4,1
-0.0001468929,0.0001252147,4,1
-0.0001553203,3.073064e-05,4,1
-0.0001583996,-9.357346e-05,4,1
-0.0001449482,-0.0002520733,4,1
-0.0001078352,-0.000420135,4,1
-5.176061e-05,-0.0005606457,4,1
5.610517e-06,-0.0006501057,4,1
6.03886e-05,-0.0006873807,4,1
0.0001297526,-0.0006877048,4,1
0.0002359054,-0.000663395,4,1
0.0003770643,-0.0006147755,4,1
0.0005141716,-0.0005384427,4,1
0.000591801,-0.0004358554,4,1
0.0005872631,-0.0003186821,4,1
0.0005180612,-0.000204102,4,1
0.0004170944,-0.000104756,4,1
0.0002968419,-2.696461e-05,4,1
0.0001582761,2.732727e-05,4,1
1.274139e-05,5.439218e-05,4,1
-0.0001146419,5.341979e-05,4,1
-0.0001935677,3.445814e-05,4,1
-0.0002003745,1.954813e-05,4,1
-0.000127283,2.635488e-05,4,1
1.014835e-05,6.055066e-05,4,1
0.0001845306,0.0001190562,4,1
0.0003613439,0.0001934442,4,1
0.0005078511,0.000274639,4,1
0.0006078454,0.0003534027,4,1
0.0006725095,0.0004170944,4,1
0.0007212912,0.0004589073,4,1
0.0007611593,0.000482893,4,1
0.0007830382,0.000500234,4,1
0.0007804451,0.000514982,4,1
0.0007537043,0.0005169268,4,1
0.0007041123,0.0004814344,4,1
0.0006355586,0.0003913261,4,1
0.0005655463,0.0002535705,4,1
0.0005086614,0.0001020394,4,1
0.0004592314,-2.631635e-05,4,1
0.0003963501,-0.0001052422,4,1
0.000302028,-0.0001285796,4,1
0.0001752929,-0.0001075111,4,1
3.18651e-05,-6.310517e-05,4,1
-9.519411e-05,-1.318906e-05,4,1
-0.0001749302,3.170304e-05,4,1
-0.0001974573,6.265751e-05,4,1
-0.0001830335,8.080883e-05,4,1
-0.0001663408,8.956036e-05,4,1
-0.000166827,9.134307e-05,4,1
-0.0001809267,8.615699e-05,4,1
-0.0001914609,7.497447e-05,4,1
-0.0001864369,5.730935e-05,4,1
-0.0001677994,3.591673e-05,4,1
-0.0001460826,1.403791e-05,4,1
-0.0001250141,-7.354709e-06,4,1
-9.632857e-05,-3.150244e-05,4,1
-4.252288e-05,-6.197072e-05,4,1
5.1475e-05,-0.0001000561,4,1
0.0001769136,-0.0001455964,4,1
0.0002957075,-0.0001956746,4,1
0.000371392,-0.0002429977,4,1
0.0003945674,-0.0002796244,4,1
0.0003835469,-0.0002992343,4,1
0.0003759298,-0.000300855,4,1
0.0003827366,-0.0002880518,4,1
0.0003953777,-0.0002679557,4,1
0.0003948915,-0.000253694,4,1
0.0003683128,-0.0002577456,4,1
0.0003091589,-0.0002814071,4,1
0.0002125679,-0.0003178718,4,1
8.161915e-05,-0.0003591985,4,1
-6.81292e-05,-0.0003966356,4,1
-0.0002172293,-0.0004228902,4,1
-0.0003496366,-0.0004360174,4,1
-0.0004625961,-0.0004382863,4,1
-0.0005608077,-0.0004332623,4,1
-0.0006479988,-0.0004254832,4,1
-0.0007193076,-0.0004138145,4,1
-0.00076501,-0.0003929081,4,1
-0.0007821888,-0.0003567675,4,1
-0.0007687375,-0.0003055549,4,1
-0.0007293556,-0.0002421874,4,1
-0.0006747396,-0.0001749302,4,1
-0.000613641,-0.0001110765,4,1
-0.0005426564,-5.872941e-05,4,1
-0.0004514136,-2.599222e-05,4,1
-0.0003238683,-1.20546e-05,4,1
-0.0001530514,-4.923729e-06,4,1
5.56887e-05,4.151929e-06,4,1
0.0002835526,1.59827e-05,4,1
0.0004931031,2.197911e-05,4,1
0.0006462549,2.116879e-05,4,1
0.0007209671,1.64689e-05,4,1
0.0007217774,1.387585e-05,4,1
0.0006783439,2.619281e-05,4,1
0.0006306967,6.557468e-05,4,1
0.0005999042,0.0001394765,4,1
0.0005781874,0.0002478982,4,1
0.0005485295,0.0003694472,4,1
0.0005097958,0.0004736553,4,1
0.000485324,0.0005371849,4,1
0.0004900239,0.0005554983,4,1
0.0005073649,0.000534916,4,1
0.0005007202,0.0004893756,4,1
0.0004396215,0.0004344354,4,1
0.0003183966,0.0003790091,4,1
0.0001526038,0.000326824,4,1
-2.518189e-05,0.0002843629,4,1
-0.0001828714,0.0002519498,4,1
-0.0002990722,0.000222616,4,1
-0.0003642225,0.000187772,4,1
-0.0003890185,0.0001409351,4,1
-0.0003935563,8.729144e-05,4,1
-0.0003958252,3.834771e-05,4,1
-0.0004083043,1.720949e-06,4,1
-0.000432452,-2.258885e-05,4,1
-0.0004635685,-3.506788e-05,4,1
-0.0004903093,-3.766092e-05,4,1
-0.0005014918,-3.198864e-05,4,1
-0.0004912817,-2.258885e-05,4,1
-0.0004643789,-1.659243e-05,4,1
-0.0004305072,-2.064406e-05,4,1
-0.000405063,-3.166451e-05,4,1
-0.0003966356,-3.701266e-05,4,1
-0.0003959873,-2.858527e-05,4,1
-0.0003935563,-1.108221e-05,4,1
-0.0003831841,1.072688e-06,4,1
-0.0003684362,-2.330684e-06,4,1
-0.0003551469,-1.643037e-05,4,1
-0.0003416954,-3.085418e-05,4,1
-0.0003215994,-3.652646e-05,4,1
-0.0002951827,-3.26369e-05,4,1
-0.0002663351,-2.291298e-05,4,1
-0.0002329496,-1.318906e-05,4,1
-0.0001901644,-5.409925e-06,4,1
-0.0001387897,4.638125e-06,4,1
-8.109443e-05,1.663096e-05,4,1
-1.610624e-05,2.554455e-05,4,1
7.027458e-05,2.052053e-05,4,1
0.0001827479,-2.81688e-06,4,1
0.0003052694,-4.074016e-05,4,1
0.0004026706,-8.271508e-05,4,1
0.0004469145,-0.0001227452,4,1
0.0004239012,-0.00015451,4,1
0.000336548,-0.0001707166,4,1
0.0002049509,-0.0001663408,4,1
6.41161e-05,-0.0001413827,4,1
-5.062615e-05,-9.924574e-05,4,1
-0.0001164247,-4.576419e-05,4,1
-0.0001342519,1.387585e-05,4,1
-0.0001190177,7.870197e-05,4,1
-9.357346e-05,0.0001428799,4,1
-7.55842e-05,0.0002005751,4,1
-7.104638e-05,0.0002491947,4,1
-6.81292e-05,0.0002859836,4,1
-4.932962e-05,0.0003055935,4,1
-2.654814e-06,0.0002999212,4,1
6.508849e-05,0.0002641047,4,1
0.0001347766,0.0001996027,4,1
0.0001866375,0.0001172735,4,1
0.000210299,2.700314e-05,4,1
0.0001992786,-6.310517e-05,4,1
0.0001568175,-0.0001436516,4,1
9.377406e-05,-0.0002045882,4,1
2.586868e-05,-0.0002415391,4,1
-3.587821e-05,-0.0002551526,4,1
-8.952183e-05,-0.0002467252,4,1
-0.0001311726,-0.0002177155,4,1
-0.0001558065,-0.0001708786,4,1
-0.0001603444,-0.0001199901,4,1
-0.0001486757,-7.671866e-05,4,1
-0.0001229073,-4.657452e-05,4,1
-8.141856e-05,-3.117831e-05,4,1
-2.907146e-05,-2.907146e-05,4,1
2.052053e-05,-3.409549e-05,4,1
6.006447e-05,-3.879538e-05,4,1
9.588091e-05,-3.960571e-05,4,1
0.0001406109,-3.668853e-05,4,1
0.0001986303,-2.923353e-05,4,1
0.0002637806,-6.220252e-06,4,1
0.0003250413,4.547859e-05,4,1
0.0003801436,0.0001248906,4,1
0.0004281149,0.0002025199,4,1
0.0004739794,0.0002470879,4,1
0.0005271368,0.0002589186,4,1
0.0005979594,0.0002649151,4,1
0.0006770474,0.000297004,4,1
0.000740415,0.0003670162,4,1
0.0007587284,0.0004619866,4,1
0.0007146465,0.000552419,4,1
0.0006104385,0.0006110868,4,1
0.0004634451,0.0006276174,4,1
0.0003010556,0.0006039558,4,1
0.0001577899,0.0005475571,4,1
6.298164e-05,0.0004676588,4,1
1.97102e-05,0.0003734989,4,1
-4.275467e-06,0.0002658874,4,1
-5.386745e-05,0.0001462832,4,1
-0.0001603444,1.533444e-05,4,1
-0.0003241924,-0.0001107524,4,1
-0.0005225603,-0.0002104225,4,1
-0.0007209282,-0.0002621213,4,1
-0.0008834797,-0.0002554767,4,1
-0.000986067,-0.000199078,4,1
-0.001017184,-0.0001156143,4,1
-0.000978612,-2.194059e-05,4,1
-0.0008862348,6.881599e-05,4,1
-0.0007671168,0.0001480659,4,1
-0.0006496195,0.0002111094,4,1
-0.0005502735,0.0002519498,4,1
-0.0004651892,0.0002679943,4,1
-0.0003810773,0.0002619979,4,1
-0.0002805968,0.0002513016,4,1
-0.0001515928,0.0002501671,4,1
3.989864e-06,0.0002519498,4,1
0.000177886,0.0002308813,4,1
0.000356482,0.0001663793,4,1
0.0005285954,5.893001e-05,4,1
0.0006932539,-7.056019e-05,4,1
0.0008481885,-0.0001906506,4,1
0.0009914545,-0.000278652,4,1
0.001120459,-0.0003269475,4,1
0.001229853,-0.0003467195,4,1
0.001299865,-0.0003559572,4,1
0.001313479,-0.0003666535,4,1
0.001265507,-0.0003812394,4,1
0.001152223,-0.0003942046,4,1
0.0009716824,-0.0003987424,4,1
0.0007386322,-0.0003925839,4,1
0.0004760863,-0.0003801049,4,1
0.0002070577,-0.000367788,4,1
-4.462973e-05,-0.0003617915,4,1
-0.0002507768,-0.0003635742,4,1
-0.0003818876,-0.0003745947,4,1
-0.0004245108,-0.0003875599,4,1
-0.0003980942,-0.0003958252,4,1
-0.0003400748,-0.0003963114,4,1
-0.0002864312,-0.0003890185,4,1
-0.0002627696,-0.0003724878,4,1
-0.0002888622,-0.0003426678,4,1
-0.0003710293,-0.0002990722,4,1
-0.0004805854,-0.0002428356,4,1
-0.000568911,-0.0001830335,4,1
-0.0005961379,-0.0001308485,4,1
-0.0005580526,-9.29252e-05,4,1
-0.0004839888,-7.347736e-05,4,1
-0.0004177041,-6.942573e-05,4,1
-0.000390315,-7.380149e-05,4,1
-0.0004160834,-7.882551e-05,4,1
-0.000484475,-7.704279e-05,4,1
-0.0005629146,-6.342931e-05,4,1
-0.0006105618,-4.187462e-05,4,1
-0.0006009999,-1.67545e-05,4,1
-0.0005408737,2.369211e-06,4,1
-0.0004582204,6.258778e-06,4,1
-0.0003775118,-1.520357e-06,4,1
-0.0003201407,-1.034161e-06,4,1
-0.0002956689,2.133085e-05,4,1
-0.0002987481,6.492643e-05,4,1
-0.0003079858,0.0001171115,4,1
-0.0003023136,0.0001642725,4,1
-0.0002724935,0.0001966855,4,1
-0.0002172293,0.0002085163,4,1
-0.0001352242,0.0001981441,4,1
-2.907146e-05,0.0001701068,4,1
8.486046e-05,0.0001305629,4,1
0.0001889064,8.826383e-05,4,1
0.0002739907,5.212327e-05,4,1
0.0003524304,2.684107e-05,4,1
0.000443349,1.436204e-05,4,1
0.0005545259,1.274139e-05,4,1
0.0006752646,1.841368e-05,4,1
0.0007833623,3.040651e-05,4,1
0.0008564538,4.969229e-05,4,1
0.0008757396,7.52986e-05,4,1
0.0008206373,9.490851e-05,4,1
0.0006895264,9.426025e-05,4,1
0.0005072028,7.351589e-05,4,1
0.000316776,5.001642e-05,4,1
0.0001574657,4.953022e-05,4,1
5.341979e-05,8.372601e-05,4,1
9.66215e-06,0.0001451488,4,1
1.54965e-05,0.0002154851,4,1
4.904402e-05,0.0002816078,4,1
9.31258e-05,0.0003378445,4,1
0.0001409351,0.0003877606,4,1
0.0001867996,0.0004360561,4,1
0.0002133783,0.0004783552,4,1
0.0001918236,0.0005059062,4,1
0.0001067393,0.0005102821,4,1
-2.0482e-05,0.0004861343,4,1
-0.0001425172,0.0004388112,4,1
-0.0002156086,0.0003730126,4,1
-0.0002293842,0.0002986247,4,1
-0.0001998883,0.000227478,4,1
-0.000159372,0.000170431,4,1
-0.0001408965,0.0001305629,4,1
-0.000161965,0.000101067,4,1
-0.0002201465,7.400208e-05,4,1
-0.0003000446,4.677511e-05,4,1
-0.0003825359,2.052053e-05,4,1
-0.0004553032,-2.81688e-06,4,1
-0.0005141329,-2.907146e-05,4,1
-0.0005616181,-5.743289e-05,4,1
-0.0005972724,-8.336335e-05,4,1
-0.0006095894,-0.0001032974,4,1
-0.000588845,-0.000127283,4,1
-0.0005313118,-0.0001666649,4,1
-0.000444931,-0.0002162569,4,1
-0.0003483401,-0.0002663351,4,1
-0.0002639041,-0.0003115513,4,1
-0.0002028055,-0.0003486642,4,1
-0.0001689338,-0.0003791325,4,1
-0.0001635857,-0.0004060354,4,1
-0.0001812508,-0.000424997,4,1
-0.0002131776,-0.0004339106,4,1
-0.0002478596,-0.0004326141,4,1
-0.0002746004,-0.0004215936,4,1
-0.0002828657,-0.0003974459,4,1
-0.0002643903,-0.0003621157,4,1
-0.0002120432,-0.0003211132,4,1
-0.0001267968,-0.0002791382,4,1
-1.967167e-05,-0.0002374874,4,1
8.486046e-05,-0.000191623,4,1
0.0001628139,-0.0001433275,4,1
0.0001984683,-9.827335e-05,4,1
0.0001963614,-6.06742e-05,4,1
0.0001731861,-3.166451e-05,4,1
0.000145635,-5.89612e-06,4,1
0.0001265113,2.149292e-05,4,1
0.0001279698,5.649903e-05,4,1
0.0001516314,9.960841e-05,4,1
0.0001932822,0.0001504969,4,1
0.0002417397,0.000210299,4,1
0.0002769079,0.0002726942,4,1
0.0002756114,0.0003237448,4,1
0.0002237505,0.0003529166,4,1
0.0001362352,0.0003637749,4,1
4.337174e-05,0.0003715541,4,1
-2.858527e-05,0.0003841952,4,1
-6.731888e-05,0.0003955397,4,1
-6.618442e-05,0.0003913261,4,1
-2.177852e-05,0.0003645853,4,1
5.860588e-05,0.0003172622,4,1
0.0001548727,0.0002550291,4,1
0.0002490327,0.0001908512,4,1
0.0003386548,0.0001318594,4,1
0.0004289252,8.340187e-05,4,1
0.0005311884,4.920609e-05,4,1
0.0006499824,3.073064e-05,4,1
0.0007720177,2.76514e-05,4,1
0.000876712,3.543054e-05,4,1
0.0009473725,5.179914e-05,4,1
0.0009825408,7.270556e-05,4,1
0.0009861062,9.231547e-05,4,1
0.0009575827,0.0001056048,4,1
0.0008831946,0.0001116012,4,1
0.0007556491,0.0001143563,4,1
0.0005880735,0.0001190562,4,1
0.0004047775,0.0001268354,4,1
0.0002302331,0.0001375317,4,1
8.502253e-05,0.0001513072,4,1
-2.566809e-05,0.0001634622,4,1
-0.000119828,0.0001686482,4,1
-0.0002227395,0.0001671896,4,1
-0.0003454229,0.0001626518,4,1
-0.0004775062,0.000155683,4,1
-0.0005943552,0.0001462832,4,1
-0.0006661501,0.0001321835,4,1
-0.0006689052,0.0001141943,4,1
-0.0006058619,9.588091e-05,4,1
-0.0005013297,8.323981e-05,4,1
-0.0003890185,8.145709e-05,4,1
-0.0002927517,8.534666e-05,4,1
-0.0002113949,8.680524e-05,4,1
-0.0001211246,7.821578e-05,4,1
-2.492749e-06,6.298164e-05,4,1
0.0001467694,4.82337e-05,4,1
0.0003039728,3.818565e-05,4,1
0.0004349216,3.462021e-05,4,1
0.0005174129,3.348575e-05,4,1
0.0005428572,2.797553e-05,4,1
0.0005093097,1.582063e-05,4,1
0.0004217943,-5.085794e-06,4,1
0.0003015418,-3.360929e-05,4,1
0.0001806411,-6.748094e-05,4,1
8.405014e-05,-0.0001007043,4,1
1.954813e-05,-0.0001292278,4,1
-2.064406e-05,-0.000152079,4,1
-4.738484e-05,-0.0001713648,4,1
-6.926366e-05,-0.0001859507,4,1
-9.632857e-05,-0.0001953505,4,1
-0.0001365208,-0.0002006986,4,1
-0.0001934057,-0.000206533,4,1
-0.0002671454,-0.0002154466,4,1
-0.0003502849,-0.0002319772,4,1
-0.0004392588,-0.0002579077,4,1
-0.0005296912,-0.0002880518,4,1
-0.0006078067,-0.0003141443,4,1
-0.0006530228,-0.0003290543,4,1
-0.0006530228,-0.0003288923,4,1
-0.0006157478,-0.0003160891,4,1
-0.0005762039,-0.0002968033,4,1
-0.000576366,-0.0002733039,4,1
-0.0006369784,-0.0002485079,4,1
-0.0007363244,-0.0002235498,4,1
-0.0008233535,-0.0002039399,4,1
-0.0008478253,-0.0001951884,4,1
-0.0007883473,-0.0001971332,4,1
-0.0006590193,-0.0002005366,4,1
-0.0004972781,-0.0001972953,4,1
-0.0003391024,-0.0001844921,4,1
-0.0002037779,-0.0001647201,4,1
-9.341139e-05,-0.0001392759,4,1
2.369211e-06,-0.0001102662,4,1
9.750156e-05,-8.02841e-05,4,1
0.0002043026,-5.565017e-05,4,1
0.0003294171,-4.041603e-05,4,1
0.0004768966,-3.279896e-05,4,1
0.0006394482,-2.939559e-05,4,1
0.0007903311,-2.566809e-05,4,1
0.0008909738,-1.772689e-05,4,1
0.0009193352,4.244267e-07,4,1
0.0008849773,3.202716e-05,4,1
0.0008092928,7.400208e-05,4,1
0.0007120535,0.0001193804,4,1
0.0006070351,0.000160707,4,1
0.0005062304,0.0001945787,4,1
0.0004148255,0.0002195368,4,1
0.0003349273,0.0002337985,4,1
0.0002615117,0.0002372019,4,1
0.0001850168,0.0002342847,4,1
9.733949e-05,0.0002265056,4,1
1.883015e-06,0.0002188885,4,1
-8.320128e-05,0.0002145127,4,1
-0.0001383035,0.0002161334,4,1
-0.0001546721,0.0002192126,4,1
-0.0001378173,0.0002180782,4,1
-9.422172e-05,0.0002080301,4,1
-2.761287e-05,0.0001905271,4,1
5.277153e-05,0.0001689724,4,1
0.0001325077,0.0001500107,4,1
0.0001974959,0.0001367214,4,1
0.0002391467,0.0001274836,4,1
0.0002532463,0.0001205148,4,1
0.0002381743,0.000115977,4,1
0.0001944166,0.000110953,4,1
0.000125863,0.0001023635,4,1
3.105477e-05,9.118101e-05,4,1
-9.681477e-05,8.194328e-05,4,1
-0.0002548284,7.772959e-05,4,1
-0.000419973,7.772959e-05,4,1
-0.0005593491,8.080883e-05,4,1
-0.0006376266,8.129502e-05,4,1
-0.0006403818,5.455425e-05,4,1
-0.0005894933,-3.231277e-05,4,1
-0.0005326084,-0.0001925954,4,1
-0.0005040849,-0.0003963114,4,1
-0.0005047331,-0.0005851175,4,1
-0.0005104054,-0.0007009942,4,1
-0.0004911196,-0.0007227109,4,1
-0.0004228902,-0.0006687432,4,1
-0.0003049066,-0.0005750695,4,1
-0.0001650443,-0.0004765338,4,1
-4.787104e-05,-0.0003908012,4,1
8.203562e-06,-0.0003198166,4,1
4.80019e-06,-0.0002580697,4,1
-2.291298e-05,-0.0002026434,4,1
-3.425755e-05,-0.0001554824,4,1
2.855407e-06,-0.0001201522,4,1
8.923623e-05,-0.0001002181,4,1
0.0001963614,-9.260107e-05,4,1
0.0002906835,-8.287715e-05,4,1
0.0003482167,-5.613637e-05,4,1
0.0003637749,-5.085794e-06,4,1
0.0003553475,6.703327e-05,4,1
0.000339303,0.0001492004,4,1
0.0003226103,0.0002376881,4,1
0.0003000832,0.0003394651,4,1
0.0002594049,0.0004666864,4,1
0.0001955511,0.0006183797,4,1
0.0001158149,0.0007705591,4,1
3.478228e-05,0.0008906497,4,1
-4.171256e-05,0.0009635791,4,1
-0.0001117248,0.001000206,4,1
-0.0001715269,0.001030188,4,1
-0.0002133397,0.001077349,4,1
-0.0002297083,0.001142986,4,1
-0.000216581,0.001199222,4,1
-0.0001844921,0.001207002,4,1
-0.0001580754,0.001136827,4,1
-0.0001585616,0.0009833511,4,1
-0.0001875713,0.0007561353,4,1
-0.0002306807,0.0004814344,4,1
-0.000271197,0.0001992786,4,1
-0.000298424,-4.787104e-05,4,1
-0.0003097686,-0.0002334358,4,1
-0.0003078238,-0.0003454229,4,1
-0.0002953447,-0.0003945287,4,1
-0.0002724935,-0.0004107352,4,1
-0.0002293842,-0.0004280762,4,1
-0.0001522411,-0.0004659995,4,1
-4.43056e-05,-0.0005164018,4,1
7.20573e-05,-0.0005552975,4,1
0.0001733481,-0.0005622663,4,1
0.0002453052,-0.0005314739,4,1
0.000277232,-0.000472158,4,1
0.0002540567,-0.0003992286,4,1
0.0001613553,-0.0003288923,4,1
6.258778e-06,-0.000271035,4,1
-0.0001635857,-0.0002293842,4,1
-0.0002818933,-0.0002042641,4,1
-0.0003000446,-0.0001943781,4,1
-0.000216581,-0.0001940539,4,1
-6.861539e-05,-0.000194216,4,1
0.0001033359,-0.0001895161,4,1
0.0002824181,-0.0001750923,4,1
0.0004715484,-0.0001488377,4,1
0.0006799645,-0.0001139937,4,1
0.0008950254,-8.07703e-05,4,1
0.001095825,-5.791909e-05,4,1
0.00127118,-4.462973e-05,4,1
0.001426438,-3.231277e-05,4,1
0.001565329,-1.092015e-05,4,1
0.001679909,2.684107e-05,4,1
0.00174976,7.448828e-05,4,1
0.001758511,0.0001073875,4,1
0.001696116,0.0001015532,4,1
0.001565815,5.260946e-05,4,1
0.001390298,-2.518189e-05,4,1
0.001209271,-0.000104918,4,1
0.001056281,-0.0001640719,4,1
0.0009378107,-0.0001872472,4,1
0.0008383025,-0.000181737,4,1
0.0007271256,-0.0001600202,4,1
0.0005849942,-0.0001358725,4,1
0.0004038051,-0.0001191798,4,1
0.0001869616,-0.00010978,4,1
-5.483985e-05,-0.0001028112,4,1
-0.0002995585,-9.211487e-05,4,1
-0.0005251534,-7.542214e-05,4,1
-0.0007052079,-5.289507e-05,4,1
-0.0008194639,-2.485776e-05,4,1
-0.0008654904,3.017472e-06,4,1
-0.0008620871,2.214118e-05,4,1
-0.0008413427,3.235129e-05,4,1
-0.0008358325,4.499239e-05,4,1
-0.0008622491,6.719535e-05,4,1
-0.0009270753,9.328786e-05,4,1
-0.001033552,0.000110953,4,1
-0.00117147,0.0001101427,4,1
-0.001314087,8.615699e-05,4,1
-0.001434178,3.883391e-05,4,1
-0.001510672,-2.696461e-05,4,1
-0.001532875,-9.811128e-05,4,1
-0.001492197,-0.000159372,4,1
-0.001383451,-0.0002024813,4,1
-0.001211338,-0.0002285739,4,1
-0.0009966013,-0.0002491561,4,1
-0.000762579,-0.0002747625,4,1
-0.0005309877,-0.0003060411,4,1
-0.000318196,-0.0003360231,4,1
-0.0001418689,-0.0003522297,4,1
-1.902341e-05,-0.0003462333,4,1
4.239934e-05,-0.0003146305,4,1
5.1475e-05,-0.0002624455,4,1
2.829966e-05,-0.000204102,4,1
-7.354709e-06,-0.0001558065,4,1
-2.696461e-05,-0.0001274451,4,1
-2.978945e-06,-0.000122097,4,1
7.221937e-05,-0.0001326312,4,1
0.0001796687,-0.0001517549,4,1
0.0002775562,-0.0001712027,4,1
0.0003307136,-0.0001796301,4,1
0.0003333067,-0.000166989,4,1
0.0002987867,-0.000134576,4,1
0.0002420638,-9.017008e-05,4,1
0.0001657311,-4.43056e-05,4,1
6.946425e-05,-3.789272e-06,4,1
-3.522994e-05,2.76514e-05,4,1
-0.0001298761,5.017848e-05,4,1
-0.0001945401,7.076078e-05,4,1
-0.0002182017,9.409818e-05,4,1
-0.0002060468,0.0001214872,4,1
-0.0001771992,0.0001522796,4,1
-0.0001488377,0.0001846927,4,1
-0.0001300382,0.0002185644,4,1
-0.0001131834,0.0002506533,4,1
-8.919769e-05,0.0002775562,4,1
-5.483985e-05,0.0002978143,4,1
-1.983374e-05,0.0003148312,4,1
5.124321e-06,0.0003336308,4,1
1.54965e-05,0.0003571303,4,1
1.014835e-05,0.0003811159,4,1
-4.113403e-06,0.000401212,4,1
-1.448558e-05,0.0004157979,4,1
-1.821308e-05,0.0004235771,4,1
-1.724069e-05,0.0004201737,4,1
-1.788895e-05,0.0004044533,4,1
-3.198864e-05,0.000378685,4,1
-7.201877e-05,0.0003454615,4,1
-0.0001462447,0.0003039728,4,1
-0.0002470493,0.0002584324,4,1
-0.0003520676,0.0002138645,4,1
-0.0004358554,0.0001748067,4,1
-0.0004775062,0.0001462832,4,1
-0.0004637306,0.0001297526,4,1
-0.0003938804,0.0001253768,4,1
-0.0002901587,0.0001219734,4,1
-0.0001861127,0.0001107909,4,1
-0.0001102662,8.988449e-05,4,1
-6.780507e-05,6.395404e-05,4,1
-4.754691e-05,3.316162e-05,4,1
-2.599222e-05,-3.789272e-06,4,1
1.663096e-05,-4.446767e-05,4,1
8.567078e-05,-8.384954e-05,4,1
0.0001726999,-0.0001178833,4,1
0.0002595669,-0.0001457585,4,1
0.0003311998,-0.0001618029,4,1
0.0003781987,-0.0001530514,4,1
0.0004020224,-0.0001091317,4,1
0.000411098,-3.490581e-05,4,1
0.0004145014,5.244739e-05,4,1
0.0004153117,0.0001373696,4,1
0.0004115842,0.0002098128,4,1
0.0004190393,0.0002660495,4,1
0.000458259,0.0003021901,4,1
0.0005285954,0.0003171001,4,1
0.0006050903,0.0003101313,4,1
0.0006528996,0.0002825802,4,1
0.0006443101,0.0002357433,4,1
0.0005673291,0.0001793446,4,1
0.0004298976,0.0001257009,4,1
0.0002563256,8.405014e-05,4,1
8.826383e-05,5.585077e-05,4,1
-3.26369e-05,3.996837e-05,4,1
-8.871149e-05,3.040651e-05,4,1
-9.551824e-05,2.214118e-05,4,1
-9.2439e-05,1.144487e-05,4,1
-0.0001104282,-6.544382e-06,4,1
-0.0001572651,-3.490581e-05,4,1
-0.0002143121,-7.039812e-05,4,1
-0.0002600145,-0.0001079973,4,1
-0.0002726556,-0.0001438137,4,1
-0.0002357047,-0.0001757406,4,1
-0.0001485136,-0.0002044261,4,1
-2.485776e-05,-0.0002272773,4,1
0.0001099806,-0.0002433218,4,1
