EMG1,EMG2,class,user
-6.829127e-05,-0.0001067007,4,1
-7.801519e-05,-9.956988e-05,4,1
-0.0001005423,-8.40116e-05,4,1
-0.0001421931,-7.137051e-05,4,1
-0.0002002124,-7.347736e-05,4,1
-0.0002596904,-8.838737e-05,4,1
-0.0003092824,-0.0001076731,4,1
-0.0003366714,-0.0001253383,4,1
-0.0003284061,-0.0001358725,4,1
-0.0002781658,-0.0001387897,4,1
-0.0001953505,-0.000137007,4,1
-9.405965e-05,-0.0001344139,4,1
1.501031e-05,-0.0001363587,4,1
0.0001257009,-0.0001439758,4,1
0.000230071,-0.0001554824,4,1
0.0003183966,-0.0001629374,4,1
0.0003824125,-0.000159372,4,1
0.0004213082,-0.000147055,4,1
0.0004360561,-0.0001303623,4,1
0.0004248736,-0.0001120489,4,1
0.0003828986,-9.114248e-05,4,1
0.0003046211,-7.039812e-05,4,1
0.0001976579,-5.338126e-05,4,1
8.550872e-05,-4.041603e-05,4,1
-7.354709e-06,-2.728874e-05,4,1
-6.634648e-05,-1.62683e-05,4,1
-9.033215e-05,-7.030578e-06,4,1
-8.984595e-05,7.485573e-07,4,1
-8.271508e-05,8.365628e-06,4,1
-8.498399e-05,1.776542e-05,4,1
-0.000104756,3.283749e-05,4,1
-0.0001339277,5.649903e-05,4,1
-0.0001549962,8.696731e-05,4,1
-0.0001452723,0.0001175977,4,1
-9.438378e-05,0.00013818,4,1
-1.124428e-05,0.0001461212,4,1
8.599492e-05,0.0001449867,4,1
0.0001791825,0.000138342,4,1
0.0002585945,0.0001302388,4,1
0.000319369,0.0001237561,4,1
0.0003650715,0.0001192183,4,1
0.0003963501,0.0001158149,4,1
0.0004130428,0.0001145184,4,1
0.0004157979,0.0001179218,4,1
0.0004122325,0.0001253768,4,1
0.0004123946,0.0001341283,4,1
0.0004179048,0.0001406109,4,1
0.0004204978,0.0001436902,4,1
0.0004122325,0.000143204,4,1
0.0003851676,0.0001470936,4,1
0.0003354135,0.0001707551,4,1
0.0002686426,0.0002221298,4,1
0.0002018716,0.0002926282,4,1
0.0001466074,0.0003624784,4,1
0.0001033359,0.000408505,4,1
6.379197e-05,0.0004180668,4,1
1.468618e-05,0.0003895433,4,1
-5.046408e-05,0.000331848,4,1
-0.0001235555,0.0002594049,4,1
-0.0001930815,0.0001856651,4,1
-0.0002446183,0.0001188942,4,1
-0.0002773555,6.184718e-05,4,1
-0.0003015032,1.387585e-05,4,1
-0.0003259751,-1.918548e-05,4,1
-0.0003540124,-3.279896e-05,4,1
-0.0003825359,-3.360929e-05,4,1
-0.0004014975,-3.296103e-05,4,1
-0.0004053871,-3.782299e-05,4,1
-0.0003942046,-5.111234e-05,4,1
-0.000370543,-7.380149e-05,4,1
-0.0003395886,-0.0001071869,4,1
-0.0003092824,-0.0001491618,4,1
-0.0002807589,-0.0001964849,4,1
-0.0002561249,-0.0002415391,4,1
-0.000233922,-0.0002755728,4,1
-0.0002151224,-0.0002906449,4,1
-0.0002100984,-0.0002848105,4,1
-0.0002280877,-0.0002635799,4,1
-0.0002652006,-0.0002371633,4,1
-0.0003068514,-0.0002112329,4,1
-0.0003350507,-0.0001896782,4,1
-0.0003394265,-0.0001754164,4,1
-0.0003190063,-0.0001728234,4,1
-0.0002818933,-0.0001874093,4,1
-0.0002360289,-0.0002136638,4,1
-0.0001887058,-0.0002417012,4,1
-0.0001421931,-0.0002619593,4,1
-9.730096e-05,-0.0002707109,4,1
-5.289507e-05,-0.0002699005,4,1
-6.868513e-06,-0.0002617972,4,1
3.915804e-05,-0.0002483458,4,1
8.599492e-05,-0.0002327876,4,1
0.0001331559,-0.0002204706,4,1
0.0001749688,-0.0002122053,4,1
0.0002000889,-0.0002073433,4,1
0.0001944166,-0.0002036158,4,1
0.0001550348,-0.0002005366,4,1
9.377406e-05,-0.000196647,4,1
2.748934e-05,-0.0001853024,4,1
-2.485776e-05,-0.0001686097,4,1
-5.548811e-05,-0.0001549962,4,1
-6.342931e-05,-0.0001509446,4,1
-4.85193e-05,-0.0001538618,4,1
-8.975362e-06,-0.0001559686,4,1
5.504044e-05,-0.0001507825,4,1
0.0001326697,-0.0001352242,4,1
0.0002021958,-0.0001092938,4,1
0.0002436845,-7.639453e-05,4,1
0.000249843,-3.992984e-05,4,1
0.0002318537,-4.113403e-06,4,1
0.0002021958,2.473423e-05,4,1
0.000168,4.385793e-05,4,1
0.0001338042,5.61749e-05,4,1
9.344993e-05,6.670914e-05,4,1
4.191315e-05,7.789165e-05,4,1
-2.307504e-05,8.939829e-05,4,1
-9.162867e-05,9.831188e-05,4,1
-0.0001455964,0.0001054428,4,1
-0.0001676373,0.0001119254,4,1
-0.0001483515,0.0001175977,4,1
-9.438378e-05,0.0001229458,4,1
-2.485776e-05,0.000133318,4,1
3.818565e-05,0.0001483901,4,1
8.259155e-05,0.0001694586,4,1
0.0001116012,0.0001919856,4,1
0.0001336421,0.0002083542,4,1
0.000158114,0.0002154851,4,1
0.0001940925,0.0002114335,4,1
0.0002477361,0.0001987924,4,1
0.0003135347,0.0001825859,4,1
0.0003749574,0.0001701068,4,1
0.0004149876,0.0001671896,4,1
0.000418391,0.0001738343,4,1
0.0003871123,0.000190365,4,1
0.0003315239,0.00021273,4,1
0.0002679943,0.0002344468,4,1
0.0002068957,0.0002469258,4,1
0.0001537382,0.0002431983,4,1
0.0001094944,0.000225047,4,1
7.367795e-05,0.0002072198,4,1
4.434413e-05,0.0002044647,4,1
1.338965e-05,0.0002234263,4,1
-2.809907e-05,0.0002611876,4,1
-8.854943e-05,0.0003065659,4,1
-0.0001642339,0.0003464339,4,1
-0.0002429977,0.0003765781,4,1
-0.0003060411,0.00040105,4,1
-0.0003358611,0.0004245494,4,1
-0.0003128478,0.0004459421,4,1
-0.0002357047,0.0004618245,4,1
-0.0001232314,0.0004657141,4,1
-1.520357e-06,0.0004509661,4,1
0.0001073875,0.0004180668,4,1
0.000192958,0.0003678266,4,1
0.0002509774,0.0003000832,4,1
0.0002783665,0.0002172679,4,1
0.0002775562,0.0001292664,4,1
0.0002569738,4.320967e-05,4,1
0.0002182402,-3.652646e-05,4,1
0.0001720516,-0.0001101041,4,1
0.0001315353,-0.0001791439,4,1
0.0001090082,-0.0002404046,4,1
0.0001075496,-0.0002875656,4,1
0.0001187321,-0.0003194925,4,1
0.0001295905,-0.0003399127,4,1
0.0001273216,-0.0003522297,4,1
9.701536e-05,-0.0003593606,4,1
4.077869e-05,-0.0003608192,4,1
-3.279896e-05,-0.0003548227,4,1
-0.0001070249,-0.0003423437,4,1
-0.0001639098,-0.0003279199,4,1
-0.0001955125,-0.0003143064,4,1
-0.0002021572,-0.000303286,4,1
-0.0001888679,-0.0002966413,4,1
-0.0001564548,-0.0002943724,4,1
-0.000112211,-0.0002972895,4,1
-6.845333e-05,-0.0003003688,4,1
-3.701266e-05,-0.0002955068,4,1
-1.983374e-05,-0.0002758969,4,1
-7.678839e-06,-0.000238946,4,1
1.274139e-05,-0.0001893541,4,1
4.564065e-05,-0.0001355484,4,1
8.567078e-05,-8.352541e-05,4,1
0.0001150046,-3.976777e-05,4,1
0.0001145184,-5.89612e-06,4,1
7.57848e-05,1.582063e-05,4,1
9.824215e-06,2.424803e-05,4,1
-5.59743e-05,2.230325e-05,4,1
-0.0001062146,1.452411e-05,4,1
-0.0001451102,2.531276e-06,4,1
-0.0001835197,-1.335113e-05,4,1
-0.0002293842,-3.587821e-05,4,1
-0.0002758969,-7.137051e-05,4,1
-0.0003039342,-0.0001190177,4,1
-0.0002987481,-0.0001684476,4,1
-0.0002609869,-0.0002034537,4,1
-0.000206533,-0.0002151224,4,1
-0.0001499722,-0.000201509,4,1
-9.989401e-05,-0.0001679614,4,1
-5.840528e-05,-0.0001237176,4,1
-3.166451e-05,-7.688073e-05,4,1
-2.680255e-05,-3.506788e-05,4,1
-4.495386e-05,-2.654814e-06,4,1
-7.509801e-05,1.857574e-05,4,1
-0.000104756,3.348575e-05,4,1
-0.0001253383,5.19612e-05,4,1
-0.0001379794,8.210535e-05,4,1
-0.0001464067,0.0001227837,4,1
-0.0001496481,0.0001665414,4,1
-0.0001483515,0.0002057612,4,1
-0.0001397621,0.0002329882,4,1
-0.0001195039,0.0002446569,4,1
-8.628052e-05,0.0002444948,4,1
-4.219875e-05,0.0002337985,4,1
6.096713e-06,0.0002117576,4,1
4.547859e-05,0.0001838824,4,1
6.638502e-05,0.0001626518,4,1
6.800567e-05,0.0001566554,4,1
5.925414e-05,0.0001644345,4,1
5.666109e-05,0.0001816135,4,1
7.30297e-05,0.0002010613,4,1
0.0001090082,0.0002206712,4,1
0.0001516314,0.0002391467,4,1
0.0001830721,0.0002568118,4,1
0.0001968476,0.0002743149,4,1
0.0001963614,0.0002830664,4,1
0.0001893926,0.0002731804,4,1
0.0001882582,0.00024255,4,1
0.0001893926,0.0001999268,4,1
0.0001697827,0.0001613553,4,1
0.0001041462,0.000133318,4,1
-7.030578e-06,0.000111115,4,1
-0.0001316588,8.631905e-05,4,1
-0.0002298704,5.94162e-05,4,1
-0.0002788141,3.332369e-05,4,1
-0.0002747625,1.22552e-05,4,1
-0.0002280877,-2.492749e-06,4,1
-0.0001553203,-1.140634e-05,4,1
-7.039812e-05,-1.983374e-05,4,1
1.744129e-05,-3.020592e-05,4,1
9.571884e-05,-4.187462e-05,4,1
0.0001503349,-4.949169e-05,4,1
0.0001715654,-5.59743e-05,4,1
0.0001726999,-6.861539e-05,4,1
0.0001759412,-8.871149e-05,4,1
0.0001949028,-0.000107349,4,1
0.0002326641,-0.0001186936,4,1
0.0002829043,-0.0001214487,4,1
0.0003342791,-0.0001195039,4,1
0.0003756057,-0.0001164247,4,1
0.0003991052,-0.000112373,4,1
0.0003991052,-0.0001062146,4,1
0.0003744712,-9.827335e-05,4,1
0.0003282826,-9.114248e-05,4,1
0.0002720459,-8.060823e-05,4,1
0.0002216436,-6.602235e-05,4,1
0.0001882582,-4.43056e-05,4,1
0.0001603829,-1.837515e-05,4,1
0.0001012291,4.151929e-06,4,1
-3.328516e-05,1.889987e-05,4,1
-0.0002603387,2.359977e-05,4,1
-0.0005389289,2.457216e-05,4,1
-0.0007886715,2.992031e-05,4,1
-0.0009402025,4.499239e-05,4,1
-0.0009705087,6.606088e-05,4,1
-0.0009048723,8.145709e-05,4,1
-0.0007958024,8.567078e-05,4,1
-0.0006904599,8.080883e-05,4,1
-0.0006040792,7.432621e-05,4,1
-0.0005246671,7.30297e-05,4,1
-0.0004298589,8.161915e-05,4,1
-0.0003037722,9.26396e-05,4,1
-0.0001499722,9.588091e-05,4,1
2.149292e-05,8.631905e-05,4,1
0.0001974959,6.849186e-05,4,1
0.0003707437,5.017848e-05,4,1
0.000534754,3.769945e-05,4,1
0.0006798024,3.705119e-05,4,1
0.0007963275,4.839576e-05,4,1
0.0008759017,6.525056e-05,4,1
0.0009170663,8.113296e-05,4,1
0.0009274385,9.134307e-05,4,1
0.0009206317,9.442231e-05,4,1
0.0009109079,8.680524e-05,4,1
0.0009003736,6.865393e-05,4,1
0.0008872462,4.077869e-05,4,1
0.0008630985,6.096713e-06,4,1
0.0008203132,-2.631635e-05,4,1
0.0007577559,-4.608832e-05,4,1
0.0006801266,-4.738484e-05,4,1
0.0005930975,-3.279896e-05,4,1
0.0005020167,-1.010982e-05,4,1
0.0004038051,7.717366e-06,4,1
0.0002859836,1.1769e-05,4,1
0.0001386662,4.47606e-06,4,1
-3.571614e-05,-5.085794e-06,4,1
-0.0002167431,-8.489166e-06,4,1
-0.0003689224,-5.57199e-06,4,1
-0.0004645409,3.179537e-06,4,1
-0.0004925782,1.744129e-05,4,1
-0.0004608134,3.462021e-05,4,1
-0.0003880461,5.050261e-05,4,1
-0.0003076617,5.747142e-05,4,1
-0.0002532078,5.228533e-05,4,1
-0.0002407288,3.60788e-05,4,1
-0.0002700626,1.387585e-05,4,1
-0.0003267854,-1.20546e-05,4,1
-0.0003940425,-3.668853e-05,4,1
-0.0004557894,-6.116039e-05,4,1
-0.0005000332,-8.579432e-05,4,1
-0.0005204534,-0.0001045939,4,1
-0.0005134846,-0.0001128592,4,1
-0.0004799371,-0.0001067007,4,1
-0.0004258073,-8.790117e-05,4,1
-0.0003619536,-6.423963e-05,4,1
-0.0003000446,-4.835724e-05,4,1
-0.0002502906,-4.722278e-05,4,1
-0.0002186879,-6.213279e-05,4,1
-0.0002047502,-8.611845e-05,4,1
-0.0002039399,-0.0001136696,4,1
-0.0002071812,-0.0001407345,4,1
-0.0002003745,-0.0001681235,4,1
-0.0001791439,-0.0001989159,4,1
-0.0001473791,-0.0002337599,4,1
-0.0001118868,-0.0002626076,4,1
-7.817725e-05,-0.0002750866,4,1
-5.111234e-05,-0.0002630937,4,1
-3.409549e-05,-0.0002306807,4,1
-3.182657e-05,-0.0001888679,4,1
-4.592625e-05,-0.0001488377,4,1
-7.736692e-05,-0.0001139937,4,1
-0.0001284175,-8.433573e-05,4,1
-0.0001981056,-5.840528e-05,4,1
-0.0002720074,-3.490581e-05,4,1
-0.0003337542,-1.691656e-05,4,1
-0.0003760533,-5.89612e-06,4,1
-0.0004042526,-2.006553e-06,4,1
-0.0004287245,-4.599598e-06,4,1
-0.0004553032,-1.497178e-05,4,1
-0.0004828543,-3.101625e-05,4,1
-0.0005031124,-4.819517e-05,4,1
-0.0005027883,-6.748094e-05,4,1
-0.0004663236,-9.098041e-05,4,1
-0.000382698,-0.0001144799,4,1
-0.0002504527,-0.0001302002,4,1
-8.303922e-05,-0.0001336036,4,1
9.344993e-05,-0.0001219349,4,1
0.0002504913,-9.746302e-05,4,1
0.0003741471,-6.407757e-05,4,1
0.0004619866,-2.566809e-05,4,1
0.0005229231,1.436204e-05,4,1
0.00057446,5.358185e-05,4,1
0.000634262,9.020862e-05,4,1
0.0007054088,0.0001248906,4,1
0.0007828761,0.0001589243,4,1
0.0008598572,0.0001900409,4,1
0.0009229007,0.0002156472,4,1
0.0009559621,0.0002357433,4,1
0.0009501277,0.0002483844,4,1
0.000911394,0.0002581083,4,1
0.0008498091,0.0002723701,4,1
0.0007684522,0.0002926282,4,1
0.0006671614,0.0003156415,4,1
0.0005517708,0.0003376824,4,1
0.0004415663,0.0003597233,4,1
0.0003559958,0.0003811159,4,1
0.0002986247,0.0003997535,4,1
0.0002547049,0.000413529,4,1
0.0002036544,0.0004219564,4,1
0.0001325077,0.0004250357,4,1
4.677511e-05,0.0004208219,4,1
-3.117831e-05,0.0004106118,4,1
-8.239095e-05,0.0003989431,4,1
-0.0001041077,0.0003885709,4,1
-0.0001131834,0.0003751195,4,1
-0.0001324691,0.0003517821,4,1
-0.0001759026,0.0003124002,4,1
-0.000238784,0.0002574601,4,1
-0.0003094444,0.0001926339,4,1
-0.0003762153,0.0001292664,4,1
-0.000427428,7.983644e-05,4,1
-0.0004600031,5.082674e-05,4,1
-0.0004773441,3.948217e-05,4,1
-0.0004851232,3.834771e-05,4,1
-0.0004867439,4.272347e-05,4,1
-0.0004766958,4.709924e-05,4,1
-0.0004468758,4.612685e-05,4,1
-0.00039777,3.526847e-05,4,1
-0.0003378059,1.322759e-05,4,1
-0.0002851347,-2.080613e-05,4,1
-0.0002590421,-6.261898e-05,4,1
-0.0002731418,-9.649064e-05,4,1
-0.0003214373,-0.0001159385,4,1
-0.0003848048,-0.0001195039,4,1
-0.0004428242,-0.0001139937,4,1
-0.0004857715,-0.0001068628,4,1
-0.000509595,-0.0001070249,4,1
-0.0005149432,-0.0001204763,4,1
-0.0005050572,-0.0001457585,4,1
-0.0004835025,-0.0001771992,4,1
-0.0004530343,-0.0002144742,4,1
-0.0004155972,-0.0002566112,4,1
-0.0003697327,-0.000300855,4,1
-0.0003173856,-0.0003415334,4,1
-0.0002645523,-0.000375405,4,1
-0.0002180396,-0.0004013355,4,1
-0.0001836818,-0.0004159214,4,1
-0.0001606685,-0.0004168937,4,1
-0.0001379794,-0.000402794,4,1
-9.568031e-05,-0.0003767015,4,1
-2.145439e-05,-0.0003450988,4,1
8.016057e-05,-0.0003178718,4,1
0.0001906891,-0.0003021515,4,1
0.0002914938,-0.0002985861,4,1
0.0003743092,-0.0003015032,4,1
0.0004371906,-0.0003021515,4,1
0.0004749518,-0.0002992343,4,1
0.0004845136,-0.0002927517,4,1
0.0004684692,-0.0002825416,4,1
0.0004294114,-0.0002739521,4,1
0.0003731747,-0.0002681178,4,1
0.0003038107,-0.0002606628,4,1
0.0002068957,-0.0002447804,4,1
5.439218e-05,-0.0002185258,4,1
-0.0001608306,-0.00018433,4,1
-0.000402794,-0.0001498101,4,1
-0.0006107238,-0.0001242038,4,1
-0.0007407002,-0.0001075111,4,1
-0.0007870508,-9.551824e-05,4,1
-0.0007687375,-8.303922e-05,4,1
-0.0007019666,-6.699475e-05,4,1
-0.0005920863,-4.932962e-05,4,1
-0.0004386105,-3.506788e-05,4,1
-0.0002473734,-2.356124e-05,4,1
-3.312309e-05,-1.20546e-05,4,1
0.0001824238,9.175954e-06,4,1
0.0003765781,4.612685e-05,4,1
0.0005396159,0.00010366,4,1
0.0006763991,0.0001744826,4,1
0.0008041067,0.0002464396,4,1
0.0009368383,0.0003072141,4,1
0.001070218,0.0003456236,4,1
0.001187878,0.0003593992,4,1
0.001274583,0.0003581026,4,1
0.001329685,0.00035162,4,1
0.001352212,0.0003446512,4,1
0.001333899,0.0003410858,4,1
0.001273773,0.0003427064,4,1
0.001179937,0.000346596,4,1
0.001068111,0.0003396272,4,1
0.0009543414,0.0003080245,4,1
0.0008522401,0.0002485465,4,1
0.0007634282,0.0001720516,4,1
0.0006789921,9.652917e-05,4,1
0.0005751082,4.175109e-05,4,1
0.0004391353,1.193106e-05,4,1
0.0002783665,9.824215e-06,4,1
0.0001252147,3.251336e-05,4,1
2.230325e-05,7.319176e-05,4,1
-6.382317e-06,0.0001250527,4,1
2.635488e-05,0.0001793446,4,1
8.680524e-05,0.000230071,4,1
0.000140773,0.0002715597,4,1
0.0001543865,0.0003010556,4,1
0.0001026876,0.0003174242,4,1
-1.837515e-05,0.0003187208,4,1
-0.0001895161,0.0003099692,4,1
-0.0003783222,0.0002957075,4,1
-0.0005460597,0.0002780424,4,1
-0.0006575607,0.000259729,4,1
-0.0006914323,0.0002383363,4,1
-0.000650754,0.0002138645,4,1
-0.0005642111,0.0001898788,4,1
-0.0004741028,0.0001714034,4,1
-0.0004214316,0.0001644345,4,1
-0.0004204592,0.0001701068,4,1
-0.0004593548,0.0001835583,4,1
-0.0005181845,0.0001965235,4,1
-0.0005791211,0.0002057612,4,1
-0.0006267683,0.0002085163,4,1
-0.0006447575,0.0002078681,4,1
-0.0006219063,0.0002098128,4,1
-0.0005598353,0.0002130541,4,1
-0.0004715097,0.0002088404,4,1
-0.0003776739,0.000192958,4,1
-0.0002964792,0.0001657311,4,1
-0.0002391081,0.0001338042,4,1
-0.0002071812,0.0001090082,4,1
-0.0001979435,0.0001017153,4,1
-0.000206533,0.0001122495,4,1
-0.0002253326,0.0001295905,4,1
-0.0002468872,0.0001312112,4,1
-0.0002666592,9.847395e-05,4,1
-0.0002867553,2.781346e-05,4,1
-0.000303448,-6.553616e-05,4,1
-0.0003096065,-0.0001598582,4,1
-0.0002998826,-0.000238784,4,1
-0.0002754107,-0.0003006929,4,1
-0.0002454286,-0.0003496366,4,1
-0.0002188499,-0.000385291,4,1
-0.0001974573,-0.0004036044,4,1
-0.000179306,-0.0004010113,4,1
-0.0001653684,-0.0003831841,4,1
-0.0001558065,-0.0003630881,4,1
-0.0001473791,-0.0003517435,4,1
-0.0001308485,-0.0003496366,4,1
-0.0001000561,-0.0003512573,4,1
-6.002594e-05,-0.0003535262,4,1
-2.161646e-05,-0.0003522297,4,1
6.582909e-06,-0.0003485022,4,1
2.975825e-05,-0.0003463953,4,1
5.098881e-05,-0.0003481781,4,1
7.043665e-05,-0.0003546606,4,1
8.599492e-05,-0.0003690845,4,1
9.798775e-05,-0.0003836704,4,1
0.0001114392,-0.0003839945,4,1
0.0001354248,-0.0003601709,4,1
0.000168162,-0.0003091203,4,1
0.0001976579,-0.0002311669,4,1
0.0002104611,-0.000137007,4,1
0.0001987924,-3.911951e-05,4,1
0.0001616794,5.001642e-05,4,1
0.000111115,0.0001232699,4,1
6.800567e-05,0.0001801549,4,1
4.223728e-05,0.0002231022,4,1
3.705119e-05,0.0002561635,4,1
5.747142e-05,0.000282256,4,1
0.0001004187,0.0003017039,4,1
0.0001551968,0.0003122381,4,1
0.0002064095,0.000309483,4,1
0.0002355812,0.0002965178,4,1
0.0002282883,0.0002856594,4,1
0.0001785342,0.0002866318,4,1
9.199134e-05,0.0003028383,4,1
-1.707863e-05,0.0003260137,4,1
-0.0001274451,0.0003440029,4,1
-0.0002173914,0.0003418961,4,1
-0.0002702246,0.0003141829,4,1
-0.0002814071,0.0002694529,4,1
-0.0002549905,0.000217592,4,1
-0.0001935677,0.0001671896,4,1
-0.0001026491,0.0001237561,4,1
1.1769e-05,8.907416e-05,4,1
0.000130887,6.525056e-05,4,1
0.000227478,5.666109e-05,4,1
0.0002900352,6.087479e-05,4,1
0.0003282826,6.78436e-05,4,1
0.0003569682,6.719535e-05,4,1
0.0003791712,5.552663e-05,4,1
0.0003866261,3.55926e-05,4,1
0.0003710679,1.274139e-05,4,1
0.0003294171,-1.043395e-05,4,1
0.0002660495,-3.21507e-05,4,1
0.0001897167,-5.516398e-05,4,1
0.0001151667,-7.898758e-05,4,1
5.925414e-05,-9.875954e-05,4,1
2.81376e-05,-0.0001105903,4,1
2.035846e-05,-0.0001133454,4,1
3.170304e-05,-0.0001089697,4,1
5.601284e-05,-0.0001083214,4,1
8.583286e-05,-0.0001162626,4,1
0.0001137081,-0.0001284175,4,1
0.000130725,-0.0001384655,4,1
0.0001289422,-0.000144462,4,1
0.0001049566,-0.0001533756,4,1
6.152305e-05,-0.0001710407,4,1
3.017472e-06,-0.0001977815,4,1
-6.148453e-05,-0.0002276015,4,1
-0.0001230693,-0.0002504527,4,1
-0.000174282,-0.0002616352,4,1
-0.000211557,-0.0002658489,4,1
-0.0002400805,-0.000266173,4,1
-0.0002634179,-0.0002626076,4,1
-0.0002793003,-0.0002554767,4,1
-0.0002846485,-0.0002442942,4,1
-0.0002770314,-0.0002337599,4,1
-0.000261149,-0.0002300324,4,1
-0.0002423494,-0.0002357047,4,1
-0.0002237119,-0.0002486699,4,1
-0.0001998883,-0.0002605007,4,1
-0.0001606685,-0.0002635799,4,1
-0.0001015147,-0.0002523975,4,1
-2.485776e-05,-0.0002295462,4,1
5.795762e-05,-0.0002006986,4,1
0.0001318594,-0.0001716889,4,1
0.000177886,-0.0001415448,4,1
0.0001913374,-0.0001054042,4,1
0.0001801549,-6.375344e-05,4,1
0.0001522796,-2.015787e-05,4,1
0.0001145184,2.133085e-05,4,1
7.270556e-05,6.395404e-05,4,1
3.705119e-05,0.0001096565,4,1
1.22552e-05,0.0001573037,4,1
1.072688e-06,0.000202682,4,1
2.04508e-06,0.0002464396,4,1
1.501031e-05,0.00029198,4,1
4.110282e-05,0.0003394651,4,1
7.805372e-05,0.0003830607,4,1
0.0001187321,0.0004162841,4,1
0.0001573037,0.0004341113,4,1
0.0001869616,0.0004266563,4,1
0.0001963614,0.0003874365,4,1
0.000170431,0.0003153174,4,1
9.296373e-05,0.0002255332,4,1
-4.997789e-05,0.0001462832,4,1
-0.0002501286,9.766362e-05,4,1
-0.0004650271,8.016057e-05,4,1
-0.0006300096,8.518459e-05,4,1
-0.0006924047,0.0001018773,4,1
-0.0006413542,0.0001216493,4,1
-0.0005089468,0.0001423936,4,1
-0.0003428299,0.0001548727,4,1
-0.0001870851,0.0001420695,4,1
-5.872941e-05,9.393612e-05,4,1
4.596478e-05,1.954813e-05,4,1
0.0001459591,-6.0188e-05,4,1
0.0002587566,-0.0001242038,4,1
0.0003913261,-0.0001596961,4,1
0.0005365367,-0.0001626133,4,1
0.0006807749,-0.0001402483,4,1
0.000812372,-0.0001024871,4,1
0.0009227386,-6.245691e-05,4,1
0.0009980991,-3.020592e-05,4,1
0.00103424,-7.516774e-06,4,1
0.001039102,7.879432e-06,4,1
0.001022409,2.359977e-05,4,1
0.0009852959,4.191315e-05,4,1
0.0009194973,6.525056e-05,4,1
0.0008146409,8.84259e-05,4,1
0.0006702406,0.000106091,4,1
0.0004943996,0.0001057669,4,1
0.0003025142,8.550872e-05,4,1
0.000110953,5.066468e-05,4,1
-6.423963e-05,1.193106e-05,4,1
-0.0002125294,-1.529591e-05,4,1
-0.0003277578,-1.853722e-05,4,1
-0.0003929081,6.744974e-06,4,1
-0.0003966356,5.374392e-05,4,1
-0.0003418575,0.0001103047,4,1
-0.000246401,0.0001633001,4,1
-0.000144624,0.0002031682,4,1
-7.639453e-05,0.0002278021,4,1
-6.731888e-05,0.0002422259,4,1
-0.0001186936,0.0002543808,4,1
-0.0002160948,0.0002726942,4,1
-0.0003371576,0.0003034866,4,1
-0.0004609755,0.0003457857,4,1
-0.0005663179,0.0003918123,4,1
-0.0006397335,0.0004360561,4,1
-0.0006812222,0.0004734932,4,1
-0.0006975908,0.0005007202,4,1
-0.0007026148,0.0005063924,4,1
-0.0007058561,0.0004726828,4,1
-0.0007097457,0.0003875985,4,1
-0.0007058561,0.0002602152,4,1
-0.0006820326,0.0001179218,4,1
-0.0006330888,-9.785688e-06,4,1
-0.0005621043,-0.0001050801,4,1
-0.0004760476,-0.0001626133,4,1
-0.0003843186,-0.0001869231,4,1
-0.0002987481,-0.0001898403,4,1
-0.0002271153,-0.0001846542,4,1
-0.0001697442,-0.0001783336,4,1
-0.0001211246,-0.0001786577,4,1
-7.688073e-05,-0.0001869231,4,1
-3.312309e-05,-0.0002010227,4,1
1.355172e-05,-0.000213988,4,1
6.346784e-05,-0.0002212809,4,1
0.0001132219,-0.0002225774,4,1
0.000163138,-0.0002193361,4,1
0.0002067336,-0.0002105846,4,1
0.0002372019,-0.0001994021,4,1
0.0002514636,-0.0001906506,4,1
0.0002514636,-0.0001869231,4,1
0.0002451431,-0.0001848162,4,1
0.000250005,-0.0001791439,4,1
0.0002686426,-0.000166989,4,1
0.0002773941,-0.0001491618,4,1
0.0002404432,-0.0001331174,4,1
0.0001461212,-0.0001261486,4,1
1.419998e-05,-0.0001274451,4,1
-0.0001125351,-0.0001319829,4,1
-0.0001976194,-0.0001350622,4,1
-0.0002227395,-0.0001300382,4,1
-0.0001930815,-0.0001138316,4,1
-0.0001363587,-9.033215e-05,4,1
-8.838737e-05,-6.537409e-05,4,1
-7.33153e-05,-4.025397e-05,4,1
-9.19528e-05,-1.62683e-05,4,1
-0.000114804,9.175954e-06,4,1
-9.940781e-05,3.850978e-05,4,1
-2.161646e-05,6.865393e-05,4,1
0.000111115,9.328786e-05,4,1
0.0002709115,0.0001075496,4,1
0.0004208219,0.0001090082,4,1
0.0005366987,9.944634e-05,4,1
0.0006083316,8.356394e-05,4,1
0.0006405826,6.962632e-05,4,1
0.0006511169,6.330578e-05,4,1
0.0006567892,6.492643e-05,4,1
0.0006647304,6.800567e-05,4,1
0.0006676476,6.849186e-05,4,1
0.0006548444,6.298164e-05,4,1
0.000621783,5.649903e-05,4,1
0.0005692738,5.260946e-05,4,1
0.0005023408,5.390598e-05,4,1
0.0004287631,6.508849e-05,4,1
0.0003569682,8.939829e-05,4,1
0.0002929524,0.0001229458,4,1
0.0002397949,0.0001551968,4,1
0.0002051129,0.0001735102,4,1
0.0001944166,0.000170431,4,1
0.0002046267,0.0001433661,4,1
0.0002117576,9.717743e-05,4,1
0.0001898788,4.094075e-05,4,1
0.0001273216,-1.691656e-05,4,1
2.262738e-05,-6.926366e-05,4,1
-0.0001208004,-0.0001131834,4,1
-0.0002953447,-0.0001501342,4,1
-0.0004882024,-0.0001835197,4,1
-0.0006799257,-0.0002135018,4,1
-0.000844584,-0.0002345703,4,1
-0.0009507368,-0.0002502906,4,1
-0.0009803947,-0.0002629317,4,1
-0.0009402025,-0.0002708729,4,1
-0.0008549562,-0.0002713591,4,1
-0.0007509103,-0.0002640662,4,1
-0.0006429748,-0.0002496423,4,1
-0.0005394151,-0.0002327876,4,1
-0.0004442827,-0.0002222533,4,1
-0.0003642225,-0.0002243602,4,1
-0.0003003688,-0.0002353806,4,1
-0.0002483458,-0.0002434839,4,1
-0.0001995642,-0.0002423494,4,1
-0.000144462,-0.0002323013,4,1
-7.979791e-05,-0.0002198223,4,1
-1.270286e-05,-0.0002125294,4,1
4.904402e-05,-0.0002130156,4,1
9.652917e-05,-0.0002156086,4,1
0.0001257009,-0.0002104225,4,1
0.0001414213,-0.0001859507,4,1
0.0001600588,-0.0001396,4,1
0.0002005751,-7.688073e-05,4,1
0.0002657254,-1.156841e-05,4,1
0.0003428685,4.402e-05,4,1
0.0004177427,8.453633e-05,4,1
0.0004791655,0.0001067393,4,1
0.0005161164,0.0001051186,4,1
0.000514982,8.259155e-05,4,1
0.0004718725,4.871989e-05,4,1
0.0004021844,1.371378e-05,4,1
0.0003281205,-1.383732e-05,4,1
0.0002634565,-2.971972e-05,4,1
0.0002213195,-3.360929e-05,4,1
0.0002012234,-2.858527e-05,4,1
0.000187772,-1.934754e-05,4,1
0.000158114,-8.002969e-06,4,1
9.669123e-05,6.420843e-06,4,1
7.069105e-06,2.39239e-05,4,1
-9.308726e-05,4.288554e-05,4,1
-0.0001844921,6.119892e-05,4,1
-0.0002506147,8.323981e-05,4,1
-0.0002862691,0.0001153287,4,1
-0.0002937241,0.0001551968,4,1
-0.0002817312,0.0001970097,4,1
-0.0002606628,0.0002370398,4,1
-0.000233922,0.0002760976,4,1
-0.0001938919,0.0003109416,4,1
-0.0001332795,0.000341572,4,1
-4.673658e-05,0.0003678266,4,1
5.082674e-05,0.0003942432,4,1
0.0001436902,0.0004169324,4,1
0.0002239125,0.0004298976,4,1
0.0002942489,0.0004321665,4,1
0.0003597233,0.0004316803,4,1
0.0004133669,0.0004341113,4,1
0.0004417284,0.0004438352,4,1
0.0004276287,0.0004611762,4,1
0.0003675024,0.0004788414,4,1
0.0002713977,0.0004895377,4,1
0.0001658931,0.0004841895,4,1
7.886404e-05,0.0004608521,4,1
2.910999e-05,0.0004242253,4,1
2.441009e-05,0.0003824125,4,1
6.298164e-05,0.000339141,4,1
0.0001261871,0.0002963557,4,1
0.0001856651,0.0002535705,4,1
0.0002132162,0.0002149989,4,1
0.0001820997,0.0001812893,4,1
8.875003e-05,0.0001564933,4,1
-4.268495e-05,0.0001412592,4,1
-0.0001759026,0.0001326697,4,1
-0.0002801106,0.0001224596,4,1
-0.0003473677,0.0001023635,4,1
-0.0003899909,6.573675e-05,4,1
-0.0004172179,1.387585e-05,4,1
-0.0004290486,-4.576419e-05,4,1
-0.0004188385,-0.0001079973,4,1
-0.0003946908,-0.0001676373,4,1
-0.0003720016,-0.0002183637,4,1
-0.0003660052,-0.0002553146,4,1
-0.0003804291,-0.0002783279,4,1
-0.0004016596,-0.0002895104,4,1
-0.0004130042,-0.0002887001,4,1
-0.0003974459,-0.0002773555,4,1
-0.00035304,-0.0002592042,4,1
-0.0002950206,-0.0002417012,4,1
-0.000251263,-0.0002284118,4,1
-0.0002431597,-0.0002225774,4,1
-0.0002718453,-0.0002295462,4,1
-0.0003215994,-0.000251263,4,1
-0.0003690845,-0.0002862691,4,1
-0.0003933943,-0.0003308371,4,1
-0.0003818876,-0.0003807532,4,1
-0.0003358611,-0.0004303451,4,1
-0.0002616352,-0.0004687546,4,1
-0.0001624512,-0.0004888507,4,1
-3.992984e-05,-0.0004841508,4,1
9.53947e-05,-0.0004564377,4,1
0.0002268297,-0.0004110594,4,1
0.000331686,-0.0003535262,4,1
0.0003968363,-0.0002914552,4,1
0.0004180668,-0.000231329,4,1
0.000396188,-0.0001791439,4,1
0.0003245551,-0.000134738,4,1
0.0001963614,-9.438378e-05,4,1
1.97102e-05,-5.613637e-05,4,1
-0.0001677994,-2.064406e-05,4,1
-0.0003225718,1.1769e-05,4,1
-0.0004089525,4.223728e-05,4,1
-0.0004152731,6.83298e-05,4,1
-0.0003491504,8.79397e-05,4,1
-0.0002279256,9.928428e-05,4,1
-6.504996e-05,0.0001062531,4,1
0.0001187321,0.0001137081,4,1
0.0002991108,0.000128456,4,1
0.0004486972,0.0001543865,4,1
0.0005519328,0.0001900409,4,1
0.0006118971,0.0002282883,4,1
0.0006438239,0.000259729,4,1
0.0006720233,0.0002782044,4,1
0.000720805,0.0002785285,4,1
0.0008076721,0.0002613496,4,1
0.0009269523,0.0002355812,4,1
0.001050284,0.0002120818,4,1
0.001143148,0.0001944166,4,1
0.001180099,0.0001830721,4,1
0.00114963,0.0001795066,4,1
0.001057739,0.0001850168,4,1
0.0009318143,0.0001940925,4,1
0.0008008654,0.0002030061,4,1
0.0006819093,0.0002099749,4,1
0.0005749461,0.0002184023,4,1
0.0004696036,0.0002292607,4,1
0.0003585888,0.0002357433,4,1
0.0002339606,0.0002295848,4,1
8.696731e-05,0.0002068957,4,1
-8.239095e-05,0.0001731861,4,1
-0.000261149,0.0001391524,4,1
-0.0004237005,0.0001153287,4,1
-0.0005460597,0.0001041462,4,1
-0.0006165582,0.0001002567,4,1
-0.000640868,9.490851e-05,4,1
-0.0006376266,8.340187e-05,4,1
-0.0006269303,6.638502e-05,4,1
-0.0006207718,4.677511e-05,4,1
-0.0006197995,2.846173e-05,4,1
-0.000613803,1.468618e-05,4,1
-0.0005922483,6.420843e-06,4,1
-0.0005559457,9.106227e-07,4,1
-0.0005115399,-4.437533e-06,4,1
-0.0004706994,-1.383732e-05,4,1
-0.0004355313,-2.826114e-05,4,1
-0.0004094387,-4.349527e-05,4,1
-0.0003920977,-5.937768e-05,4,1
-0.0003833462,-7.914964e-05,4,1
-0.0003867496,-0.0001052422,4,1
-0.0004031182,-0.0001306864,4,1
-0.0004267797,-0.000147055,4,1
-0.0004489826,-0.0001528894,4,1
-0.0004577342,-0.0001512687,4,1
-0.0004476861,-0.0001460826,4,1
-0.0004128421,-0.0001384655,4,1
-0.0003559572,-0.0001282554,4,1
-0.0002831898,-0.0001195039,4,1
-0.0002044261,-0.0001206384,4,1
-0.0001358725,-0.0001323071,4,1
-9.260107e-05,-0.0001468929,4,1
-7.590833e-05,-0.0001606685,4,1
-7.785312e-05,-0.0001806025,4,1
-8.158062e-05,-0.0002201465,4,1
-6.861539e-05,-0.0002801106,4,1
-3.814712e-05,-0.0003475298,4,1
5.86492e-07,-0.0004074939,4,1
4.175109e-05,-0.0004429862,4,1
8.437427e-05,-0.0004471999,4,1
0.0001289422,-0.0004272659,4,1
0.0001726999,-0.0003980942,4,1
0.0002154851,-0.0003666535,4,1
0.0002584324,-0.0003337542,4,1
0.0003017039,-0.0002956689,4,1
0.0003409237,-0.0002506147,4,1
0.0003585888,-0.0002000504,4,1
0.0003360618,-0.0001506204,4,1
0.0002707494,-0.0001058904,4,1
0.0001739964,-6.780507e-05,4,1
6.638502e-05,-3.150244e-05,4,1
-3.069211e-05,5.124321e-06,4,1
-0.0001063766,4.320967e-05,4,1
-0.0001703924,8.161915e-05,4,1
-0.0002441321,0.0001235941,4,1
-0.0003446126,0.0001701068,4,1
-0.0004747511,0.0002117576,4,1
-0.0006248235,0.0002428742,4,1
-0.0007828371,0.0002660495,4,1
-0.0009308027,0.0002905214,4,1
-0.001048624,0.0003224483,4,1
-0.001117826,0.0003634508,4,1
-0.001121878,0.0004117463,4,1
-0.001049435,0.0004666864,4,1
-0.0008975794,0.0005222749,4,1
-0.0006763602,0.0005673291,4,1
-0.0004034423,0.0005929354,4,1
-0.0001058904,0.0005979594,4,1
0.0001871237,0.0005875872,4,1
0.000450642,0.0005726772,4,1
0.0006755888,0.0005653843,4,1
0.0008695811,0.000567005,4,1
0.001052067,0.0005650602,4,1
0.001237146,0.0005405883,4,1
0.00142109,0.0004875929,4,1
0.001587694,0.0004072085,4,1
0.001725936,0.0003128864,4,1
0.001828848,0.0002245608,4,1
0.001890919,0.0001569795,4,1
0.00190275,0.0001145184,4,1
0.001865961,9.16672e-05,4,1
0.001793193,7.870197e-05,4,1
0.001693199,6.444023e-05,4,1
0.001561925,3.996837e-05,4,1
0.00138106,2.369211e-06,4,1
0.001137151,-4.576419e-05,4,1
0.0008384645,-9.422172e-05,4,1
0.0005130371,-0.0001305243,4,1
0.0001963614,-0.0001457585,4,1
-7.720486e-05,-0.0001368449,4,1
-0.0002781658,-0.0001092938,4,1
-0.0003917736,-7.444975e-05,4,1
-0.0004267797,-4.462973e-05,4,1
-0.0004055492,-2.89094e-05,4,1
-0.0003467195,-3.101625e-05,4,1
-0.0002652006,-5.111234e-05,4,1
-0.0001757406,-8.158062e-05,4,1
-9.875954e-05,-0.0001133454,4,1
-5.678463e-05,-0.0001428413,4,1
-6.942573e-05,-0.0001673132,4,1
-0.0001425172,-0.0001865989,4,1
-0.0002593663,-0.0002010227,4,1
-0.0003982562,-0.0002162569,4,1
-0.00053666,-0.0002319772,4,1
-0.0006476747,-0.0002452666,4,1
-0.0007086112,-0.000251101,4,1
-0.0007099077,-0.0002498044,4,1
-0.0006590193,-0.0002447804,4,1
-0.0005773384,-0.0002429977,4,1
-0.0004964678,-0.0002457528,4,1
-0.0004470379,-0.000248832,4,1
-0.000444931,-0.0002444563,4,1
-0.0004818819,-0.0002292221,4,1
-0.0005358497,-0.0002011848,4,1
-0.0005899795,-0.0001637477,4,1
-0.0006403818,-0.0001199901,4,1
-0.0006857601,-7.33153e-05,4,1
-0.0007193076,-3.053005e-05,4,1
-0.0007272488,4.47606e-06,4,1
-0.0006984011,3.202716e-05,4,1
-0.0006364922,4.709924e-05,4,1
-0.0005562698,4.337174e-05,4,1
-0.0004736166,2.246531e-05,4,1
-0.0004013355,-1.173047e-05,4,1
-0.0003472056,-4.965376e-05,4,1
-0.0003057169,-8.40116e-05,4,1
-0.0002558008,-0.0001086455,4,1
-0.0001848162,-0.0001238797,4,1
-9.486997e-05,-0.0001434896,4,1
1.396819e-06,-0.0001828714,4,1
8.583286e-05,-0.0002436459,4,1
0.0001423936,-0.00030831,4,1
0.0001673517,-0.0003574158,4,1
0.0001688103,-0.0003775118,4,1
0.0001519555,-0.0003710293,4,1
0.0001143563,-0.0003478539,4,1
4.191315e-05,-0.0003172236,4,1
-6.650855e-05,-0.0002825416,4,1
-0.0002052365,-0.0002454286,4,1
-0.0003658432,-0.0002138259,4,1
-0.0005358497,-0.0001888679,4,1
-0.0006961322,-0.0001652063,4,1
-0.0008191398,-0.000137007,4,1
-0.0008757006,-0.0001021629,4,1
-0.0008512287,-5.808115e-05,4,1
-0.0007559343,-6.220252e-06,4,1
-0.000613641,5.082674e-05,4,1
-0.0004462276,0.0001080358,4,1
-0.000266173,0.0001545486,4,1
-7.817725e-05,0.0001765894,4,1
0.0001177597,0.0001678379,4,1
0.0003183966,0.0001360731,4,1
0.000512713,9.620504e-05,4,1
0.0006854748,6.800567e-05,4,1
0.0008280924,6.087479e-05,4,1
0.0009449415,7.52986e-05,4,1
0.001045908,0.0001054428,4,1
0.001135855,0.0001443384,4,1
0.001212026,0.0001869616,4,1
0.001259349,0.00022764,4,1
0.001262104,0.0002600531,4,1
0.001220939,0.000284687,4,1
0.001146227,0.0003000832,4,1
0.001047529,0.0003046211,4,1
0.0009230627,0.0002911697,4,1
0.0007734763,0.0002571359,4,1
0.0006039558,0.0002106232,4,1
0.0004273046,0.0001696206,4,1
0.000257298,0.0001547106,4,1
0.0001038221,0.0001769136,4,1
-3.150244e-05,0.00022764,4,1
-0.0001551583,0.0002892249,4,1
-0.000278652,0.000341572,4,1
-0.0004071698,0.000366368,4,1
-0.0005321222,0.000351458,4,1
-0.0006319543,0.0002976523,4,1
-0.0006804119,0.0002182402,4,1
-0.0006578848,0.0001331559,4,1
-0.0005679386,6.071273e-05,4,1
-0.0004439586,1.144487e-05,4,1
-0.0003366714,-9.461558e-06,4,1
-0.0002877277,-8.165035e-06,4,1
-0.0003102548,3.665733e-06,4,1
-0.0003865875,1.193106e-05,4,1
-0.0004736166,1.095867e-05,4,1
-0.0005298533,1.396819e-06,4,1
-0.0005316359,-9.947754e-06,4,1
-0.0004823681,-1.173047e-05,4,1
-0.0004053871,8.689758e-06,4,1
-0.0003274337,5.228533e-05,4,1
-0.0002697385,0.0001012291,4,1
-0.0002357047,0.0001370455,4,1
-0.0002229016,0.0001464453,4,1
-0.0002225774,0.0001281319,4,1
-0.0002250084,8.534666e-05,4,1
-0.0002198223,2.992031e-05,4,1
-0.0001968091,-2.404744e-05,4,1
-0.00015451,-6.197072e-05,4,1
-9.568031e-05,-7.833932e-05,4,1
-3.150244e-05,-7.671866e-05,4,1
2.424803e-05,-7.23429e-05,4,1
5.893001e-05,-7.704279e-05,4,1
7.335383e-05,-9.389759e-05,4,1
7.918817e-05,-0.0001182074,4,1
8.453633e-05,-0.0001423551,4,1
8.712937e-05,-0.0001634236,4,1
8.453633e-05,-0.0001844921,4,1
8.194328e-05,-0.0002159328,4,1
8.356394e-05,-0.0002622834,4,1
9.004655e-05,-0.0003125237,4,1
9.328786e-05,-0.000348016,4,1
8.696731e-05,-0.0003561192,4,1
6.800567e-05,-0.0003319715,4,1
4.175109e-05,-0.0002812451,4,1
2.424803e-05,-0.0002177155,4,1
2.570662e-05,-0.0001575893,4,1
4.758544e-05,-0.0001144799,4,1
8.04847e-05,-9.794922e-05,4,1
0.0001117633,-0.0001076731,4,1
0.0001248906,-0.0001230693,4,1
0.000113546,-0.000119828,4,1
8.712937e-05,-8.482193e-05,4,1
6.395404e-05,-1.918548e-05,4,1
5.698522e-05,6.103686e-05,4,1
7.173317e-05,0.0001399627,4,1
0.000101067,0.0002044647,4,1
0.0001404489,0.000249843,4,1
0.0001861513,0.0002780424,4,1
0.0002318537,0.0002976523,4,1
0.0002679943,0.0003190449,4,1
0.0002858215,0.0003454615,4,1
0.0002827423,0.0003757678,4,1
0.0002696149,0.0004076947,4,1
0.0002666978,0.0004328148,4,1
0.0002876042,0.0004412422,4,1
0.0003226103,0.0004318424,4,1
0.000349027,0.0004133669,4,1
0.000349027,0.0003931088,4,1
0.0003183966,0.0003734989,4,1
0.0002701012,0.0003571303,4,1
0.00022764,0.000344165,4,1
0.0002017096,0.0003307136,4,1
0.0001846927,0.0003127243,4,1
0.0001574657,0.000289549,4,1
0.0001200286,0.0002634565,4,1
8.502253e-05,0.0002409294,4,1
6.541262e-05,0.0002247229,4,1
6.119892e-05,0.0002148369,4,1
5.909208e-05,0.0002021958,4,1
3.818565e-05,0.000175455,4,1
-9.785688e-06,0.000128294,4,1
-6.893953e-05,6.249545e-05,4,1
-0.0001118868,-9.947754e-06,4,1
-0.0001216107,-6.748094e-05,4,1
-0.000104918,-0.0001010285,4,1
-8.611845e-05,-0.0001138316,4,1
-8.384954e-05,-0.0001186936,4,1
-9.827335e-05,-0.0001274451,4,1
-0.0001154523,-0.0001447861,4,1
-0.0001178833,-0.0001702304,4,1
-9.486997e-05,-0.0001961608,4,1
-4.997789e-05,-0.0002157707,4,1
2.369211e-06,-0.0002285739,4,1
4.693717e-05,-0.0002360289,4,1
7.30297e-05,-0.0002376495,4,1
7.416415e-05,-0.0002348944,4,1
4.985435e-05,-0.0002263049,4,1
3.665733e-06,-0.0002104225,4,1
-6.780507e-05,-0.0001906506,4,1
-0.0001729855,-0.0001749302,4,1
-0.000305879,-0.0001674752,4,1
-0.0004431483,-0.0001661787,4,1
-0.0005598353,-0.0001656925,4,1
-0.0006395715,-0.0001622891,4,1
-0.0006698776,-0.0001564548,4,1
-0.0006471885,-0.0001501342,4,1
-0.0005825245,-0.0001452723,4,1
-0.0004930644,-0.0001425172,4,1
-0.0003956632,-0.0001410586,4,1
-0.0002990722,-0.0001405724,4,1
-0.0002042641,-0.0001499722,4,1
-0.0001083214,-0.0001760647,4,1
-1.075808e-05,-0.0002172293,4,1
8.242948e-05,-0.0002621213,4,1
0.0001670276,-0.0002985861,4,1
0.0002488706,-0.000318196,4,1
0.0003336308,-0.0003141443,4,1
0.0004286011,-0.0002891863,4,1
0.0005386435,-0.000253694,4,1
0.0006561409,-0.0002156086,4,1
0.000765373,-0.0001763888,4,1
0.0008455954,-0.0001366828,4,1
0.0008809257,-9.827335e-05,4,1
0.0008700673,-6.099833e-05,4,1
0.0008240407,-2.955766e-05,4,1
0.0007619697,-5.409925e-06,4,1
0.0006898505,1.063454e-05,4,1
0.0006083316,1.906194e-05,4,1
0.0005086614,2.619281e-05,4,1
0.0003901916,3.883391e-05,4,1
0.0002637806,6.379197e-05,4,1
0.0001477418,0.0001004187,4,1
6.168512e-05,0.0001479039,4,1
2.522042e-05,0.0002012234,4,1
4.72613e-05,0.000252436,4,1
0.0001221355,0.0002931144,4,1
0.0002266676,0.0003209897,4,1
0.0003303894,0.0003409237,4,1
0.0004039671,0.000361506,4,1
0.0004294114,0.0003890571,4,1
0.0004007258,0.0004239012,4,1
0.0003253654,0.0004637693,4,1
0.0002187264,0.000500234,4,1
0.0001078737,0.0005216266,4,1
1.954813e-05,0.0005253541,4,1
-3.749886e-05,0.0005128751,4,1
-7.833932e-05,0.0004939134,4,1
-0.0001251762,0.0004700898,4,1
-0.0001893541,0.000433301,4,1
-0.0002674695,0.0003749574,4,1
-0.000348016,0.0002978143,4,1
-0.0004162455,0.0002188885,4,1
-0.0004614617,0.0001579519,4,1
-0.0004810716,0.0001260251,4,1
-0.0004805854,0.0001214872,4,1
-0.0004716718,0.0001312112,4,1
-0.0004681064,0.0001412592,4,1
-0.0004703753,0.0001433661,4,1
-0.0004786406,0.0001341283,4,1
-0.0004956574,0.0001098185,4,1
-0.0005258016,6.816773e-05,4,1
-0.0005669662,1.387585e-05,4,1
-0.0006091032,-4.203669e-05,4,1
-0.0006395715,-9.000802e-05,4,1
-0.0006467023,-0.0001258245,4,1
-0.000618503,-0.000152079,4,1
-0.0005518941,-0.0001724993,4,1
-0.000449793,-0.0001934057,4,1
-0.0003190063,-0.0002199844,4,1
-0.0001791439,-0.0002519113,4,1
-6.164659e-05,-0.0002882139,4,1
3.179537e-06,-0.0003227338,4,1
5.772582e-06,-0.0003544986,4,1
-4.38194e-05,-0.0003835083,4,1
-0.0001157764,-0.00041268,4,1
-0.0001763888,-0.000444931,4,1
-0.000201671,-0.0004799371,4,1
-0.0001887058,-0.0005129984,4,1
-0.0001496481,-0.0005389289,4,1
-0.0001036215,-0.0005525423,4,1
-6.780507e-05,-0.0005434667,4,1
-5.159854e-05,-0.0005053814,4,1
-5.370539e-05,-0.000439907,4,1
-6.699475e-05,-0.0003608192,4,1
-7.995997e-05,-0.0002862691,4,1
-8.287715e-05,-0.0002282497,4,1
-7.590833e-05,-0.0001937298,4,1
-6.278104e-05,-0.0001809267,4,1
-4.155049e-05,-0.0001789819,4,1
-5.57199e-06,-0.0001741199,4,1
4.871989e-05,-0.0001601823,4,1
0.000113384,-0.0001430034,4,1
0.0001736723,-0.0001318209,4,1
0.0002158093,-0.0001302002,4,1
0.0002321778,-0.0001397621,4,1
0.0002286124,-0.0001527273,4,1
0.0002158093,-0.0001605064,4,1
0.0002049509,-0.0001567789,4,1
0.0002017096,-0.0001387897,4,1
0.0002115956,-0.0001130213,4,1
0.00022764,-8.790117e-05,4,1
0.0002354192,-7.153257e-05,4,1
0.0002326641,-6.974985e-05,4,1
0.0002269918,-7.914964e-05,4,1
0.0002153231,-8.563225e-05,4,1
0.0001882582,-7.55842e-05,4,1
0.0001368834,-4.576419e-05,4,1
6.346784e-05,-8.720959e-07,4,1
-2.680255e-05,4.936815e-05,4,1
-0.000117235,9.26396e-05,4,1
-0.0001840059,0.0001180839,4,1
-0.0002021572,0.0001269974,4,1
-0.0001551583,0.0001300767,4,1
-4.965376e-05,0.0001344524,4,1
8.42122e-05,0.0001449867,4,1
0.0002080301,0.0001637863,4,1
0.0003030004,0.0001874478,4,1
0.0003692851,0.0002138645,4,1
0.0004117463,0.0002397949,4,1
0.0004310321,0.0002639427,4,1
0.000426008,0.0002827423,4,1
0.0003910019,0.0002966799,4,1
0.0003154794,0.0003075383,4,1
0.0001971717,0.0003182346,4,1
4.515445e-05,0.0003329825,4,1
-0.0001230693,0.0003493511,4,1
-0.0002820554,0.0003636129,4,1
-0.0004136524,0.0003747954,4,1
-0.0005074882,0.0003856538,4,1
-0.0005630766,0.0003973225,4,1
-0.000586252,0.000406074,4,1
-0.0005935449,0.0004098015,4,1
-0.0006133168,0.0004086671,4,1
-0.0006651777,0.0004049396,4,1
-0.0007324349,0.0003981328,4,1
-0.0007719788,0.000383709,4,1
-0.000745238,0.000361506,4,1
-0.0006376266,0.0003308757,4,1
-0.0004638926,0.0002914938,4,1
-0.0002541802,0.0002475741,4,1
-3.668853e-05,0.0002038164,4,1
0.0001756171,0.0001696206,4,1
0.0003793332,0.0001537382,4,1
0.00057446,0.0001539003,4,1
0.0007619697,0.0001592484,4,1
0.0009413761,0.0001602208,4,1
0.001111383,0.0001540623,4,1
0.001263238,0.0001464453,4,1
0.001382519,0.0001451488,4,1
0.001452531,0.0001470936,4,1
0.001462579,0.0001389903,4,1
0.001414121,0.0001078737,4,1
0.001316558,4.742337e-05,4,1
0.001185933,-3.377136e-05,4,1
0.00103586,-0.0001169109,4,1
0.0008759017,-0.0001831956,4,1
0.0007101087,-0.0002233878,4,1
0.0005370228,-0.0002434839,4,1
0.0003542131,-0.0002532078,4,1
0.000160545,-0.000261311,4,1
-3.474375e-05,-0.0002694143,4,1
-0.0002156086,-0.0002773555,4,1
-0.0003736223,-0.0002865932,4,1
-0.0005112157,-0.0002972895,4,1
-0.0006308199,-0.0003097686,4,1
-0.0007287074,-0.000318358,4,1
-0.000789806,-0.0003188442,4,1
-0.0007956403,-0.0003102548,4,1
-0.0007372968,-0.0002925897,4,1
-0.0006262821,-0.0002697385,4,1
-0.0004974402,-0.0002493182,4,1
-0.0003909633,-0.0002358668,4,1
-0.0003337542,-0.0002295462,4,1
-0.0003271096,-0.000226467,4,1
-0.0003499608,-0.0002178775,4,1
-0.0003760533,-0.0002028055,4,1
-0.0003862634,-0.0001857886,4,1
-0.0003799429,-0.0001736337,4,1
-0.0003640605,-0.0001676373,4,1
-0.0003403989,-0.000164396,4,1
-0.0003118754,-0.0001579134,4,1
-0.0002888622,-0.0001467309,4,1
-0.0002763831,-0.0001340898,4,1
-0.0002757348,-0.0001267968,4,1
-0.0002830278,-0.0001258245,4,1
-0.0002938862,-0.0001227452,4,1
-0.0003027998,-0.0001063766,4,1
-0.0003045825,-7.363943e-05,4,1
-0.0002911311,-2.696461e-05,4,1
-0.0002509389,2.943412e-05,4,1
-0.0001784957,9.377406e-05,4,1
-8.417367e-05,0.0001611932,4,1
9.66215e-06,0.0002234263,4,1
7.789165e-05,0.000272208,4,1
0.0001125736,0.0003059176,4,1
0.0001169494,0.0003245551,4,1
9.458438e-05,0.0003311998,4,1
4.969229e-05,0.0003279585,4,1
-1.886135e-05,0.0003180725,4,1
-0.0001060525,0.0003041349,4,1
-0.0002011848,0.000289549,4,1
-0.0002872415,0.0002762596,4,1
-0.0003418575,0.0002678322,4,1
-0.000350609,0.000264753,4,1
-0.000310903,0.0002634565,4,1
-0.0002327876,0.0002615117,4,1
-0.0001225832,0.0002619979,4,1
9.175954e-06,0.0002608634,4,1
0.0001412592,0.0002477361,4,1
0.000247412,0.0002138645,4,1
0.000316938,0.0001618415,4,1
0.0003501615,0.0001028497,4,1
0.0003571303,5.585077e-05,4,1
0.0003503235,3.429608e-05,4,1
0.0003371962,3.510641e-05,4,1
0.0003161277,4.77475e-05,4,1
0.0002829043,6.006447e-05,4,1
0.0002396328,6.816773e-05,4,1
0.0001947408,7.319176e-05,4,1
0.0001611932,7.610894e-05,4,1
0.0001430419,7.999851e-05,4,1
0.0001368834,8.567078e-05,4,1
0.0001355869,9.004655e-05,4,1
0.0001287802,8.907416e-05,4,1
0.0001056048,7.935024e-05,4,1
6.298164e-05,5.860588e-05,4,1
9.500085e-06,2.910999e-05,4,1
-4.236082e-05,-1.520357e-06,4,1
-8.676672e-05,-2.712668e-05,4,1
-0.0001292278,-4.349527e-05,4,1
-0.0001755785,-5.32192e-05,4,1
-0.0002248464,-5.743289e-05,4,1
-0.0002718453,-5.402952e-05,4,1
-0.000315765,-4.608832e-05,4,1
-0.0003561192,-3.798505e-05,4,1
-0.0003859393,-3.539201e-05,4,1
-0.0003932322,-4.106429e-05,4,1
-0.0003687603,-5.872941e-05,4,1
-0.0003115513,-8.692878e-05,4,1
-0.0002368392,-0.0001180453,4,1
-0.00016942,-0.0001442999,4,1
-0.0001285796,-0.0001614788,4,1
-0.0001138316,-0.000174282,4,1
-0.0001071869,-0.0001853024,4,1
-7.688073e-05,-0.0001958367,4,1
1.063454e-05,-0.0002058847,4,1
0.0001676758,-0.0002147983,4,1
0.0003790091,-0.0002224154,4,1
0.0006096281,-0.0002274394,4,1
0.0008199891,-0.0002282497,4,1
0.0009898337,-0.0002271153,4,1
0.001117704,-0.0002251705,4,1
0.001206029,-0.000221605,4,1
0.00125157,-0.0002138259,4,1
0.001254973,-0.0001995642,4,1
0.001222236,-0.0001814128,4,1
0.001162271,-0.0001645581,4,1
0.00107508,-0.0001481895,4,1
0.0009642274,-0.0001329553,4,1
0.0008415438,-0.0001199901,4,1
0.0007143224,-0.0001088076,4,1
0.0005765668,-9.762509e-05,4,1
0.0004192013,-7.461182e-05,4,1
0.0002472499,-3.085418e-05,4,1
7.740546e-05,3.299956e-05,4,1
-7.509801e-05,0.0001007429,4,1
-0.0002029675,0.0001563313,4,1
-0.0003110651,0.0001872858,4,1
-0.0004058733,0.0001918236,4,1
-0.0004856094,0.0001765894,4,1
-0.0005449253,0.0001516314,4,1
-0.0005844692,0.0001266733,4,1
-0.0006123445,0.0001101427,4,1
-0.000638599,0.0001028497,4,1
-0.0006638812,0.000105929,4,1
-0.0006773326,0.0001156529,4,1
-0.0006714982,0.0001274836,4,1
-0.0006398956,0.0001365593,4,1
-0.0005807417,0.0001441764,4,1
-0.0005000332,0.0001516314,4,1
-0.0004068457,0.0001577899,4,1
-0.0003047445,0.0001613553,4,1
-0.0001985918,0.0001611932,4,1
-9.29252e-05,0.0001626518,4,1
6.096713e-06,0.0001689724,4,1
8.972242e-05,0.0001799928,4,1
0.0001363972,0.0001918236,4,1
0.000113384,0.0001936063,4,1
3.827799e-06,0.0001814514,4,1
-0.0001736337,0.0001548727,4,1
-0.0003768636,0.0001221355,4,1
-0.0005580526,9.328786e-05,4,1
-0.0006766844,7.772959e-05,4,1
-0.0007136352,7.886404e-05,4,1
-0.000673281,9.571884e-05,4,1
-0.0005830107,0.0001226217,4,1
-0.0004757234,0.0001514693,4,1
-0.0003744326,0.0001746447,4,1
-0.0002857829,0.0001846927,4,1
-0.0002037779,0.0001825859,4,1
-0.0001284175,0.000177886,4,1
-7.299116e-05,0.0001798307,4,1
-5.338126e-05,0.000185341,4,1
-6.958779e-05,0.0001874478,4,1
-0.0001084835,0.0001806411,4,1
-0.0001467309,0.0001626518,4,1
-0.000161965,0.0001367214,4,1
-0.0001405724,0.0001077117,4,1
-8.255302e-05,7.173317e-05,4,1
-3.14101e-06,1.533444e-05,4,1
7.076078e-05,-7.104638e-05,4,1
0.0001226217,-0.0001802784,4,1
0.0001521176,-0.0002917793,4,1
0.0001824238,-0.0003835083,4,1
0.000242388,-0.0004376381,4,1
0.0003438409,-0.0004455793,4,1
0.0004686312,-0.0004162455,4,1
0.000582077,-0.0003734602,4,1
0.0006486859,-0.0003447747,4,1
0.0006499824,-0.000342992,4,1
0.0005952043,-0.0003651949,4,1
0.0005096338,-0.000395339,4,1
0.0004170944,-0.0004147869,4,1
0.0003303894,-0.0004120317,4,1
0.0002582704,-0.0003831841,4,1
0.0002047888,-0.0003345645,4,1
0.0001621656,-0.0002780038,4,1
0.0001174356,-0.0002220912,4,1
5.828175e-05,-0.0001728234,4,1
-1.545797e-05,-0.0001300382,4,1
-9.956988e-05,-9.551824e-05,4,1
-0.0001859507,-6.423963e-05,4,1
-0.0002650386,-3.182657e-05,4,1
-0.0003264613,2.531276e-06,4,1
-0.0003613053,3.834771e-05,4,1
-0.0003674638,7.805372e-05,4,1
-0.0003522297,0.0001239182,4,1
-0.0003285682,0.0001782101,4,1
-0.0003092824,0.000235095,4,1
-0.0002969654,0.0002848491,4,1
-0.0002828657,0.0003182346,4,1
-0.0002583939,0.0003324963,4,1
-0.0002194982,0.0003358997,4,1
-0.0001658546,0.0003404375,4,1
-0.0001041077,0.0003558337,4,1
-4.187462e-05,0.0003749574,4,1
1.290346e-05,0.0003822504,4,1
5.504044e-05,0.0003662059,4,1
8.291568e-05,0.0003245551,4,1
9.701536e-05,0.0002665357,4,1
0.0001020394,0.0002096508,4,1
0.0001017153,0.0001696206,4,1
9.798775e-05,0.000153252,4,1
9.134307e-05,0.0001568175,4,1
8.032264e-05,0.0001683241,4,1
6.670914e-05,0.0001796687,4,1
5.860588e-05,0.0001856651,4,1
6.281957e-05,0.0001859892,4,1
7.724339e-05,0.000178048,4,1
9.782569e-05,0.0001615174,4,1
0.0001166253,0.0001351007,4,1
0.0001271595,9.555677e-05,4,1
0.0001287802,4.02925e-05,4,1
0.0001211631,-2.177852e-05,4,1
0.0001072255,-7.55842e-05,4,1
9.101894e-05,-0.0001120489,4,1
7.30297e-05,-0.0001285796,4,1
4.693717e-05,-0.0001269589,4,1
5.124321e-06,-0.0001109144,4,1
-6.586029e-05,-8.757704e-05,4,1
-0.0001755785,-6.261898e-05,4,1
-0.0003290543,-4.009191e-05,4,1
-0.0005173742,-2.031993e-05,4,1
-0.0007209282,-3.465141e-06,4,1
-0.0009095722,1.112074e-05,4,1
-0.001049435,2.667901e-05,4,1
-0.00110875,4.369587e-05,4,1
-0.001070503,5.893001e-05,4,1
-0.0009361509,6.751948e-05,4,1
-0.0007282211,6.751948e-05,4,1
-0.0004804233,5.876794e-05,4,1
-0.0002305186,4.35338e-05,4,1
-7.678839e-06,2.278944e-05,4,1
0.0001756171,5.86492e-07,4,1
0.0003211517,-2.145439e-05,4,1
0.0004417284,-4.43056e-05,4,1
0.0005516087,-7.55842e-05,4,1
0.000659058,-0.0001203142,4,1
0.0007707212,-0.0001786577,4,1
0.0008882187,-0.0002400805,4,1
0.001003609,-0.0002946965,4,1
0.001101983,-0.0003369955,4,1
0.001166161,-0.0003645466,4,1
0.001186419,-0.0003750809,4,1
0.001157247,-0.0003687603,4,1
0.001077673,-0.000345585,4,1
0.0009558,-0.0003100927,4,1
0.0008060515,-0.0002695764,4,1
0.000643986,-0.0002331117,4,1
0.000478031,-0.0002073433,4,1
0.0003183966,-0.0001877334,4,1
0.000185341,-0.0001656925,4,1
9.53947e-05,-0.0001394379,4,1
4.418206e-05,-0.0001141558,4,1
7.879432e-06,-9.713889e-05,4,1
-4.155049e-05,-8.952183e-05,4,1
-0.0001180453,-9.017008e-05,4,1
-0.0002151224,-9.713889e-05,4,1
-0.0003196545,-0.0001037836,4,1
-0.0004224039,-0.0001015147,4,1
-0.0005133225,-8.482193e-05,4,1
-0.0005742591,-5.208474e-05,4,1
-0.0005834968,-7.678839e-06,4,1
-0.0005321222,3.964424e-05,4,1
-0.0004337485,7.967438e-05,4,1
-0.0003225718,0.0001078737,4,1
-0.0002465631,0.0001240803,4,1
-0.0002344082,0.000130725,4,1
-0.0002750866,0.000130887,4,1
-0.0003274337,0.0001287802,4,1
-0.0003489884,0.0001278078,4,1
-0.0003172236,0.0001294284,4,1
-0.0002355427,0.0001287802,4,1
-0.0001204763,0.0001231079,4,1
4.47606e-06,0.0001120874,4,1
0.0001177597,0.0001007429,4,1
0.0001892305,9.442231e-05,4,1
0.0001872858,9.085688e-05,4,1
0.0001047945,8.858796e-05,4,1
-2.194059e-05,8.875003e-05,4,1
-0.0001394379,9.733949e-05,4,1
-0.0002088019,0.0001161391,4,1
-0.0002162569,0.0001414213,4,1
-0.000166989,0.0001645966,4,1
-7.704279e-05,0.0001796687,4,1
3.721326e-05,0.0001890685,4,1
0.0001563313,0.0002013854,4,1
0.0002662116,0.0002209954,4,1
0.0003603715,0.0002448189,4,1
0.0004439973,0.0002679943,4,1
0.0005328091,0.0002884145,4,1
0.0006373413,0.0003060797,4,1
0.0007475458,0.0003209897,4,1
0.0008332785,0.0003284447,4,1
0.0008538608,0.0003245551,4,1
0.0007838485,0.0003075383,4,1
0.0006328035,0.0002754493,4,1
0.0004435111,0.0002295848,4,1
0.0002662116,0.000178048,4,1
0.0001341283,0.0001354248,4,1
5.844381e-05,0.0001120874,4,1
3.802358e-05,0.0001081979,4,1
5.487838e-05,0.0001175977,4,1
7.6271e-05,0.0001310491,4,1
7.513654e-05,0.0001423936,4,1
3.996837e-05,0.0001495245,4,1
-1.740276e-05,0.0001509831,4,1
-7.542214e-05,0.0001449867,4,1
-0.0001151281,0.0001269974,4,1
-0.0001292278,9.344993e-05,4,1
-0.0001110765,4.871989e-05,4,1
-6.132246e-05,1.234753e-06,4,1
9.66215e-06,-4.009191e-05,4,1
8.46984e-05,-6.861539e-05,4,1
0.0001396385,-8.336335e-05,4,1
0.0001621656,-8.903562e-05,4,1
0.0001608691,-9.19528e-05,4,1
0.0001569795,-0.0001018388,4,1
0.0001733481,-0.0001235555,4,1
0.000215161,-0.0001541859,4,1
0.0002709115,-0.0001874093,4,1
0.0003149933,-0.0002173914,4,1
0.0003162898,-0.0002379736,4,1
0.0002538946,-0.000246401,4,1
0.0001244044,-0.0002459149,4,1
-5.386745e-05,-0.0002379736,4,1
-0.0002514251,-0.0002201465,4,1
-0.0004337485,-0.0001977815,4,1
-0.000571342,-0.0001755785,4,1
-0.0006465403,-0.0001583996,4,1
-0.000645892,-0.0001462447,4,1
-0.0005645352,-0.0001373311,4,1
-0.0004269418,-0.0001293899,4,1
-0.0002852967,-0.0001248521,4,1
-0.0001951884,-0.0001264727,4,1
-0.000186761,-0.0001326312,4,1
-0.0002494803,-0.0001483515,4,1
-0.0003473677,-0.000176713,4,1
-0.0004386105,-0.0002146363,4,1
-0.0004919299,-0.0002530457,4,1
-0.0004940368,-0.0002794623,4,1
-0.0004531963,-0.0002852967,4,1
-0.0003942046,-0.0002734659,4,1
-0.000340561,-0.0002493182,4,1
-0.0003057169,-0.0002258187,4,1
-0.0002924276,-0.000208964,4,1
-0.0002948586,-0.0001961608,4,1
-0.0003081479,-0.0001818991,4,1
-0.0003259751,-0.0001608306,4,1
-0.0003446126,-0.0001300382,4,1
-0.0003643846,-9.227693e-05,4,1
-0.0003796187,-5.111234e-05,4,1
-0.0003861013,-1.270286e-05,4,1
-0.0003752429,2.165498e-05,4,1
-0.0003444506,5.487838e-05,4,1
-0.0002990722,9.150514e-05,4,1
-0.0002532078,0.0001289422,4,1
-0.0002167431,0.0001590864,4,1
-0.0001909747,0.0001720516,4,1
-0.000171851,0.0001658931,4,1
-0.0001515928,0.0001527658,4,1
-0.0001180453,0.000145797,4,1
-6.715681e-05,0.0001551968,4,1
-5.89612e-06,0.0001819376,4,1
5.698522e-05,0.0002190506,4,1
0.0001140322,0.0002594049,4,1
0.000158114,0.0002966799,4,1
0.0001840444,0.0003271482,4,1
0.0001900409,0.0003532407,4,1
0.0001791825,0.0003725265,4,1
0.0001634622,0.0003825745,4,1
0.0001548727,0.0003864641,4,1
0.0001592484,0.00038614,4,1
0.0001761032,0.0003846814,4,1
0.0002008992,0.0003833848,4,1
0.0002216436,0.0003820883,4,1
0.0002261814,0.0003790091,4,1
0.000205275,0.0003712299,4,1
0.0001637863,0.0003470822,4,1
0.0001188942,0.0002981384,4,1
8.291568e-05,0.0002333123,4,1
6.444023e-05,0.0001751309,4,1
6.427817e-05,0.000138342,4,1
7.6271e-05,0.0001265113,4,1
8.777764e-05,0.000125863,4,1
8.84259e-05,0.0001120874,4,1
7.67572e-05,5.811968e-05,4,1
5.698522e-05,-4.576419e-05,4,1
3.98063e-05,-0.0001835197,4,1
3.98063e-05,-0.0003168994,4,1
6.152305e-05,-0.0004071698,4,1
9.701536e-05,-0.0004365036,4,1
0.0001300767,-0.0004121938,4,1
0.0001475797,-0.0003570916,4,1
0.0001453108,-0.0002976137,4,1
0.0001266733,-0.0002467252,4,1
9.26396e-05,-0.0002068571,4,1
4.369587e-05,-0.0001749302,4,1
-9.299493e-06,-0.0001491618,4,1
-4.738484e-05,-0.0001267968,4,1
-5.548811e-05,-0.0001065387,4,1
-3.020592e-05,-8.968389e-05,4,1
1.760335e-05,-7.866345e-05,4,1
6.914012e-05,-7.18567e-05,4,1
0.0001093323,-6.553616e-05,4,1
0.0001370455,-5.516398e-05,4,1
0.0001615174,-4.300908e-05,4,1
0.0001902029,-3.020592e-05,4,1
0.0002255332,-1.983374e-05,4,1
0.0002660495,-1.399939e-05,4,1
0.0003055935,-1.108221e-05,4,1
0.0003412479,-6.382317e-06,4,1
0.0003670162,1.031041e-05,4,1
0.0003765781,4.288554e-05,4,1
0.0003700955,9.037068e-05,4,1
0.0003438409,0.0001475797,4,1
0.0002944109,0.0002057612,4,1
0.0002265056,0.0002534084,4,1
0.0001550348,0.0002816078,4,1
9.604298e-05,0.0002965178,4,1
5.309566e-05,0.0003102934,4,1
1.484824e-05,0.0003282826,4,1
-3.798505e-05,0.0003431926,4,1
-0.0001115627,0.0003381686,4,1
-0.0001956746,0.0002971661,4,1
-0.0002755728,0.000225047,4,1
-0.0003353749,0.0001417454,4,1
-0.000372974,6.849186e-05,4,1
-0.0003963114,2.197911e-05,4,1
-0.0004178661,4.313994e-06,4,1
-0.0004450931,6.258778e-06,4,1
-0.0004753993,1.1769e-05,4,1
-0.0004914437,6.258778e-06,4,1
-0.0004715097,-1.643037e-05,4,1
-0.0004131662,-5.176061e-05,4,1
-0.00033813,-8.676672e-05,4,1
-0.0002752487,-0.0001096179,4,1
-0.0002392702,-0.0001125351,4,1
-0.000224036,-9.276313e-05,4,1
-0.0002057227,-5.69467e-05,4,1
-0.0001614788,-1.399939e-05,4,1
-8.109443e-05,2.81376e-05,4,1
3.640293e-05,6.055066e-05,4,1
0.0001837203,7.805372e-05,4,1
0.0003443271,7.951231e-05,4,1
0.0004882411,6.703327e-05,4,1
0.0005900182,4.693717e-05,4,1
0.0006422033,2.068259e-05,4,1
0.0006522514,-9.947754e-06,4,1
0.0006362069,-4.38194e-05,4,1
0.0006175694,-8.384954e-05,4,1
0.0006211348,-0.0001323071,4,1
0.0006577615,-0.0001848162,4,1
0.0007216153,-0.0002303566,4,1
0.0007885484,-0.000261149,4,1
0.0008258235,-0.000281083,4,1
0.0008110755,-0.000301017,4,1
0.0007475458,-0.0003272716,4,1
0.0006574374,-0.0003523917,4,1
0.0005687877,-0.0003656811,4,1
0.0005057442,-0.0003582261,4,1
0.0004770586,-0.0003267854,4,1
0.0004814344,-0.0002775176,4,1
0.0005070407,-0.0002254946,4,1
0.0005303781,-0.0001812508,4,1
0.0005203301,-0.0001485136,4,1
0.0004568005,-0.0001255003,4,1
0.0003376824,-0.0001054042,4,1
0.0001820997,-8.125649e-05,4,1
2.165498e-05,-5.370539e-05,4,1
-0.0001165867,-2.518189e-05,4,1
-0.0002162569,4.244267e-07,4,1
-0.0002783279,2.214118e-05,4,1
-0.0003115513,4.061663e-05,4,1
-0.0003287302,5.633696e-05,4,1
-0.000333106,7.270556e-05,4,1
-0.0003241924,8.988449e-05,4,1
-0.0003031239,0.0001043083,4,1
-0.0002793003,0.0001094944,4,1
-0.0002634179,0.0001041462,4,1
-0.0002705488,8.972242e-05,4,1
-0.0003065273,6.930219e-05,4,1
-0.0003632501,5.017848e-05,4,1
-0.0004235384,3.591673e-05,4,1
-0.0004710235,2.505836e-05,4,1
-0.0005000332,1.387585e-05,4,1
-0.0005151053,1.883015e-06,4,1
-0.00052175,-1.189254e-05,4,1
-0.0005176983,-2.534396e-05,4,1
-0.0004995471,-3.377136e-05,4,1
-0.0004687546,-3.668853e-05,4,1
-0.0004390967,-3.539201e-05,4,1
-0.0004241867,-3.21507e-05,4,1
-0.0004295348,-2.761287e-05,4,1
-0.0004536825,-2.258885e-05,4,1
-0.0004882024,-2.242678e-05,4,1
-0.0005261258,-2.84232e-05,4,1
-0.0005580526,-4.203669e-05,4,1
-0.0005723144,-5.905355e-05,4,1
-0.0005596732,-7.120844e-05,4,1
-0.0005147812,-7.088431e-05,4,1
-0.0004455793,-5.59743e-05,4,1
-0.0003708672,-2.955766e-05,4,1
-0.0003143064,-4.599598e-06,4,1
-0.0002917793,7.393236e-06,4,1
-0.0002993964,1.558884e-06,4,1
-0.0003188442,-1.918548e-05,4,1
-0.0003334301,-4.284701e-05,4,1
-0.0003340784,-5.354332e-05,4,1
-0.0003152788,-4.398147e-05,4,1
-0.0002815692,-1.578211e-05,4,1
-0.0002407288,2.586868e-05,4,1
-0.000201509,7.432621e-05,4,1
-0.0001729855,0.0001232699,4,1
-0.0001600202,0.0001633001,4,1
-0.000159372,0.0001866375,4,1
-0.000161965,0.0001898788,4,1
-0.0001583996,0.0001759412,4,1
-0.0001413827,0.0001493625,4,1
-0.0001104282,0.0001195424,4,1
-6.926366e-05,9.669123e-05,4,1
-2.226472e-05,8.939829e-05,4,1
2.927205e-05,9.523264e-05,4,1
8.567078e-05,0.0001041462,4,1
0.0001488763,0.000106091,4,1
0.0002234263,9.977047e-05,4,1
0.0003036487,9.037068e-05,4,1
0.0003781987,9.21534e-05,4,1
0.0004388112,0.0001124116,4,1
0.0004752759,0.0001511452,4,1
0.000477869,0.0001966855,4,1
0.0004444835,0.0002363916,4,1
0.0003777126,0.0002689667,4,1
0.0002861456,0.0002974902,4,1
0.0001817755,0.000326824,4,1
7.90261e-05,0.0003613439,4,1
-8.813297e-06,0.0004034809,4,1
-7.282909e-05,0.0004486972,4,1
-0.0001058904,0.0004837033,4,1
-0.0001118868,0.0004901859,4,1
-9.681477e-05,0.0004602039,4,1
-6.537409e-05,0.0004018603,4,1
-2.129233e-05,0.0003405996,4,1
2.846173e-05,0.0002991108,4,1
6.78436e-05,0.0002877662,4,1
7.513654e-05,0.0002987867,4,1
4.175109e-05,0.0003127243,4,1
-2.258885e-05,0.0003051073,4,1
-9.065628e-05,0.0002600531,4,1
-0.0001349001,0.0001845306,4,1
-0.0001447861,9.750156e-05,4,1
-0.0001177212,1.954813e-05,4,1
-4.770897e-05,-3.68506e-05,4,1
6.865393e-05,-7.218083e-05,4,1
0.0002261814,-9.098041e-05,4,1
0.0004028327,-9.843541e-05,4,1
0.0005644119,-0.0001007043,4,1
0.000685961,-0.0001060525,4,1
0.0007626179,-0.0001177212,4,1
0.0008044308,-0.0001418689,4,1
0.0008303613,-0.0001838438,4,1
0.0008585607,-0.0002392702,4,1
0.0008959978,-0.000301017,4,1
0.0009267902,-0.00035304,4,1
0.000926304,-0.0003854531,4,1
0.00088676,-0.000400039,4,1
0.0008207994,-0.0004029561,4,1
0.0007433321,-0.0003942046,4,1
0.0006509548,-0.0003724878,4,1
0.0005243817,-0.00033813,4,1
0.0003443271,-0.0002953447,4,1
0.0001072255,-0.0002494803,4,1
-0.0001624512,-0.0002029675,4,1
-0.0004152731,-0.000159534,4,1
-0.0006091032,-0.0001225832,4,1
-0.0007319486,-9.260107e-05,4,1
-0.0007958024,-6.81292e-05,4,1
-0.000814602,-5.176061e-05,4,1
-0.000784944,-4.398147e-05,4,1
-0.0006932151,-4.317115e-05,4,1
-0.0005374703,-4.544006e-05,4,1
-0.0003415334,-4.673658e-05,4,1
-0.000144462,-5.062615e-05,4,1
2.829966e-05,-5.937768e-05,4,1
0.0001757791,-6.926366e-05,4,1
0.0003109416,-7.574627e-05,4,1
0.0004435111,-7.914964e-05,4,1
0.0005644119,-8.725291e-05,4,1
0.0006577615,-0.0001067007,4,1
0.0007122156,-0.0001426792,4,1
0.0007248566,-0.0001870851,4,1
0.0007052467,-0.0002251705,4,1
0.0006689441,-0.0002467252,4,1
0.0006349103,-0.000246401,4,1
0.0006144901,-0.0002276015,4,1
0.0006102764,-0.000209126,4,1
0.0006169211,-0.0002133397,4,1
0.0006222692,-0.0002449425,4,1
0.0006180556,-0.0002870794,4,1
0.0006075213,-0.0003091203,4,1
0.0005958526,-0.0002938862,4,1
0.000572029,-0.0002384598,4,1
0.0005122268,-0.0001543479,4,1
0.00040105,-6.083626e-05,4,1
0.0002419018,2.603075e-05,4,1
5.698522e-05,9.442231e-05,4,1
-0.0001277692,0.0001436902,4,1
-0.0002937241,0.000178048,4,1
-0.0004379622,0.000202682,4,1
-0.0005658317,0.0002188885,4,1
-0.000688191,0.0002248849,4,1
-0.0008011505,0.000222616,4,1
-0.0008904485,0.0002192126,4,1
-0.0009398784,0.0002209954,4,1
-0.0009418232,0.0002315296,4,1
-0.0008920691,0.0002514636,4,1
-0.0007980713,0.0002773941,4,1
-0.0006839773,0.0003085106,4,1
-0.0005820383,0.0003472443,4,1
-0.0005329325,0.0003978086,4,1
-0.0005697213,0.0004589073,4,1
-0.0006875428,0.000520168,4,1
-0.0008428013,0.0005708945,4,1
-0.0009701846,0.0006039558,4,1
-0.001024476,0.0006204865,4,1
-0.0009996805,0.0006251864,4,1
-0.0009126515,0.0006229175,4,1
-0.0007844578,0.0006149763,4,1
-0.0006355198,0.0006059006,4,1
-0.0004791268,0.0006003904,4,1
-0.0003300267,0.0005924492,4,1
-0.0001987538,0.0005631154,4,1
-8.579432e-05,0.0004974789,4,1
1.614476e-05,0.0003997535,4,1
0.0001065772,0.0002890628,4,1
0.0001668655,0.0001825859,4,1
0.0001765894,9.361199e-05,4,1
0.0001373696,2.716521e-05,4,1
7.157111e-05,-2.242678e-05,4,1
4.313994e-06,-6.197072e-05,4,1
-4.787104e-05,-9.762509e-05,4,1
-7.574627e-05,-0.0001323071,4,1
-7.039812e-05,-0.000166827,4,1
-2.615429e-05,-0.0001984297,4,1
5.066468e-05,-0.0002235498,4,1
0.0001334801,-0.0002391081,4,1
0.0001911753,-0.000243808,4,1
0.0002072198,-0.0002447804,4,1
0.0001858272,-0.0002473734,4,1
0.000145797,-0.0002517492,4,1
0.0001064152,-0.0002590421,4,1
7.6271e-05,-0.0002724935,4,1
5.325772e-05,-0.0002925897,4,1
3.413401e-05,-0.000315765,4,1
1.938607e-05,-0.0003350507,4,1
1.12828e-05,-0.0003467195,4,1
1.533444e-05,-0.0003488263,4,1
3.93201e-05,-0.0003439643,4,1
8.113296e-05,-0.0003344025,4,1
0.0001365593,-0.0003219235,4,1
0.0001887444,-0.0003089583,4,1
0.0002205092,-0.0002979378,4,1
0.0002243987,-0.0002934,4,1
0.0002107852,-0.0002953447,4,1
0.0002015475,-0.0003000446,4,1
0.0002161334,-0.0003019894,4,1
0.0002569738,-0.0002995585,4,1
0.0003075383,-0.0002924276,4,1
0.0003454615,-0.0002823795,4,1
0.0003508097,-0.0002739521,4,1
0.0003153174,-0.0002695764,4,1
0.0002490327,-0.0002679557,4,1
0.0001770756,-0.0002601766,4,1
0.0001237561,-0.0002426735,4,1
9.977047e-05,-0.0002227395,4,1
9.733949e-05,-0.0002055606,4,1
0.0001009049,-0.0001938919,4,1
9.458438e-05,-0.0001880575,4,1
7.853991e-05,-0.0001828714,4,1
5.260946e-05,-0.0001731475,4,1
1.825161e-05,-0.0001574272,4,1
-1.448558e-05,-0.0001378173,4,1
-3.490581e-05,-0.0001204763,4,1
-3.717473e-05,-0.0001084835,4,1
-2.858527e-05,-9.616651e-05,4,1
-1.918548e-05,-7.963584e-05,4,1
-1.513384e-05,-5.727083e-05,4,1
-1.643037e-05,-3.21507e-05,4,1
-1.99958e-05,-7.030578e-06,4,1
-1.950961e-05,2.052053e-05,4,1
-1.108221e-05,5.504044e-05,4,1
1.002961e-07,9.588091e-05,4,1
4.80019e-06,0.0001342904,4,1
-3.858999e-07,0.000163138,4,1
-1.124428e-05,0.0001770756,4,1
-2.275091e-05,0.0001822617,4,1
-3.360929e-05,0.0001864754,4,1
-4.689865e-05,0.0001934442,4,1
-6.521203e-05,0.0002013854,4,1
-8.692878e-05,0.0002098128,4,1
-0.0001130213,0.0002188885,4,1
-0.0001493239,0.0002297469,4,1
-0.0002028055,0.0002431983,4,1
-0.0002666592,0.0002621599,4,1
-0.0003199787,0.0002832284,4,1
-0.0003433161,0.0002986247,4,1
-0.0003279199,0.0003005694,4,1
-0.0002865932,0.0002851732,4,1
-0.0002423494,0.0002529222,4,1
-0.0002146363,0.0002111094,4,1
-0.0002039399,0.0001707551,4,1
-0.000191623,0.0001368834,4,1
-0.0001548341,0.0001088461,4,1
-7.833932e-05,8.583286e-05,4,1
4.045456e-05,7.30297e-05,4,1
0.000190365,7.189524e-05,4,1
0.0003522683,7.886404e-05,4,1
0.0005007202,8.761557e-05,4,1
0.0006123833,9.652917e-05,4,1
0.0006721854,0.0001043083,4,1
0.0006817472,0.0001062531,4,1
0.0006558168,0.0001020394,4,1
0.0006122212,9.490851e-05,4,1
0.0005636016,9.004655e-05,4,1
0.00051012,8.956036e-05,4,1
0.0004436732,9.182927e-05,4,1
0.0003550234,9.26396e-05,4,1
0.0002430362,8.777764e-05,4,1
0.0001237561,7.513654e-05,4,1
2.522042e-05,5.423012e-05,4,1
-3.814712e-05,2.359977e-05,4,1
-8.158062e-05,-1.383732e-05,4,1
-0.0001263107,-4.868137e-05,4,1
-0.0001820611,-7.461182e-05,4,1
-0.000246401,-8.433573e-05,4,1
-0.0003076617,-7.785312e-05,4,1
-0.0003523917,-5.824322e-05,4,1
-0.0003697327,-2.777494e-05,4,1
-0.0003624398,7.23117e-06,4,1
-0.000342992,4.35338e-05,4,1
-0.0003198166,7.610894e-05,4,1
-0.0002880518,9.863601e-05,4,1
-0.0002332737,0.0001043083,4,1
-0.0001417068,8.891209e-05,4,1
-1.237873e-05,5.19612e-05,4,1
0.000138342,-1.844488e-06,4,1
0.0002778803,-6.083626e-05,4,1
0.000376416,-0.0001115627,4,1
0.0004195254,-0.0001507825,4,1
0.0004099636,-0.0001810887,4,1
0.0003642611,-0.0002047502,4,1
0.0003107795,-0.0002246843,4,1
0.0002819319,-0.0002397564,4,1
0.0002963557,-0.000251263,4,1
0.0003339549,-0.0002648765,4,1
0.00035162,-0.0002862691,4,1
0.0003153174,-0.0003138202,4,1
0.0002196988,-0.0003384541,4,1
9.555677e-05,-0.0003438023,4,1
-1.367526e-05,-0.0003201407,4,1
-7.850138e-05,-0.0002682799,4,1
-9.29252e-05,-0.000191623,4,1
-7.072225e-05,-9.778715e-05,4,1
-3.198864e-05,1.234753e-06,4,1
1.883015e-06,9.458438e-05,4,1
1.565857e-05,0.0001735102,4,1
3.503668e-06,0.0002321778,4,1
-2.583016e-05,0.0002670219,4,1
-5.192267e-05,0.0002819319,4,1
-5.629844e-05,0.0002832284,4,1
-3.668853e-05,0.0002811216,4,1
-7.678839e-06,0.0002856594,4,1
9.175954e-06,0.0003030004,4,1
2.855407e-06,0.0003323342,4,1
-2.339918e-05,0.0003668542,4,1
-6.051213e-05,0.0003995914,4,1
-0.0001039456,0.0004229288,4,1
-0.0001540238,0.0004315182,4,1
-0.0002045882,0.0004245494,4,1
-0.0002399184,0.0004070464,4,1
-0.0002493182,0.0003850055,4,1
-0.0002353806,0.000359075,4,1
-0.00021415,0.0003289309,4,1
-0.0002068571,0.0002924662,4,1
-0.0002350565,0.0002503292,4,1
-0.000298424,0.0002088404,4,1
-0.000375405,0.0001738343,4,1
-0.0004363416,0.0001420695,4,1
-0.0004708614,0.000105929,4,1
-0.0004836646,6.152305e-05,4,1
-0.0004883645,7.069105e-06,4,1
-0.0004888507,-5.2733e-05,4,1
-0.0004732924,-0.0001065387,4,1
-0.0004262935,-0.0001493239,4,1
-0.000342992,-0.0001770371,4,1
-0.000231491,-0.0001903264,4,1
-0.0001099421,-0.0001958367,4,1
4.47606e-06,-0.0002002124,4,1
0.00010366,-0.0002078295,4,1
0.0001874478,-0.0002152845,4,1
0.0002595669,-0.000224036,4,1
0.0003284447,-0.0002316531,4,1
0.0003939191,-0.0002345703,4,1
0.0004472386,-0.0002311669,4,1
0.000478031,-0.0002194982,4,1
0.0004790034,-0.0001972953,4,1
0.0004474007,-0.0001647201,4,1
0.0003992672,-0.0001250141,4,1
0.0003598854,-8.287715e-05,4,1
0.0003506476,-4.47918e-05,4,1
0.0003799815,-1.367526e-05,4,1
0.0004345975,1.047248e-05,4,1
0.0004893756,3.170304e-05,4,1
0.0005157923,5.260946e-05,4,1
0.0005012064,7.351589e-05,4,1
0.0004472386,9.101894e-05,4,1
0.0003660439,9.896015e-05,4,1
0.0002683184,8.972242e-05,4,1
0.0001654069,5.763349e-05,4,1
6.427817e-05,3.827799e-06,4,1
-3.652646e-05,-6.586029e-05,4,1
-0.0001349001,-0.0001373311,4,1
-0.0002198223,-0.0001912988,4,1
-0.0002797865,-0.0002207947,4,1
-0.0003102548,-0.000223874,4,1
-0.0003186821,-0.0002044261,4,1
-0.0003113892,-0.0001712027,4,1
-0.0002911311,-0.0001381414,4,1
-0.0002681178,-0.0001169109,4,1
-0.0002564491,-0.000112373,4,1
-0.0002695764,-0.0001217728,4,1
-0.0003104168,-0.0001323071,4,1
-0.0003687603,-0.0001323071,4,1
-0.0004253211,-0.0001162626,4,1
-0.0004708614,-8.563225e-05,4,1
-0.0005048952,-4.787104e-05,4,1
-0.000519319,-1.075808e-05,4,1
-0.0005014918,2.246531e-05,4,1
-0.0004484965,4.807163e-05,4,1
-0.0003695707,5.99024e-05,4,1
-0.0002780038,5.698522e-05,4,1
-0.0001754164,4.272347e-05,4,1
-6.0188e-05,1.484824e-05,4,1
6.606088e-05,-2.437157e-05,4,1
0.0001957132,-6.261898e-05,4,1
0.0003273102,-8.579432e-05,4,1
0.0004686312,-8.644259e-05,4,1
0.0006232416,-6.553616e-05,4,1
0.0007796348,-3.069211e-05,4,1
0.000911232,8.203562e-06,4,1
0.0009916165,4.483033e-05,4,1
0.001009768,7.659513e-05,4,1
0.0009711962,0.0001044704,4,1
0.0009002115,0.0001294284,4,1
0.0008162616,0.0001537382,4,1
0.000725829,0.0001793446,4,1
0.0006334517,0.0002057612,4,1
0.0005433434,0.0002303951,4,1
0.0004555039,0.0002504913,4,1
0.0003662059,0.0002676702,4,1
0.0002702632,0.0002833905,4,1
0.0001728619,0.0002957075,4,1
8.194328e-05,0.0003002453,4,1
5.286387e-06,0.0002961937,4,1
-5.986387e-05,0.0002900352,4,1
-0.0001277692,0.0002824181,4,1
-0.0002169052,0.0002731804,4,1
-0.0003371576,0.0002641047,4,1
-0.00047702,0.0002547049,4,1
-0.0006120203,0.0002433604,4,1
-0.0007134732,0.0002265056,4,1
-0.0007684134,0.0002013854,4,1
-0.0007786234,0.0001702689,4,1
-0.0007567446,0.0001321835,4,1
-0.0007150938,8.534666e-05,4,1
-0.0006543194,3.235129e-05,4,1
-0.0005726385,-1.821308e-05,4,1
-0.00047702,-5.435365e-05,4,1
-0.0003956632,-6.861539e-05,4,1
-0.0003588744,-6.407757e-05,4,1
-0.0003692465,-5.046408e-05,4,1
-0.0003979321,-3.960571e-05,4,1
-0.0004063595,-3.928157e-05,4,1
-0.0003734602,-5.030202e-05,4,1
-0.0003079858,-6.893953e-05,4,1
-0.0002373254,-8.903562e-05,4,1
-0.0001883817,-0.0001071869,4,1
-0.0001710407,-0.0001243659,4,1
-0.0001731475,-0.0001373311,4,1
-0.0001720131,-0.0001425172,4,1
-0.0001483515,-0.0001423551,4,1
-9.875954e-05,-0.0001389517,4,1
-2.874733e-05,-0.0001363587,4,1
4.888196e-05,-0.000137169,4,1
0.000121001,-0.0001442999,4,1
0.0001717275,-0.0001567789,4,1
0.0001921477,-0.0001695821,4,1
0.0001835583,-0.0001783336,4,1
0.0001522796,-0.0001846542,4,1
0.0001067393,-0.0001900023,4,1
5.504044e-05,-0.0001930815,4,1
3.503668e-06,-0.0001911368,4,1
-3.587821e-05,-0.000181737,4,1
-5.030202e-05,-0.0001674752,4,1
-3.409549e-05,-0.000149486,4,1
1.558884e-06,-0.0001289037,4,1
3.688912e-05,-0.0001110765,4,1
5.536457e-05,-0.0001020008,4,1
4.77475e-05,-0.0001042698,4,1
1.954813e-05,-0.0001143178,4,1
-1.480971e-05,-0.0001238797,4,1
-5.192267e-05,-0.0001225832,4,1
-0.0001101041,-0.0001062146,4,1
-0.0002276015,-7.785312e-05,4,1
-0.0004261314,-4.47918e-05,4,1
-0.0006818705,-1.286493e-05,4,1
-0.0009277235,1.663096e-05,4,1
-0.001089627,4.191315e-05,4,1
-0.001121554,6.525056e-05,4,1
-0.001020911,8.74535e-05,4,1
-0.0008204363,0.0001051186,4,1
-0.0005570802,0.0001030118,4,1
-0.0002596904,7.027458e-05,4,1
5.244739e-05,1.533444e-05,4,1
0.0003649094,-3.68506e-05,4,1
0.0006618132,-5.889148e-05,4,1
0.0009318143,-3.717473e-05,4,1
0.001166971,1.760335e-05,4,1
0.001364367,7.756752e-05,4,1
0.001518978,0.0001227837,4,1
0.001625131,0.0001464453,4,1
0.001674885,0.000155683,4,1
0.001660461,0.0001569795,4,1
0.001581859,0.0001574657,4,1
0.001458203,0.0001602208,4,1
0.001321744,0.0001702689,4,1
0.001199547,0.0001913374,4,1
0.001095662,0.0002221298,4,1
0.0009916165,0.000254867,4,1
0.0008647192,0.0002791768,4,1
0.0007065432,0.0002908455,4,1
0.0005178991,0.0002932765,4,1
0.0002983005,0.0002937627,4,1
4.82337e-05,0.0002976523,4,1
-0.0002196603,0.0003077003,4,1
-0.0004742648,0.0003219621,4,1
-0.0006734431,0.0003368721,4,1
-0.0007805682,0.0003496752,4,1
-0.0007821888,0.0003584268,4,1
-0.0006979149,0.0003631267,4,1
-0.0005723144,0.0003636129,4,1
-0.0004491447,0.0003563199,4,1
-0.0003475298,0.0003362238,4,1
-0.0002629317,0.000307052,4,1
-0.0001877334,0.0002880904,4,1
-0.0001233935,0.0002872801,4,1
-8.093236e-05,0.0002934386,4,1
-7.201877e-05,0.000277232,4,1
-0.0001020008,0.0002137024,4,1
-0.0001622891,9.863601e-05,4,1
-0.0002365151,-5.062615e-05,4,1
-0.0002958309,-0.0002002124,4,1
-0.0003099306,-0.0003180339,4,1
-0.0002754107,-0.0003836704,4,1
-0.0002104225,-0.0003959873,4,1
-0.0001472171,-0.0003674638,4,1
-0.0001143178,-0.000318358,4,1
-0.0001253383,-0.0002721694,4,1
-0.0001747682,-0.0002447804,4,1
-0.0002420253,-0.0002394322,4,1
-0.0003023136,-0.0002501286,4,1
-0.0003394265,-0.0002677937,4,1
-0.0003528779,-0.0002844864,4,1
-0.0003540124,-0.0002955068,4,1
-0.0003538503,-0.0002979378,4,1
-0.0003600088,-0.0002916173,4,1
-0.0003724878,-0.0002797865,4,1
-0.0003823738,-0.0002695764,4,1
-0.0003807532,-0.0002674695,4,1
-0.0003627639,-0.0002750866,4,1
-0.0003298647,-0.0002869174,4,1
-0.0002899966,-0.0002968033,4,1
-0.0002496423,-0.0003011791,4,1
-0.0002125294,-0.0002945344,4,1
-0.0001776853,-0.0002791382,4,1
-0.0001431655,-0.0002564491,4,1
-0.0001060525,-0.0002295462,4,1
-6.0188e-05,-0.0001998883,4,1
-5.57199e-06,-0.0001703924,4,1
5.131294e-05,-0.000144462,4,1
9.669123e-05,-0.0001302002,4,1
0.0001268354,-0.0001293899,4,1
0.0001445005,-0.0001391138,4,1
0.0001584381,-0.0001536997,4,1
0.0001746447,-0.0001663408,4,1
0.0001939304,-0.0001695821,4,1
0.0002124059,-0.0001585616,4,1
0.000225047,-0.0001363587,4,1
0.0002303951,-0.0001083214,4,1
0.0002208333,-7.785312e-05,4,1
0.0001876099,-4.462973e-05,4,1
0.0001268354,-6.868513e-06,4,1
4.045456e-05,3.964424e-05,4,1
-7.477388e-05,9.63671e-05,4,1
-0.0002188499,0.0001626518,4,1
-0.0003732982,0.0002315296,4,1
-0.0004972781,0.0002889007,4,1
-0.000549139,0.000324393,4,1
-0.0005107295,0.000329255,4,1
-0.0003943667,0.000304459,4,1
-0.0002212809,0.000257298,4,1
-1.351319e-05,0.0002051129,4,1
0.0002055991,0.0001577899,4,1
0.0004164462,0.0001214872,4,1
0.0006000663,9.993253e-05,4,1
0.0007434942,9.231547e-05,4,1
0.0008405714,9.377406e-05,4,1
0.000901346,0.0001017153,4,1
0.000938459,0.0001075496,4,1
0.0009622826,0.0001069013,4,1
0.0009857821,0.0001015532,4,1
0.001011064,9.831188e-05,4,1
0.001027109,0.0001052807,4,1
0.001016575,0.0001252147,4,1
0.000973303,0.000153252,4,1
0.0009037769,0.0001788584,4,1
0.000817234,0.0001968476,4,1
0.0007217774,0.0002078681,4,1
0.0006250244,0.0002192126,4,1
0.0005191956,0.000235095,4,1
0.0003945674,0.0002504913,4,1
0.0002373639,0.0002551911,4,1
3.93201e-05,0.0002446569,4,1
-0.0001968091,0.0002231022,4,1
-0.0004476861,0.0001979821,4,1
-0.0006770085,0.0001814514,4,1
-0.0008500942,0.0001835583,4,1
-0.0009518713,0.0002005751,4,1
-0.0009899565,0.0002224539,4,1
-0.0009893083,0.0002362295,4,1
-0.0009721294,0.0002313675,4,1
-0.0009544643,0.0002008992,4,1
-0.0009410129,0.0001409351,4,1
-0.0009256167,5.341979e-05,4,1
-0.0009019551,-4.949169e-05,4,1
-0.0008701903,-0.000144462,4,1
-0.0008338877,-0.0002060468,4,1
-0.0007932093,-0.0002201465,4,1
-0.0007500999,-0.0001925954,4,1
-0.0006993735,-0.0001430034,4,1
-0.0006343853,-9.276313e-05,4,1
-0.0005551354,-5.59743e-05,4,1
-0.0004703753,-3.879538e-05,4,1
-0.0003904771,-3.976777e-05,4,1
-0.0003267854,-5.208474e-05,4,1
-0.0002794623,-6.699475e-05,4,1
-0.0002381357,-8.158062e-05,4,1
-0.000186761,-0.0001007043,4,1
-0.0001185315,-0.0001285796,4,1
-3.522994e-05,-0.0001630995,4,1
5.228533e-05,-0.0001921092,4,1
0.0001368834,-0.0002032917,4,1
0.0002112714,-0.0001870851,4,1
0.0002694529,-0.0001421931,4,1
0.0003073762,-8.02841e-05,4,1
0.0003294171,-2.46957e-05,4,1
0.0003378445,-1.196227e-06,4,1
0.000331848,-1.724069e-05,4,1
0.0003054314,-6.197072e-05,4,1
0.0002466017,-0.0001112386,4,1
0.0001589243,-0.0001488377,4,1
6.735741e-05,-0.0001677994,4,1
4.244267e-07,-0.0001682856,4,1
-2.534396e-05,-0.0001566169,4,1
-9.947754e-06,-0.0001399241,4,1
3.462021e-05,-0.0001259865,4,1
9.020862e-05,-0.0001125351,4,1
0.0001433661,-9.19528e-05,4,1
0.0001848548,-5.743289e-05,4,1
0.000215161,-1.335113e-05,4,1
0.000244981,2.619281e-05,4,1
0.0002854973,4.645098e-05,4,1
0.0003381686,4.483033e-05,4,1
0.0003926226,2.992031e-05,4,1
0.0004331389,1.582063e-05,4,1
0.0004495075,1.160693e-05,4,1
0.0004384871,1.857574e-05,4,1
0.0004099636,2.910999e-05,4,1
0.000378847,3.543054e-05,4,1
0.000359075,3.089271e-05,4,1
0.0003577785,1.355172e-05,4,1
0.0003710679,-1.027188e-05,4,1
0.000388895,-3.036798e-05,4,1
0.0004078567,-3.26369e-05,4,1
0.0004242253,-9.947754e-06,4,1
0.0004388112,3.850978e-05,4,1
0.0004498317,0.0001018773,4,1
0.0004456179,0.0001608691,4,1
0.0004149876,0.0001987924,4,1
0.0003537269,0.0002078681,4,1
0.0002616738,0.0001906891,4,1
0.0001436902,0.0001597346,4,1
9.824215e-06,0.0001292664,4,1
-0.0001216107,0.0001043083,4,1
-0.0002318152,8.648112e-05,4,1
-0.0003084721,7.67572e-05,4,1
-0.0003465574,7.967438e-05,4,1
-0.0003499608,9.847395e-05,4,1
-0.0003361852,0.0001305629,4,1
-0.000328082,0.0001714034,4,1
-0.0003439643,0.0002085163,4,1
-0.0003925839,0.0002295848,4,1
-0.0004601652,0.0002308813,4,1
-0.0005191569,0.0002182402,4,1
-0.0005470322,0.0002036544,4,1
-0.0005374703,0.0001965235,4,1
-0.0004963057,0.0001973338,4,1
-0.0004369898,0.0002047888,4,1
-0.0003804291,0.0002130541,4,1
-0.0003439643,0.000220023,4,1
-0.0003350507,0.000225047,4,1
-0.0003395886,0.0002222919,4,1
-0.0003365093,0.0002055991,4,1
-0.0003144685,0.0001735102,4,1
-0.0002742763,0.0001299146,4,1
-0.0002235498,7.935024e-05,4,1
-0.0001695821,2.81376e-05,4,1
-0.0001141558,-1.886135e-05,4,1
-5.402952e-05,-5.889148e-05,4,1
2.457216e-05,-8.790117e-05,4,1
0.0001336421,-0.0001070249,4,1
0.0002642668,-0.0001193418,4,1
0.0003921364,-0.0001284175,4,1
0.0004952099,-0.0001332795,4,1
0.0005616568,-0.0001381414,4,1
0.0005901803,-0.0001464067,4,1
0.000579484,-0.0001645581,4,1
0.0005321609,-0.0002003745,4,1
0.0004530729,-0.0002525595,4,1
0.000354051,-0.0003086341,4,1
0.0002560015,-0.0003533641,4,1
0.0001757791,-0.0003796187,4,1
0.0001164632,-0.0003833462,4,1
6.606088e-05,-0.0003718396,4,1
1.322759e-05,-0.0003579019,4,1
-4.673658e-05,-0.0003553089,4,1
-0.0001088076,-0.0003638984,4,1
-0.0001665028,-0.0003718396,4,1
-0.0002079916,-0.0003674638,4,1
-0.0002185258,-0.0003410472,4,1
-0.0001961608,-0.0002940482,4,1
-0.0001553203,-0.0002345703,4,1
-0.0001229073,-0.0001737958,4,1
-0.0001383035,-0.0001208004,4,1
-0.0002220912,-8.239095e-05,4,1
-0.0003457471,-5.905355e-05,4,1
-0.0004510895,-3.976777e-05,4,1
-0.0004836646,-1.416145e-05,4,1
-0.0004173799,2.376183e-05,4,1
-0.0002608248,7.6271e-05,4,1
-4.85193e-05,0.0001398006,4,1
0.0001769136,0.0002133783,4,1
0.0003746333,0.0002918179,4,1
0.0005209784,0.0003679886,4,1
0.0006178935,0.0004349216,4,1
0.0006849886,0.0004914824,4,1
0.0007494906,0.0005358884,4,1
0.0008290648,0.0005676532,4,1
0.0009201455,0.0005927734,4,1
0.001001827,0.0006211348,4,1
0.001045422,0.0006647304,4,1
0.001032133,0.0007242084,4,1
0.0009606619,0.0007788245,4,1
0.0008480264,0.0007937344,4,1
0.0007193465,0.0007493285,4,1
0.0005942319,0.0006491721,4,1
0.0004848378,0.0005174129,4,1
0.0003976466,0.0003843572,4,1
0.000331848,0.0002715597,4,1
0.0002738286,0.0001874478,4,1
0.0002018716,0.0001312112,4,1
8.550872e-05,9.523264e-05,4,1
-9.892161e-05,7.157111e-05,4,1
-0.000343154,4.920609e-05,4,1
-0.0006027826,2.068259e-05,4,1
-0.0008189777,-1.772689e-05,4,1
-0.000948792,-6.245691e-05,4,1
-0.0009778016,-0.000104756,4,1
-0.0009142721,-0.0001381414,4,1
-0.0007878611,-0.0001652063,4,1
-0.0006420024,-0.0001862748,4,1
-0.0005121881,-0.0002003745,4,1
-0.0004091146,-0.0002096122,4,1
-0.0003241924,-0.0002156086,4,1
-0.0002499665,-0.0002191741,4,1
-0.0001854645,-0.0002220912,4,1
-0.0001340898,-0.0002303566,4,1
-0.0001037836,-0.000251263,4,1
-0.0001139937,-0.0002822175,4,1
-0.0001762268,-0.0003149546,4,1
-0.0002872415,-0.0003408851,4,1
-0.0004248349,-0.0003541745,4,1
-0.0005616181,-0.0003553089,4,1
-0.0006705259,-0.0003491504,4,1
-0.0007311383,-0.0003400748,4,1
-0.0007269246,-0.0003300267,4,1
-0.0006421645,-0.00032322,4,1
-0.0004655133,-0.0003173856,4,1
-0.0002011848,-0.0003112272,4,1
0.000113546,-0.000303286,4,1
0.0004227667,-0.0002919414,4,1
0.0006741302,-0.0002771934,4,1
0.0008357094,-0.0002616352,4,1
0.0008972943,-0.0002486699,4,1
0.0008582365,-0.0002417012,4,1
0.0007339324,-0.0002428356,4,1
0.0005624671,-0.0002473734,4,1
0.0003903536,-0.0002486699,4,1
0.0002534084,-0.0002420253,4,1
0.0001660552,-0.0002272773,4,1
0.0001231079,-0.0002096122,4,1
0.0001107909,-0.0001972953,4,1
0.0001104668,-0.000199078,4,1
0.0001046324,-0.000213988,4,1
7.173317e-05,-0.0002384598,4,1
-7.100305e-07,-0.0002632558,4,1
-0.0001114006,-0.0002783279,4,1
-0.0002467252,-0.000271197,4,1
-0.0003899909,-0.0002425115,4,1
-0.0005306636,-0.0002042641,4,1
-0.0006627468,-0.000166989,4,1
-0.0007745718,-0.0001342519,4,1
-0.0008538218,-0.0001020008,4,1
-0.0008888278,-6.375344e-05,4,1
-0.0008769971,-2.09682e-05,4,1
-0.0008243258,2.181705e-05,4,1
-0.000742807,5.974033e-05,4,1
-0.000643299,9.442231e-05,4,1
-0.000534229,0.0001255389,4,1
-0.0004206212,0.0001519555,4,1
-0.0003089583,0.0001746447,4,1
-0.0002084778,0.0001991165,4,1
-0.000122097,0.0002299089,4,1
-4.511593e-05,0.0002642668,4,1
3.413401e-05,0.0002992729,4,1
0.0001218114,0.0003279585,4,1
0.0002137024,0.0003443271,4,1
0.0002976523,0.0003433547,4,1
0.0003645853,0.000324231,4,1
0.0004125566,0.0002936006,4,1
0.0004425387,0.0002654013,4,1
0.0004548557,0.000252436,4,1
0.0004474007,0.0002561635,4,1
0.0004104497,0.000272208,4,1
0.0003346032,0.0002911697,4,1
0.0002240746,0.0003049452,4,1
0.0001046324,0.0003078624,4,1
8.851824e-06,0.0002947351,4,1
-4.203669e-05,0.0002641047,4,1
-4.835724e-05,0.0002232643,4,1
-2.631635e-05,0.0001850168,4,1
4.313994e-06,0.0001616794,4,1
3.040651e-05,0.0001553589,4,1
4.77475e-05,0.0001603829,4,1
6.541262e-05,0.0001736723,4,1
9.247754e-05,0.0001889064,4,1
0.0001299146,0.0001939304,4,1
0.0001689724,0.0001770756,4,1
0.0001926339,0.0001466074,4,1
0.0001983062,0.0001174356,4,1
0.000200413,0.0001075496,4,1
0.0002184023,0.0001278078,4,1
0.0002595669,0.0001736723,4,1
0.0003174242,0.0002312055,4,1
0.000373823,0.0002809595,4,1
0.000411098,0.0003104554,4,1
0.0004192013,0.0003107795,4,1
0.000396188,0.0002856594,4,1
0.000346596,0.0002436845,4,1
0.0002835526,0.0001992786,4,1
0.0002214815,0.0001576278,4,1
0.0001799928,0.0001205148,4,1
0.0001767515,8.129502e-05,4,1
0.0002180782,3.526847e-05,4,1
0.000292142,-1.529591e-05,4,1
0.0003746333,-6.553616e-05,4,1
0.0004417284,-0.0001118868,4,1
0.0004726828,-0.0001530514,4,1
0.0004555039,-0.0001927574,4,1
0.0003958639,-0.0002293842,4,1
0.0003077003,-0.0002577456,4,1
0.0002064095,-0.000276059,4,1
0.0001030118,-0.0002841623,4,1
2.207145e-06,-0.000281083,4,1
-9.357346e-05,-0.0002713591,4,1
-0.0001882196,-0.0002556388,4,1
-0.0002869174,-0.0002340841,4,1
-0.0003920977,-0.0002107467,4,1
-0.0004958195,-0.0001901644,4,1
-0.0005794452,-0.0001750923,4,1
-0.0006191512,-0.0001665028,4,1
-0.0006024585,-0.0001622891,4,1
-0.0005326084,-0.0001616409,4,1
-0.0004272659,-0.0001661787,4,1
-0.0003073376,-0.0001726613,4,1
-0.0001919471,-0.0001776853,4,1
-9.2439e-05,-0.000171851,4,1
-1.432352e-05,-0.000149486,4,1
3.786152e-05,-0.0001135075,4,1
6.849186e-05,-7.590833e-05,4,1
8.729144e-05,-4.625038e-05,4,1
0.0001117633,-2.518189e-05,4,1
0.0001548727,-8.002969e-06,4,1
0.000217754,8.689758e-06,4,1
0.0002910076,2.862379e-05,4,1
0.0003550234,4.709924e-05,4,1
0.0003872744,5.828175e-05,4,1
0.0003741471,5.779555e-05,4,1
0.0003208276,4.871989e-05,4,1
0.0002491947,4.158902e-05,4,1
0.0001843686,4.369587e-05,4,1
0.0001443384,6.217132e-05,4,1
0.0001295905,9.960841e-05,4,1
0.0001271595,0.0001469315,4,1
0.0001200286,0.0001916615,4,1
0.0001044704,0.000220185,4,1
8.405014e-05,0.0002261814,4,1
6.525056e-05,0.000210137,4,1
4.77475e-05,0.0001796687,4,1
2.829966e-05,0.0001467694,4,1
2.207145e-06,0.0001195424,4,1
-3.117831e-05,0.0001049566,4,1
-6.456377e-05,0.0001028497,4,1
-9.211487e-05,0.0001107909,4,1
-0.000112373,0.0001244044,4,1
-0.0001295519,0.0001367214,4,1
-0.0001511067,0.0001409351,4,1
-0.0001810887,0.0001372076,4,1
-0.0002246843,0.0001325077,4,1
-0.0002977757,0.0001289422,4,1
-0.0004180282,0.0001252147,4,1
-0.0005920863,0.0001188942,4,1
-0.0008000161,0.00010366,4,1
-0.00100438,7.513654e-05,4,1
-0.001165311,3.316162e-05,4,1
-0.001253799,-1.335113e-05,4,1
-0.001250558,-5.127441e-05,4,1
-0.001147808,-7.18567e-05,4,1
-0.0009570573,-7.380149e-05,4,1
-0.000705532,-5.775702e-05,4,1
-0.0004295348,-2.46957e-05,4,1
-0.0001574272,2.39239e-05,4,1
9.004655e-05,8.210535e-05,4,1
0.0003049452,0.0001399627,4,1
0.0004945617,0.0001885823,4,1
0.0006700786,0.0002271538,4,1
0.0008326302,0.0002602152,4,1
0.0009763823,0.0002889007,4,1
0.001087721,0.0003055935,4,1
0.001151575,0.0003017039,4,1
0.001157085,0.0002730183,4,1
0.001111707,0.0002227781,4,1
0.001035698,0.0001592484,4,1
0.0009491552,9.085688e-05,4,1
0.0008629364,2.522042e-05,4,1
0.0007773659,-3.652646e-05,4,1
0.0006828817,-9.470791e-05,4,1
0.000567005,-0.000149486,4,1
0.0004195254,-0.0002034537,4,1
0.0002431983,-0.0002621213,4,1
5.860588e-05,-0.0003266234,4,1
-0.0001011905,-0.0003985804,4,1
-0.0002086398,-0.0004739407,4,1
-0.0002572594,-0.0005423322,4,1
-0.0002624455,-0.0005883588,4,1
-0.0002502906,-0.0006050515,4,1
-0.000248832,-0.0005932208,4,1
-0.0002737901,-0.0005606457,4,1
-0.0003264613,-0.0005220741,4,1
-0.0003980942,-0.000489661,4,1
-0.000469727,-0.0004666478,4,1
-0.0005228845,-0.0004486585,4,1
-0.0005429805,-0.0004282383,4,1
-0.0005262878,-0.0004011734,4,1
-0.0004741028,-0.0003681121,4,1
-0.0003935563,-0.0003290543,4,1
-0.0002938862,-0.0002870794,4,1
-0.0001895161,-0.0002465631,4,1
-9.697683e-05,-0.0002102605,4,1
-2.113026e-05,-0.0001731475,4,1
4.158902e-05,-0.0001319829,4,1
9.831188e-05,-9.308726e-05,4,1
0.000145635,-5.872941e-05,4,1
0.0001762653,-2.518189e-05,4,1
0.0001843686,1.54965e-05,4,1
0.0001731861,6.995045e-05,4,1
0.0001540623,0.000135911,4,1
0.0001399627,0.0002055991,4,1
0.0001410971,0.0002645909,4,1
0.0001597346,0.0003033245,4,1
0.0001910133,0.0003190449,4,1
0.0002290986,0.0003195311,4,1
0.0002684805,0.0003175863,4,1
0.0002973281,0.0003245551,4,1
0.0003028383,0.0003412479,4,1
0.0002811216,0.0003634508,4,1
0.0002346088,0.0003854917,4,1
0.000168,0.0004041292,4,1
8.907416e-05,0.000413529,4,1
7.879432e-06,0.000411098,4,1
-6.764301e-05,0.0003987811,4,1
-0.0001292278,0.000381278,4,1
-0.0001690959,0.0003681507,4,1
-0.0001859507,0.0003675024,4,1
-0.0001896782,0.0003853296,4,1
-0.000191785,0.0004200116,4,1
-0.0002000504,0.0004657141,4,1
-0.0002198223,0.0005114165,4,1
-0.0002493182,0.0005477191,4,1
-0.0002841623,0.0005673291,4,1
-0.0003159271,0.0005663567,4,1
-0.0003344025,0.00053994,4,1
-0.000330675,0.0004958582,4,1
-0.0002948586,0.0004488593,4,1
-0.0002258187,0.0004157979,4,1
-0.0001399241,0.0004015361,4,1
-6.39155e-05,0.0003918123,4,1
-1.918548e-05,0.0003670162,4,1
-1.594417e-05,0.0003104554,4,1
-4.706071e-05,0.0002196988,4,1
-9.405965e-05,0.0001104668,4,1
-0.0001289037,-1.034161e-06,4,1
-0.0001311726,-9.519411e-05,4,1
-9.098041e-05,-0.0001572651,4,1
-1.724069e-05,-0.0001799543,4,1
6.849186e-05,-0.0001728234,4,1
0.0001376938,-0.0001564548,4,1
0.0001764274,-0.0001478653,4,1
0.0001846927,-0.0001538618,4,1
0.0001671896,-0.0001686097,4,1
0.000123432,-0.000181737,4,1
4.72613e-05,-0.0001865989,4,1
-6.618442e-05,-0.0001814128,4,1
-0.0002039399,-0.000166827,4,1
-0.0003395886,-0.0001460826,4,1
-0.0004450931,-0.0001259865,4,1
-0.0005034366,-0.0001138316,4,1
-0.0005138087,-0.0001128592,4,1
-0.0004838267,-0.0001242038,4,1
-0.0004293727,-0.0001473791,4,1
-0.0003692465,-0.0001815749,4,1
-0.0003170615,-0.0002245222,4,1
-0.0002663351,-0.0002664971,4,1
-0.0002018331,-0.0002968033,4,1
-0.000112211,-0.0003062031,4,1
2.623614e-07,-0.0002977757,4,1
0.0001206769,-0.0002828657,4,1
0.0002222919,-0.0002699005,4,1
0.000289387,-0.0002577456,4,1
0.0003214759,-0.0002436459,4,1
0.0003376824,-0.0002263049,4,1
0.000359075,-0.0002086398,4,1
0.0004007258,-0.0001998883,4,1
0.0004611762,-0.0002042641,4,1
0.0005274609,-0.0002243602,4,1
0.0005848321,-0.0002559629,4,1
0.0006183797,-0.000295993,4,1
0.0006162729,-0.0003394265,4,1
0.0005856425,-0.0003801049,4,1
0.0005410745,-0.0004074939,4,1
0.0004963444,-0.0004143007,4,1
0.0004590694,-0.0003993907,4,1
0.0004250357,-0.0003674638,4,1
0.0003814401,-0.0003209511,4,1
0.0003237448,-0.0002639041,4,1
0.0002569738,-0.0002029675,4,1
0.0001919856,-0.0001426792,4,1
0.0001394765,-8.417367e-05,4,1
0.0001052807,-2.46957e-05,4,1
8.923623e-05,3.640293e-05,4,1
7.999851e-05,9.296373e-05,4,1
6.444023e-05,0.0001385041,4,1
3.056858e-05,0.0001684862,4,1
-2.680255e-05,0.0001819376,4,1
-0.0001075111,0.0001830721,4,1
-0.0002002124,0.0001777239,4,1
-0.0002869174,0.000170431,4,1
-0.0003549848,0.0001644345,4,1
-0.0004013355,0.0001636242,4,1
-0.000427428,0.000168162,4,1
-0.0004342347,0.0001786963,4,1
-0.0004245108,0.0001937684,4,1
-0.0004008493,0.0002067336,4,1
-0.0003666535,0.0002104611,4,1
-0.0003248407,0.0001984683,4,1
-0.000278652,0.0001701068,4,1
-0.0002276015,0.000133318,4,1
-0.0001705545,9.442231e-05,4,1
-0.0001015147,6.071273e-05,4,1
-1.643037e-05,3.802358e-05,4,1
7.724339e-05,3.235129e-05,4,1
0.0001692965,4.547859e-05,4,1
0.0002542187,7.367795e-05,4,1
0.0003347652,0.0001083599,4,1
0.0004070464,0.0001376938,4,1
0.0004465904,0.000155521,4,1
0.0004182289,0.0001618415,4,1
0.0003021901,0.0001658931,4,1
0.0001206769,0.0001714034,4,1
-7.542214e-05,0.0001702689,4,1
-0.0002455907,0.0001500107,4,1
-0.0003779981,0.0001030118,4,1
-0.0004784786,3.867184e-05,4,1
-0.0005483287,-2.46957e-05,4,1
-0.0005775004,-6.942573e-05,4,1
-0.000549139,-9.033215e-05,4,1
-0.0004531963,-9.276313e-05,4,1
-0.000285945,-8.44978e-05,4,1
-6.116039e-05,-7.380149e-05,4,1
0.000195389,-6.569822e-05,4,1
0.0004488593,-6.051213e-05,4,1
0.0006663511,-5.176061e-05,4,1
0.000819827,-3.604027e-05,4,1
0.0008935668,-1.529591e-05,4,1
0.000893891,3.827799e-06,4,1
0.0008433265,1.630683e-05,4,1
0.0007707212,2.116879e-05,4,1
0.0006995744,2.084466e-05,4,1
0.0006391241,1.744129e-05,4,1
0.0005830494,1.12828e-05,4,1
0.0005183853,2.207145e-06,4,1
0.0004370285,-7.192643e-06,4,1
0.0003360618,-1.67545e-05,4,1
0.0002164575,-2.939559e-05,4,1
9.442231e-05,-5.127441e-05,4,1
-9.947754e-06,-8.709085e-05,4,1
-8.271508e-05,-0.0001329553,4,1
-0.0001211246,-0.0001765509,4,1
-0.0001290658,-0.0002068571,4,1
-0.0001128592,-0.0002138259,4,1
-8.806324e-05,-0.0002003745,4,1
-7.590833e-05,-0.0001749302,4,1
-8.595638e-05,-0.0001502963,4,1
-0.0001178833,-0.0001314967,4,1
-0.0001585616,-0.0001146419,4,1
-0.000186761,-9.211487e-05,4,1
-0.0001885437,-5.970181e-05,4,1
-0.0001689338,-1.756482e-05,4,1
-0.0001472171,2.846173e-05,4,1
-0.0001397621,7.140904e-05,4,1
-0.0001447861,0.0001070634,4,1
-0.0001475412,0.0001355869,4,1
-0.0001319829,0.0001577899,4,1
-9.114248e-05,0.0001767515,4,1
-3.733679e-05,0.0001939304,4,1
6.420843e-06,0.0002067336,4,1
2.39239e-05,0.0002141886,4,1
1.436204e-05,0.0002171058,4,1
-8.489166e-06,0.0002161334,4,1
-2.129233e-05,0.0002135403,4,1
-7.354709e-06,0.0002122438,4,1
2.230325e-05,0.0002128921,4,1
4.385793e-05,0.0002140265,4,1
3.850978e-05,0.0002158093,4,1
3.179537e-06,0.0002164575,4,1
-5.581224e-05,0.0002138645,4,1
-0.0001276072,0.0002085163,4,1
-0.0001951884,0.0002017096,4,1
-0.0002400805,0.0001992786,4,1
-0.0002507768,0.0002075439,4,1
-0.0002316531,0.000227478,4,1
-0.0002052365,0.0002551911,4,1
-0.0001974573,0.0002833905,4,1
-0.0002206326,0.0003062417,4,1
-0.000266173,0.0003200173,4,1
-0.0003168994,0.000319207,4,1
-0.0003585502,0.0003031625,4,1
-0.0003875599,0.0002744769,4,1
-0.0004206212,0.0002409294,4,1
-0.0004835025,0.0002138645,4,1
-0.00058139,0.0001955511,4,1
-0.0007074767,0.000185503,4,1
-0.0008447461,0.0001863134,4,1
-0.0009766672,0.0001950649,4,1
-0.001076499,0.0002047888,4,1
-0.001114261,0.0002021958,4,1
-0.001072448,0.00018291,4,1
-0.0009581918,0.0001470936,4,1
-0.0007894818,0.0001028497,4,1
-0.0005775004,5.828175e-05,4,1
-0.0003297026,1.9224e-05,4,1
-6.359137e-05,-9.785688e-06,4,1
0.000195227,-2.46957e-05,4,1
0.000426008,-3.101625e-05,4,1
0.0006193521,-3.68506e-05,4,1
0.0007773659,-4.576419e-05,4,1
0.0009003736,-5.824322e-05,4,1
0.0009822167,-7.444975e-05,4,1
0.00101463,-9.519411e-05,4,1
0.0009980991,-0.0001199901,4,1
0.0009417002,-0.0001452723,4,1
0.0008585607,-0.0001661787,4,1
0.0007619697,-0.0001804405,4,1
0.0006537099,-0.0001833576,4,1
0.0005294057,-0.0001737958,4,1
0.0003824125,-0.0001554824,4,1
0.0002111094,-0.0001323071,4,1
1.97102e-05,-0.0001130213,4,1
-0.0001784957,-0.0001042698,4,1
-0.0003617915,-0.0001102662,4,1
-0.0005128364,-0.0001258245,4,1
-0.0006257959,-0.0001462447,4,1
-0.000713149,-0.0001655305,4,1
-0.0007945059,-0.0001820611,4,1
-0.0008805625,-0.0001969711,4,1
-0.0009630537,-0.0002120432,4,1
-0.001028204,-0.0002308428,4,1
-0.001064345,-0.000251101,4,1
-0.001056079,-0.0002689281,4,1
-0.0009854188,-0.0002833519,4,1
-0.0008418289,-0.0002956689,4,1
-0.0006321164,-0.0003060411,4,1
-0.0003720016,-0.000318358,4,1
-8.82253e-05,-0.0003327818,4,1
0.000185503,-0.000345585,4,1
0.0004230909,-0.0003561192,4,1
0.0006190279,-0.0003666535,4,1
0.0007780141,-0.0003817256,4,1
0.0009002115,-0.0003990665,4,1
0.0009695755,-0.0004143007,4,1
0.0009642274,-0.0004256453,4,1
0.000879143,-0.0004318037,4,1
0.0007297186,-0.000430021,4,1
0.0005436675,-0.0004204592,4,1
0.0003462718,-0.0004057112,4,1
0.0001577899,-0.000382698,4,1
-1.059602e-05,-0.0003446126,4,1
-0.000149486,-0.0002891863,4,1
-0.0002452666,-0.0002185258,4,1
-0.0002854588,-0.0001410586,4,1
-0.0002673075,-6.861539e-05,4,1
-0.0002024813,-1.189254e-05,4,1
-0.0001146419,2.927205e-05,4,1
-2.745081e-05,5.860588e-05,4,1
4.499239e-05,8.388807e-05,4,1
0.0001075496,0.0001132219,4,1
0.0001756171,0.0001529279,4,1
0.0002665357,0.0002064095,4,1
0.0003880847,0.0002725321,4,1
0.0005274609,0.0003414099,4,1
0.0006678096,0.0004033189,4,1
0.0007968137,0.0004527488,4,1
0.0009071803,0.0004890515,4,1
0.0009925888,0.0005195198,4,1
0.001048339,0.0005507984,4,1
0.001073297,0.0005835356,4,1
0.001071191,0.0006149763,4,1
0.00104445,0.0006467411,4,1
0.0009883752,0.0006768853,4,1
0.000896484,0.000690985,4,1
0.0007697488,0.0006671614,4,1
0.0006269692,0.0005953664,4,1
0.0004932652,0.000490348,4,1
0.0003884089,0.0003835469,4,1
0.0003124002,0.0003000832,4,1
0.0002525981,0.0002453052,4,1
0.0001910133,0.0002125679,4,1
0.0001122495,0.000192796,4,1
1.079661e-05,0.000180479,4,1
-0.0001036215,0.0001675138,4,1
-0.0002068571,0.0001480659,4,1
-0.0002775176,0.0001219734,4,1
-0.0003102548,8.84259e-05,4,1
-0.0003217614,5.034055e-05,4,1
-0.0003326198,9.986281e-06,4,1
-0.0003595226,-3.296103e-05,4,1
-0.0003985804,-7.704279e-05,4,1
-0.0004303451,-0.0001144799,4,1
-0.0004340726,-0.0001349001,4,1
-0.0004010113,-0.0001326312,4,1
-0.0003403989,-0.0001104282,4,1
-0.0002755728,-7.590833e-05,4,1
-0.0002295462,-3.976777e-05,4,1
-0.0002100984,-1.432352e-05,4,1
-0.0002112329,-1.335113e-05,4,1
-0.0002194982,-4.106429e-05,4,1
-0.0002185258,-9.114248e-05,4,1
-0.0002006986,-0.0001496481,4,1
-0.0001712027,-0.0002047502,4,1
-0.0001386276,-0.0002452666,4,1
-0.0001157764,-0.0002608248,4,1
-0.000112373,-0.0002470493,4,1
-0.0001277692,-0.0002002124,4,1
-0.000156941,-0.000122259,4,1
-0.000191785,-2.777494e-05,4,1
-0.0002263049,5.52025e-05,4,1
-0.0002580697,9.960841e-05,4,1
-0.000283514,9.037068e-05,4,1
-0.0003000446,3.397195e-05,4,1
-0.0003062031,-4.560212e-05,4,1
-0.0003019894,-0.0001188556,4,1
-0.0002869174,-0.0001661787,4,1
-0.0002630937,-0.0001862748,4,1
-0.0002326255,-0.0001874093,4,1
-0.000208964,-0.0001854645,4,1
-0.0002125294,-0.0001903264,4,1
-0.0002616352,-0.0001987538,4,1
-0.0003557951,-0.0002057227,4,1
-0.0004658375,-0.0002070192,4,1
-0.0005551354,-0.0002036158,4,1
-0.0006044033,-0.0001968091,4,1
-0.0006149375,-0.0001838438,4,1
-0.0006005137,-0.0001626133,4,1
-0.0005705316,-0.0001327933,4,1
-0.000526774,-9.778715e-05,4,1
-0.000464703,-5.970181e-05,4,1
-0.0003804291,-2.194059e-05,4,1
-0.0002783279,1.193106e-05,4,1
-0.0001739578,3.818565e-05,4,1
-8.158062e-05,5.666109e-05,4,1
-1.034161e-06,7.286763e-05,4,1
7.772959e-05,8.583286e-05,4,1
0.0001618415,9.26396e-05,4,1
0.0002529222,9.101894e-05,4,1
0.0003506476,7.90261e-05,4,1
0.0004462662,5.828175e-05,4,1
0.0005313505,3.170304e-05,4,1
0.0006071971,5.286387e-06,4,1
0.0006801266,-1.610624e-05,4,1
0.0007468975,-2.583016e-05,4,1
0.0007844968,-1.578211e-05,4,1
0.000753056,1.403791e-05,4,1
0.000629076,6.168512e-05,4,1
0.0004250357,0.000115977,4,1
0.000192958,0.0001584381,4,1
-1.432352e-05,0.0001751309,4,1
-0.0001627754,0.000160545,4,1
-0.0002498044,0.0001219734,4,1
-0.0002887001,7.319176e-05,4,1
-0.0002995585,2.975825e-05,4,1
-0.0003006929,2.623614e-07,4,1
-0.0002990722,-1.562004e-05,4,1
-0.0002836761,-1.772689e-05,4,1
-0.0002404046,-8.720959e-07,4,1
-0.0001575893,3.786152e-05,4,1
-3.474375e-05,9.26396e-05,4,1
0.0001166253,0.0001547106,4,1
0.000274639,0.0002164575,4,1
0.0004169324,0.0002733424,4,1
0.0005198439,0.0003182346,4,1
0.000567167,0.0003427064,4,1
0.0005582534,0.0003334687,4,1
0.0005086614,0.0002887387,4,1
0.0004443214,0.0002235884,4,1
0.0003947294,0.000162976,4,1
0.0003790091,0.0001273216,4,1
0.0003895433,0.0001247285,4,1
0.0004018603,0.0001519555,4,1
0.0003914881,0.0001963614,4,1
0.0003456236,0.0002415777,4,1
0.0002701012,0.0002681563,4,1
0.0001947408,0.0002558394,4,1
0.0001500107,0.0001919856,4,1
0.0001517934,8.307774e-05,4,1
0.0001924718,-4.203669e-05,4,1
0.0002470879,-0.0001489998,4,1
0.000282256,-0.0002152845,4,1
0.0002726942,-0.0002382978,4,1
0.000210299,-0.000231491,4,1
0.0001017153,-0.0002123673,4,1
-3.004385e-05,-0.0001914609,4,1
-0.0001533756,-0.0001770371,4,1
-0.0002399184,-0.0001801163,4,1
-0.0002765452,-0.0002039399,4,1
-0.000268604,-0.0002436459,4,1
-0.0002329496,-0.0002857829,4,1
-0.0001856265,-0.0003096065,4,1
-0.0001389517,-0.0003078238,4,1
-0.0001029732,-0.0002887001,4,1
-8.790117e-05,-0.000261149,4,1
-0.0001010285,-0.0002365151,4,1
-0.0001478653,-0.0002167431,4,1
-0.0002211189,-0.0002021572,4,1
-0.0002990722,-0.0001911368,4,1
-0.0003574158,-0.0001849783,4,1
-0.0003835083,-0.0001831956,4,1
-0.0003820497,-0.0001804405,4,1
-0.00036795,-0.0001677994,4,1
-0.0003510952,-0.0001394379,4,1
-0.000335537,-9.632857e-05,4,1
-0.0003245165,-4.414354e-05,4,1
-0.0003246786,6.90704e-06,4,1
-0.0003459091,4.82337e-05,4,1
-0.0003942046,7.691926e-05,4,1
-0.0004609755,9.182927e-05,4,1
-0.0005261258,9.199134e-05,4,1
-0.0005681007,8.080883e-05,4,1
-0.0005773384,6.476436e-05,4,1
-0.0005669662,5.001642e-05,4,1
-0.0005530285,3.60788e-05,4,1
-0.0005353634,1.54965e-05,4,1
-0.0005076503,-1.399939e-05,4,1
-0.0004645409,-4.284701e-05,4,1
-0.0004049009,-5.889148e-05,4,1
-0.0003288923,-5.775702e-05,4,1
-0.0002357047,-4.171256e-05,4,1
-0.0001209625,-1.529591e-05,4,1
1.338965e-05,1.776542e-05,4,1
0.0001623277,5.358185e-05,4,1
0.0003183966,8.518459e-05,4,1
0.0004684692,0.0001065772,4,1
0.0006007145,0.0001195424,4,1
0.0007060571,0.0001305629,4,1
0.0007770417,0.0001446626,4,1
0.0008113996,0.0001657311,4,1
0.0008126961,0.0001939304,4,1
0.0007828761,0.0002261814,4,1
0.0007243705,0.0002553532,4,1
0.000636531,0.0002733424,4,1
0.0005224369,0.000279663,4,1
0.0003992672,0.0002788527,4,1
0.0002908455,0.0002743149,4,1
0.0002166196,0.0002705873,4,1
0.0001808031,0.0002689667,4,1
0.0001746447,0.0002679943,4,1
0.0001850168,0.0002641047,4,1
0.0001893926,0.0002547049,4,1
0.0001657311,0.0002410915,4,1
0.000105929,0.0002268297,4,1
2.603075e-05,0.0002205092,4,1
-4.787104e-05,0.0002248849,4,1
-8.806324e-05,0.0002381743,4,1
-8.303922e-05,0.0002560015,4,1
-4.268495e-05,0.0002735045,4,1
1.209313e-05,0.0002850112,4,1
6.200925e-05,0.0002848491,4,1
9.912221e-05,0.0002675081,4,1
0.0001164632,0.0002310434,4,1
0.0001137081,0.0001837203,4,1
9.328786e-05,0.0001391524,4,1
5.698522e-05,0.0001012291,4,1
7.879432e-06,6.379197e-05,4,1
-5.370539e-05,1.889987e-05,4,1
-0.0001255003,-3.21507e-05,4,1
-0.0002032917,-8.498399e-05,4,1
-0.0002854588,-0.0001303623,4,1
-0.0003744326,-0.0001609926,4,1
-0.0004681064,-0.000174444,4,1
-0.000561456,-0.0001746061,4,1
-0.0006530228,-0.0001705545,4,1
-0.0007450759,-0.0001703924,4,1
-0.0008335636,-0.0001791439,4,1
-0.0009037378,-0.0001951884,4,1
-0.0009384198,-0.0002112329,4,1
-0.0009273994,-0.0002211189,4,1
-0.0008671111,-0.0002256567,4,1
-0.0007573929,-0.0002282497,4,1
-0.0006042412,-0.0002319772,4,1
-0.0004180282,-0.0002412149,4,1
-0.0002070192,-0.0002558008,4,1
2.635488e-05,-0.0002572594,4,1
0.0002798251,-0.0002277635,4,1
0.0005430193,-0.0001652063,4,1
0.0007882243,-8.595638e-05,4,1
0.0009822167,-1.513384e-05,4,1
0.001095176,2.943412e-05,4,1
0.001111545,4.013043e-05,4,1
0.001041695,1.857574e-05,4,1
0.000918849,-2.84232e-05,4,1
0.0007869278,-8.563225e-05,4,1
0.0006791542,-0.000137169,4,1
0.00060428,-0.0001726613,4,1
0.0005485295,-0.0001921092,4,1
0.0004921307,-0.0002010227,4,1
0.0004313562,-0.0002052365,4,1
0.0003730126,-0.0002073433,4,1
0.0003224483,-0.0002096122,4,1
0.000274801,-0.0002186879,4,1
0.0002216436,-0.0002337599,4,1
0.0001561692,-0.0002515871,4,1
8.259155e-05,-0.0002692523,4,1
1.274139e-05,-0.0002814071,4,1
-3.911951e-05,-0.0002825416,4,1
-5.727083e-05,-0.0002721694,4,1
-3.63644e-05,-0.000253694,4,1
2.003433e-05,-0.0002324634,4,1
9.733949e-05,-0.0002107467,4,1
0.0001765894,-0.0001857886,4,1
0.000234933,-0.0001528894,4,1
0.000259891,-0.0001092938,4,1
0.0002574601,-5.565017e-05,4,1
0.0002391467,2.531276e-06,4,1
0.0002111094,5.957827e-05,4,1
0.0001773998,0.0001088461,4,1
0.0001399627,0.0001449867,4,1
0.0001049566,0.0001725378,4,1
7.351589e-05,0.0002000889,4,1
3.883391e-05,0.0002365536,4,1
-1.075808e-05,0.000282256,4,1
-8.141856e-05,0.0003336308,4,1
-0.0001759026,0.0003851676,4,1
-0.0002924276,0.0004277907,4,1
-0.0004149489,0.0004584211,4,1
-0.0005204534,0.000475438,4,1
-0.0005896553,0.0004768966,4,1
-0.0006142893,0.0004647417,4,1
-0.0005997034,0.0004425387,4,1
-0.0005585388,0.0004136911,4,1
-0.0005079744,0.000383871,4,1
-0.0004661616,0.0003585888,4,1
-0.0004410415,0.0003357376,4,1
-0.0004313175,0.0003099692,4,1
-0.0004277521,0.0002759355,4,1
-0.0004202971,0.0002337985,4,1
-0.0003979321,0.0001859892,4,1
-0.0003595226,0.0001370455,4,1
-0.0003173856,8.826383e-05,4,1
-0.0002831898,4.126489e-05,4,1
-0.0002527216,-2.81688e-06,4,1
-0.0002180396,-4.203669e-05,4,1
-0.0001705545,-7.282909e-05,4,1
-0.0001102662,-9.308726e-05,4,1
-5.159854e-05,-0.0001018388,4,1
-1.043395e-05,-0.0001029732,4,1
8.851824e-06,-0.000104756,4,1
1.59827e-05,-0.0001135075,4,1
1.938607e-05,-0.0001290658,4,1
1.776542e-05,-0.0001509446,4,1
9.106227e-07,-0.0001804405,4,1
-3.620233e-05,-0.0002133397,4,1
-9.584238e-05,-0.0002415391,4,1
-0.0001621271,-0.0002619593,4,1
-0.0002147983,-0.000273628,4,1
-0.0002423494,-0.0002742763,4,1
-0.0002441321,-0.0002617972,4,1
-0.0002345703,-0.0002392702,4,1
-0.0002344082,-0.0002100984,4,1
-0.0002496423,-0.0001757406,4,1
-0.0002635799,-0.0001397621,4,1
-0.0002554767,-0.0001060525,4,1
-0.0002071812,-8.190475e-05,4,1
-0.0001118868,-8.044617e-05,4,1
1.906194e-05,-0.0001102662,4,1
0.0001590864,-0.0001679614,4,1
0.0002809595,-0.0002399184,4,1
0.0003722023,-0.0003053928,4,1
0.0004347596,-0.0003454229,4,1
0.0004762483,-0.0003486642,4,1
0.0005060683,-0.0003170615,4,1
0.0005321609,-0.0002622834,4,1
0.00055955,-0.0001963229,4,1
0.0005866149,-0.0001350622,4,1
0.0006107626,-8.336335e-05,4,1
0.0006258347,-3.458168e-05,4,1
0.0006208107,2.100672e-05,4,1
0.0005861287,8.405014e-05,4,1
0.0005219508,0.0001445005,4,1
0.0004367043,0.0001923098,4,1
0.0003464339,0.000225209,4,1
0.000264753,0.0002466017,4,1
0.0001960373,0.0002663737,4,1
0.0001323456,0.0002897111,4,1
6.914012e-05,0.0003161277,4,1
1.209313e-05,0.0003404375,4,1
-3.296103e-05,0.0003584268,4,1
-6.326724e-05,0.000368961,4,1
-7.769106e-05,0.0003780367,4,1
-8.498399e-05,0.0003927847,4,1
-9.341139e-05,0.0004146635,4,1
-0.0001159385,0.0004415663,4,1
-0.0001608306,0.0004684692,4,1
-0.0002271153,0.0004911583,4,1
-0.0003018274,0.0005102821,4,1
-0.0003648708,0.0005315126,4,1
-0.0003914495,0.0005561466,4,1
-0.0003642225,0.0005731634,4,1
-0.0002822175,0.00055955,4,1
-0.0001673132,0.0004956961,4,1
-5.030202e-05,0.0003811159,4,1
4.72613e-05,0.0002323399,4,1
0.000123432,7.886404e-05,4,1
0.0001867996,-4.997789e-05,4,1
0.0002453052,-0.0001352242,4,1
0.0003028383,-0.0001690959,4,1
0.0003579406,-0.0001579134,4,1
0.0004042913,-0.0001164247,4,1
0.0004350837,-6.91016e-05,4,1
0.0004448076,-3.587821e-05,4,1
0.0004196875,-2.615429e-05,4,1
0.0003519442,-3.701266e-05,4,1
0.0002551911,-5.743289e-05,4,1
0.0001553589,-7.509801e-05,4,1
7.400208e-05,-8.547019e-05,4,1
2.052053e-05,-8.919769e-05,4,1
-4.923729e-06,-8.854943e-05,4,1
-3.465141e-06,-8.757704e-05,4,1
2.181705e-05,-8.806324e-05,4,1
5.730935e-05,-8.628052e-05,4,1
7.610894e-05,-8.158062e-05,4,1
4.45062e-05,-7.315322e-05,4,1
-4.673658e-05,-6.164659e-05,4,1
-0.0001708786,-4.770897e-05,4,1
-0.0002814071,-2.89094e-05,4,1
-0.0003433161,-8.002969e-06,4,1
-0.0003475298,6.744974e-06,4,1
-0.0002948586,6.096713e-06,4,1
-0.00019924,-1.010982e-05,4,1
-8.644259e-05,-3.506788e-05,4,1
1.112074e-05,-6.39155e-05,4,1
6.978839e-05,-0.0001021629,4,1
8.875003e-05,-0.0001543479,4,1
8.178122e-05,-0.000216581,4,1
6.83298e-05,-0.0002796244,4,1
6.330578e-05,-0.0003425058,4,1
6.78436e-05,-0.0004112214,4,1
7.011252e-05,-0.0004841508,4,1
5.585077e-05,-0.0005502735,4,1
1.338965e-05,-0.000591438,4,1
-7.736692e-05,-0.0006005137,4,1
-0.0002342462,-0.0005804176,4,1
-0.0004465517,-0.0005402254,4,1
-0.0006684191,-0.0004899852,4,1
-0.0008460426,-0.0004361795,4,1
-0.00094863,-0.0003825359,4,1
-0.000976019,-0.000330675,4,1
-0.000948792,-0.00027849,4,1
-0.0008829935,-0.000226467,4,1
-0.0007915886,-0.0001739578,4,1
-0.0006799257,-0.0001214487,4,1
-0.0005447632,-7.299116e-05,4,1
-0.0003749188,-3.63644e-05,4,1
-0.0001763888,-1.545797e-05,4,1
4.369587e-05,-3.14101e-06,4,1
0.0002824181,1.047248e-05,4,1
0.0005295678,3.024445e-05,4,1
0.0007637524,5.649903e-05,4,1
0.0009548276,8.696731e-05,4,1
0.001079132,0.0001182459,4,1
0.001131641,0.0001472556,4,1
0.001122727,0.0001757791,4,1
0.001071029,0.0002091646,4,1
0.001000044,0.0002477361,4,1
0.0009198214,0.0002825802,4,1
0.0008279303,0.0003015418,4,1
0.000718212,0.0002934386,4,1
0.0005840218,0.0002574601,4,1
0.0004239012,0.0002117576,4,1
0.000239957,0.0001798307,4,1
5.19612e-05,0.0001775618,4,1
-0.0001036215,0.0002039785,4,1
-0.0001984297,0.00024255,4,1
-0.0002293842,0.0002751252,4,1
-0.0002138259,0.0002918179,4,1
-0.0001752544,0.0002861456,4,1
-0.0001318209,0.0002637806,4,1
-8.854943e-05,0.0002412535,4,1
-4.446767e-05,0.0002323399,4,1
2.693341e-06,0.0002415777,4,1
5.698522e-05,0.0002618358,4,1
0.0001154908,0.0002786906,4,1
0.0001689724,0.0002751252,4,1
0.0001994406,0.000242388,4,1
0.0001869616,0.0001869616,4,1
0.0001146805,0.0001214872,4,1
-2.258885e-05,6.281957e-05,4,1
-0.000211557,2.408596e-05,4,1
-0.0004204592,7.879432e-06,4,1
-0.0006027826,1.112074e-05,4,1
-0.0007194696,3.040651e-05,4,1
-0.0007536653,5.747142e-05,4,1
-0.0007157421,8.923623e-05,4,1
-0.0006358439,0.0001245665,4,1
-0.0005577285,0.0001624898,4,1
-0.0005185087,0.0001861513,4,1
-0.0005326084,0.0001618415,4,1
-0.00058139,6.573675e-05,4,1
-0.0006257959,-8.692878e-05,4,1
-0.0006290372,-0.0002523975,4,1
-0.000571504,-0.0003870737,4,1
-0.0004614617,-0.00046211,4,1
-0.0003227338,-0.0004716718,4,1
-0.000174282,-0.0004280762,4,1
-2.161646e-05,-0.0003561192,4,1
0.0001404489,-0.0002799486,4,1
0.0003067279,-0.00021415,4,1
0.000455666,-0.0001637477,4,1
0.00055955,-0.000127121,4,1
0.0006037938,-0.0001003802,4,1
0.0005952043,-7.574627e-05,4,1
0.0005592257,-5.013995e-05,4,1
0.0005292437,-2.258885e-05,4,1
0.0005297299,5.124321e-06,4,1
0.0005608465,3.267542e-05,4,1
0.0005965008,6.168512e-05,4,1
0.0005982835,9.750156e-05,4,1
0.0005405883,0.0001427178,4,1
0.0004310321,0.0001961994,4,1
0.0002958695,0.0002615117,4,1
0.0001675138,0.0003454615,4,1
6.881599e-05,0.0004465904,4,1
6.582909e-06,0.0005499881,4,1
-4.05781e-05,0.0006375034,4,1
-0.000104918,0.0006942263,4,1
-0.0002055606,0.0007102708,4,1
-0.0003327818,0.0006867713,4,1
-0.0004580583,0.0006387999,4,1
-0.0005518941,0.0005843459,4,1
-0.0006032689,0.0005344298,4,1
-0.0006233649,0.0004867825,4,1
-0.0006368163,0.0004315182,4,1
-0.0006528608,0.0003662059,4,1
-0.0006585331,0.0002963557,4,1
-0.0006301716,0.0002203471,4,1
-0.0005484907,0.0001318594,4,1
-0.0004071698,2.732727e-05,4,1
-0.0002219292,-8.579432e-05,4,1
-2.356124e-05,-0.0001950263,4,1
0.0001451488,-0.0002874036,4,1
0.0002495189,-0.0003493125,4,1
0.000279663,-0.0003786463,4,1
0.000252436,-0.0003810773,4,1
0.0002057612,-0.0003668155,4,1
0.000180479,-0.0003442885,4,1
0.0002008992,-0.0003212752,4,1
0.0002655633,-0.0003005308,4,1
0.0003506476,-0.0002789762,4,1
0.0004192013,-0.000251263,4,1
0.0004436732,-0.0002177155,4,1
0.0004143393,-0.0001825473,4,1
0.0003428685,-0.0001535376,4,1
0.0002501671,-0.000134738,4,1
0.0001624898,-0.0001243659,4,1
0.0001002567,-0.0001186936,4,1
7.092284e-05,-0.0001182074,4,1
7.432621e-05,-0.0001251762,4,1
0.0001030118,-0.0001368449,4,1
0.0001427178,-0.0001477033,4,1
0.0001752929,-0.0001546721,4,1
0.0001820997,-0.0001538618,4,1
0.0001542244,-0.0001459206,4,1
9.507057e-05,-0.0001334415,4,1
2.068259e-05,-0.0001206384,4,1
-5.062615e-05,-0.000112373,4,1
-0.0001042698,-0.0001115627,4,1
-0.0001332795,-0.0001177212,4,1
-0.0001430034,-0.000127121,4,1
-0.0001451102,-0.000134738,4,1
-0.0001517549,-0.0001355484,4,1
-0.0001637477,-0.0001258245,4,1
-0.0001733096,-0.0001070249,4,1
-0.0001677994,-8.838737e-05,4,1
-0.0001381414,-8.384954e-05,4,1
-8.222889e-05,-9.924574e-05,4,1
-5.734056e-06,-0.0001277692,4,1
7.67572e-05,-0.0001540238,4,1
0.0001461212,-0.0001708786,4,1
0.0001882582,-0.0001765509,4,1
0.0002072198,-0.0001700683,4,1
0.0002096508,-0.0001551583,4,1
0.0001987924,-0.0001340898,4,1
0.0001749688,-0.0001157764,4,1
0.0001326697,-0.0001054042,4,1
6.83298e-05,-0.0001052422,4,1
-2.113026e-05,-0.0001133454,4,1
-0.0001224211,-0.000122259,4,1
-0.0002118811,-0.0001235555,4,1
-0.0002674695,-0.0001130213,4,1
-0.0002833519,-9.746302e-05,4,1
-0.0002697385,-8.563225e-05,4,1
-0.0002475355,-8.174268e-05,4,1
-0.0002308428,-8.465986e-05,4,1
-0.0002156086,-8.903562e-05,4,1
-0.0001865989,-9.098041e-05,4,1
-0.0001361966,-9.098041e-05,4,1
-7.412562e-05,-9.098041e-05,4,1
-2.242678e-05,-9.260107e-05,4,1
9.106227e-07,-9.746302e-05,4,1
-8.975362e-06,-0.0001016767,4,1
-4.592625e-05,-0.0001016767,4,1
-9.697683e-05,-9.713889e-05,4,1
-0.000151917,-8.725291e-05,4,1
-0.0002010227,-7.072225e-05,4,1
-0.0002404046,-4.706071e-05,4,1
-0.0002695764,-1.934754e-05,4,1
-0.0002877277,8.365628e-06,4,1
-0.0002919414,3.364782e-05,4,1
-0.0002878898,5.536457e-05,4,1
-0.0002789762,7.610894e-05,4,1
-0.0002626076,0.0001000946,4,1
-0.0002345703,0.0001268354,4,1
-0.0001950263,0.000153252,4,1
-0.0001517549,0.0001773998,4,1
-0.0001154523,0.0001987924,4,1
-9.794922e-05,0.0002141886,4,1
-0.0001042698,0.0002242366,4,1
-0.0001185315,0.0002287745,4,1
-0.0001182074,0.0002229401,4,1
-8.968389e-05,0.0002054371,4,1
-2.534396e-05,0.0001822617,4,1
8.032264e-05,0.0001610312,4,1
0.0002239125,0.0001534141,4,1
0.000388895,0.0001600588,4,1
0.0005558224,0.000177886,4,1
0.0007102708,0.0002008992,4,1
0.0008454334,0.0002208333,4,1
0.0009519104,0.0002316917,4,1
0.001021274,0.0002312055,4,1
0.001054336,0.0002179161,4,1
0.001060656,0.0001919856,4,1
0.001049798,0.0001535762,4,1
0.001028567,0.0001094944,4,1
0.001002475,6.638502e-05,4,1
0.0009788133,2.862379e-05,4,1
0.0009564483,-5.085794e-06,4,1
0.0009301936,-3.279896e-05,4,1
0.0008997253,-5.095028e-05,4,1
0.000869257,-5.32192e-05,4,1
0.0008391128,-3.409549e-05,4,1
0.0008057273,2.531276e-06,4,1
0.0007613214,4.758544e-05,4,1
0.000690823,9.069481e-05,4,1
0.0005798081,0.0001248906,4,1
0.0004229288,0.0001514693,4,1
0.0002214815,0.0001748067,4,1
-2.0482e-05,0.0002007372,4,1
-0.000286107,0.0002342847,4,1
-0.0005413599,0.000274801,4,1
-0.0007491275,0.0003130485,4,1
-0.0008825073,0.0003376824,4,1
-0.0009366371,0.0003422202,4,1
-0.0009269132,0.0003305515,4,1
-0.0008774833,0.0003099692,4,1
-0.0008139537,0.0002858215,4,1
-0.0007536653,0.0002571359,4,1
-0.0007118525,0.0002214815,4,1
-0.0007014804,0.0001762653,4,1
-0.0007275729,0.0001244044,4,1
-0.0007791097,7.043665e-05,4,1
-0.0008314567,1.873781e-05,4,1
-0.0008577113,-2.307504e-05,4,1
-0.0008299981,-4.916756e-05,4,1
-0.0007390795,-6.213279e-05,4,1
-0.0006092652,-6.796714e-05,4,1
-0.0004797751,-6.796714e-05,4,1
-0.0003825359,-5.856735e-05,4,1
-0.0003269475,-3.620233e-05,4,1
-0.0002992343,-2.654814e-06,4,1
-0.0002789762,3.413401e-05,4,1
-0.0002489941,6.541262e-05,4,1
-0.0002044261,8.583286e-05,4,1
-0.0001498101,9.68533e-05,4,1
-8.919769e-05,0.0001000946,4,1
-2.534396e-05,9.814982e-05,4,1
3.899597e-05,8.988449e-05,4,1
0.0001005808,7.367795e-05,4,1
0.0001508211,4.272347e-05,4,1
0.0001845306,-4.437533e-06,4,1
0.0002025199,-6.44017e-05,4,1
0.0002065715,-0.0001305243,4,1
0.000205275,-0.0001943781,4,1
0.0002072198,-0.0002494803,4,1
0.0002140265,-0.0002969654,4,1
0.0002231022,-0.0003374817,4,1
0.0002308813,-0.0003728119,4,1
0.000237526,-0.0003998769,4,1
0.000244981,-0.0004117076,4,1
0.0002542187,-0.0004029561,4,1
0.0002595669,-0.000372974,4,1
0.0002415777,-0.0003284061,4,1
0.0001806411,-0.0002820554,4,1
7.108491e-05,-0.0002397564,4,1
-7.688073e-05,-0.0002008607,4,1
-0.0002489941,-0.000161965,4,1
-0.0004266177,-0.0001277692,4,1
-0.0005844692,-9.973194e-05,4,1
-0.0006962943,-8.02841e-05,4,1
-0.0007468587,-6.81292e-05,4,1
-0.0007343796,-5.986387e-05,4,1
-0.0006693914,-5.22468e-05,4,1
-0.0005766901,-4.138842e-05,4,1
-0.0004797751,-2.46957e-05,4,1
-0.0003920977,-3.465141e-06,4,1
-0.0003091203,1.938607e-05,4,1
-0.0002097743,4.288554e-05,4,1
-7.898758e-05,6.217132e-05,4,1
8.129502e-05,7.30297e-05,4,1
0.0002543808,7.157111e-05,4,1
0.0004132049,5.471631e-05,4,1
0.0005370228,2.522042e-05,4,1
0.0006183797,-6.706447e-06,4,1
0.0006621373,-2.923353e-05,4,1
0.0006781818,-3.360929e-05,4,1
0.0006789921,-1.513384e-05,4,1
0.0006798024,2.327564e-05,4,1
0.0006903367,7.432621e-05,4,1
0.0007097846,0.0001312112,4,1
0.000720805,0.000187934,4,1
0.0007054088,0.0002384984,4,1
0.0006481997,0.0002751252,4,1
0.0005499881,0.0002931144,4,1
0.0004180668,0.0002944109,4,1
0.0002611876,0.0002889007,4,1
8.453633e-05,0.000284525,4,1
-0.0001039456,0.0002864697,4,1
-0.0002929138,0.0002903593,4,1
-0.0004600031,0.0002887387,4,1
-0.0005847933,0.00027707,4,1
-0.0006580469,0.0002582704,4,1
-0.0006890013,0.0002370398,4,1
-0.0007037492,0.0002164575,4,1
-0.000727897,0.0001958752,4,1
-0.0007643617,0.0001744826,4,1
-0.0007943438,0.0001537382,4,1
-0.0007865646,0.0001360731,4,1
-0.0007159042,0.0001252147,4,1
-0.0005728005,0.0001206769,4,1
-0.0003728119,0.0001193804,4,1
-0.0001512687,0.0001198666,4,1
5.098881e-05,0.0001218114,4,1
0.0002098128,0.0001244044,4,1
0.0003303894,0.0001248906,4,1
0.0004318424,0.0001182459,4,1
0.0005329712,0.0001046324,4,1
0.0006331276,8.46984e-05,4,1
0.0007196706,5.228533e-05,4,1
0.0007853071,2.623614e-07,4,1
0.0008280924,-6.764301e-05,4,1
0.0008562917,-0.0001311726,4,1
0.0008781706,-0.0001674752,4,1
0.000901346,-0.0001639098,4,1
0.0009224145,-0.0001308485,4,1
0.0009339211,-9.503204e-05,4,1
0.0009310039,-8.206682e-05,4,1
0.0009135009,-0.0001008664,4,1
0.000871688,-0.000144462,4,1
0.0007880622,-0.0002000504,4,1
0.000661327,-0.0002574215,4,1
0.0005037994,-0.0003060411,4,1
0.0003333067,-0.0003387782,4,1
0.0001594105,-0.0003522297,4,1
-8.651231e-06,-0.0003486642,4,1
-0.0001590478,-0.0003326198,4,1
-0.0002731418,-0.0003074997,4,1
-0.0003311612,-0.0002754107,4,1
-0.0003266234,-0.0002345703,4,1
-0.0002627696,-0.0001864369,4,1
-0.0001536997,-0.0001327933,4,1
-2.583016e-05,-7.428769e-05,4,1
9.393612e-05,-1.3027e-05,4,1
0.0001749688,4.677511e-05,4,1
0.0001966855,9.442231e-05,4,1
0.0001504969,0.0001154908,4,1
4.418206e-05,0.0001025256,4,1
-9.924574e-05,5.666109e-05,4,1
-0.000251263,-8.165035e-06,4,1
-0.0003883702,-7.65566e-05,4,1
-0.0004906334,-0.0001378173,4,1
-0.0005497872,-0.0001814128,4,1
-0.0005681007,-0.0002029675,4,1
-0.0005504355,-0.0002120432,4,1
-0.0005057055,-0.0002220912,4,1
-0.0004459034,-0.0002397564,4,1
-0.0003838324,-0.0002564491,4,1
-0.0003387782,-0.0002650386,4,1
-0.0003241924,-0.0002588801,4,1
-0.0003308371,-0.000231491,4,1
-0.0003348887,-0.0001822232,4,1
-0.0003147926,-0.0001170729,4,1
-0.0002684419,-4.38194e-05,4,1
-0.0002097743,3.008238e-05,4,1
-0.0001590478,9.68533e-05,4,1
-0.000132145,0.0001539003,4,1
-0.0001381414,0.0002007372,4,1
-0.000176713,0.0002346088,4,1
-0.0002300324,0.0002566497,4,1
-0.0002703867,0.0002675081,4,1
-0.000281083,0.0002670219,4,1
-0.0002608248,0.0002555152,4,1
-0.0002232257,0.0002381743,4,1
-0.0001880575,0.0002195368,4,1
-0.0001671511,0.0001997648,4,1
-0.0001588858,0.0001752929,4,1
-0.0001549962,0.0001509831,4,1
-0.0001554824,0.0001376938,4,1
-0.0001658546,0.0001490383,4,1
-0.0001865989,0.00018291,4,1
-0.0002110708,0.0002266676,4,1
-0.0002342462,0.000259891,4,1
-0.0002541802,0.0002615117,4,1
-0.0002684419,0.0002158093,4,1
-0.0002770314,0.0001260251,4,1
-0.0002867553,1.59827e-05,4,1
-0.00030831,-8.190475e-05,4,1
-0.0003397507,-0.0001417068,4,1
-0.0003632501,-0.0001558065,4,1
-0.0003614674,-0.0001292278,4,1
-0.0003314853,-8.109443e-05,4,1
-0.0002833519,-2.664048e-05,4,1
-0.0002211189,2.505836e-05,4,1
-0.0001442999,7.319176e-05,4,1
-5.791909e-05,0.000115977,4,1
2.781346e-05,0.0001498487,4,1
0.0001049566,0.0001772377,4,1
0.0001715654,0.0001960373,4,1
0.0002255332,0.000200413,4,1
0.0002626462,0.0001887444,4,1
0.00027707,0.0001692965,4,1
0.0002679943,0.0001498487,4,1
0.000247412,0.0001329939,4,1
0.0002315296,0.0001185701,4,1
0.0002341226,0.0001049566,4,1
0.0002535705,8.923623e-05,4,1
0.0002793389,6.800567e-05,4,1
0.0003025142,4.434413e-05,4,1
0.0003188828,2.76514e-05,4,1
0.0003200173,2.667901e-05,4,1
0.000297004,4.158902e-05,4,1
0.0002516257,6.735741e-05,4,1
0.0001940925,9.442231e-05,4,1
0.0001401247,0.0001190562,4,1
9.393612e-05,0.0001430419,4,1
4.985435e-05,0.0001696206,4,1
3.665733e-06,0.0002036544,4,1
-4.398147e-05,0.0002417397,4,1
-8.692878e-05,0.0002733424,4,1
-0.000119828,0.0002829043,4,1
-0.0001452723,0.0002579462,4,1
-0.0001707166,0.0001989545,4,1
-0.0001998883,0.0001182459,4,1
-0.0002263049,3.397195e-05,4,1
-0.0002489941,-3.68506e-05,4,1
-0.0002838381,-8.595638e-05,4,1
-0.0003460712,-0.0001144799,4,1
-0.0004309934,-0.000127283,4,1
-0.0005034366,-0.0001305243,4,1
-0.0005189948,-0.000132145,4,1
-0.0004517378,-0.0001365208,4,1
-0.0003117133,-0.0001439758,4,1
-0.0001300382,-0.0001507825,4,1
6.200925e-05,-0.0001533756,4,1
0.0002417397,-0.0001527273,4,1
0.0003966742,-0.0001527273,4,1
0.0005221128,-0.0001603444,4,1
0.0006212969,-0.0001783336,4,1
0.0006995744,-0.0002019951,4,1
0.0007601869,-0.0002222533,4,1
0.0007972999,-0.0002327876,4,1
0.0008081583,-0.0002284118,4,1
0.0008016757,-0.0002081536,4,1
0.0007948689,-0.0001789819,4,1
0.0007937344,-0.000149486,4,1
0.0007938966,-0.0001255003,4,1
0.0007890346,-0.0001159385,4,1
0.0007746107,-0.0001217728,4,1
0.00074317,-0.0001384655,4,1
0.0006751026,-0.0001535376,4,1
0.0005574431,-0.0001572651,4,1
0.0004015361,-0.000142031,4,1
0.0002402811,-0.0001065387,4,1
0.0001056048,-6.375344e-05,4,1
6.582909e-06,-3.620233e-05,4,1
-6.942573e-05,-3.279896e-05,4,1
-0.0001384655,-4.835724e-05,4,1
-0.0002094502,-7.039812e-05,4,1
-0.000268766,-8.757704e-05,4,1
-0.0002893484,-9.081835e-05,4,1
-0.0002502906,-8.174268e-05,4,1
-0.0001515928,-6.278104e-05,4,1
-1.99958e-05,-3.830919e-05,4,1
9.798775e-05,-1.497178e-05,4,1
0.0001671896,5.772582e-06,4,1
0.0001717275,2.716521e-05,4,1
0.0001174356,5.131294e-05,4,1
2.262738e-05,7.918817e-05,4,1
-8.709085e-05,0.0001099806,4,1
-0.0001906506,0.000138342,4,1
-0.0002677937,0.0001564933,4,1
-0.0003079858,0.0001634622,4,1
-0.0003121996,0.0001590864,4,1
-0.0002950206,0.0001417454,4,1
-0.0002700626,0.000113546,4,1
-0.0002504527,7.918817e-05,4,1
-0.0002421874,4.434413e-05,4,1
-0.0002451045,1.193106e-05,4,1
-0.0002575835,-1.545797e-05,4,1
-0.0002744383,-3.782299e-05,4,1
-0.0002891863,-5.419158e-05,4,1
-0.0002989102,-6.229485e-05,4,1
-0.0003049066,-6.261898e-05,4,1
-0.0003050687,-5.775702e-05,4,1
-0.0002911311,-5.22468e-05,4,1
-0.000253694,-5.013995e-05,4,1
-0.0001914609,-5.127441e-05,4,1
-0.000114804,-5.516398e-05,4,1
-4.754691e-05,-6.051213e-05,4,1
-9.623623e-06,-6.829127e-05,4,1
-9.623623e-06,-8.141856e-05,4,1
-4.641245e-05,-9.66527e-05,4,1
-0.0001034594,-0.0001133454,4,1
-0.0001637477,-0.0001274451,4,1
-0.000219012,-0.0001360346,4,1
-0.0002703867,-0.0001363587,4,1
-0.0003220855,-0.0001253383,4,1
-0.0003684362,-9.908367e-05,4,1
-0.0003899909,-6.197072e-05,4,1
-0.0003698948,-2.177852e-05,4,1
-0.0003066893,1.419998e-05,4,1
-0.0002143121,4.207521e-05,4,1
-0.0001138316,6.346784e-05,4,1
-2.291298e-05,8.129502e-05,4,1
4.807163e-05,9.766362e-05,4,1
0.0001028497,0.0001119254,4,1
0.0001516314,0.0001269974,4,1
0.0002017096,0.000140773,4,1
0.0002488706,0.0001514693,4,1
0.0002741528,0.0001584381,4,1
0.0002652392,0.0001649207,4,1
0.0002281262,0.000173024,4,1
0.0001843686,0.0001808031,4,1
0.0001561692,0.0001851789,4,1
0.0001539003,0.0001848548,4,1
0.0001748067,0.0001788584,4,1
0.0002096508,0.0001696206,4,1
0.0002448189,0.000163138,4,1
0.0002741528,0.0001699448,4,1
0.0002948972,0.0001910133,4,1
0.0003046211,0.0002171058,4,1
0.0003072141,0.0002365536,4,1
0.0003125623,0.0002397949,4,1
0.0003323342,0.0002260194,4,1
0.0003653956,0.0002030061,4,1
0.0004016982,0.0001769136,4,1
0.0004324906,0.0001521176,4,1
0.0004545315,0.0001318594,4,1
0.000473007,0.0001192183,4,1
0.0004898618,0.0001119254,4,1
0.0005021787,0.0001101427,4,1
0.0004956961,0.0001081979,4,1
0.000453235,0.0001025256,4,1
0.0003704196,9.68533e-05,4,1
0.0002568118,9.442231e-05,4,1
0.0001302388,9.588091e-05,4,1
1.419998e-05,9.912221e-05,4,1
-6.991193e-05,0.0001028497,4,1
-0.0001114006,0.0001044704,4,1
-0.0001175591,0.0001028497,4,1
-0.0001081593,9.766362e-05,4,1
-0.0001018388,8.615699e-05,4,1
-0.0001107524,6.654708e-05,4,1
-0.0001441378,4.385793e-05,4,1
-0.0002063709,2.505836e-05,4,1
-0.0002906449,1.614476e-05,4,1
-0.0003804291,1.468618e-05,4,1
-0.0004591928,1.744129e-05,4,1
-0.0005228845,1.938607e-05,4,1
-0.0005781487,1.760335e-05,4,1
-0.0006244993,1.517237e-05,4,1
-0.0006586951,1.484824e-05,4,1
-0.0006726327,1.241726e-05,4,1
-0.0006596675,4.313994e-06,4,1
-0.0006141272,-9.137427e-06,4,1
-0.0005358497,-2.258885e-05,4,1
-0.0004319658,-2.550602e-05,4,1
-0.0003115513,-1.335113e-05,4,1
-0.0001806025,9.175954e-06,4,1
-4.868137e-05,3.008238e-05,4,1
7.52986e-05,4.045456e-05,4,1
0.0001783722,3.964424e-05,4,1
0.0002493568,3.105477e-05,4,1
0.0002851732,1.744129e-05,4,1
0.0002897111,-6.176923e-08,4,1
0.0002692908,-1.99958e-05,4,1
0.0002268297,-3.555408e-05,4,1
0.000165569,-4.187462e-05,4,1
9.328786e-05,-3.555408e-05,4,1
1.12828e-05,-1.837515e-05,4,1
-8.320128e-05,2.623614e-07,4,1
-0.0001862748,1.209313e-05,4,1
-0.0002836761,1.209313e-05,4,1
-0.0003587123,-2.654814e-06,4,1
-0.0004023079,-3.344723e-05,4,1
-0.0004196489,-7.704279e-05,4,1
-0.0004261314,-0.0001300382,4,1
-0.0004335865,-0.000189192,4,1
-0.000449955,-0.000251263,4,1
-0.0004742648,-0.0003102548,4,1
-0.000504409,-0.0003585502,4,1
-0.0005314739,-0.0003899909,4,1
-0.0005436288,-0.000402794,4,1
-0.0005337428,-0.000402794,4,1
-0.0004998712,-0.0003963114,4,1
-0.0004489826,-0.0003823738,4,1
-0.0003890185,-0.0003619536,4,1
-0.0003267854,-0.0003403989,4,1
-0.0002564491,-0.000325813,4,1
-0.0001679614,-0.0003237062,4,1
-5.483985e-05,-0.0003305129,4,1
8.064677e-05,-0.000335699,4,1
0.0002265056,-0.0003259751,4,1
0.0003670162,-0.0002938862,4,1
0.0004942376,-0.0002417012,4,1
0.0006065489,-0.0001765509,4,1
0.0007105949,-0.0001099421,4,1
0.0008240407,-4.754691e-05,4,1
0.0009642274,5.934648e-06,4,1
0.001137638,5.179914e-05,4,1
0.001327578,8.939829e-05,4,1
0.001505364,0.0001214872,4,1
0.001639555,0.0001503349,4,1
0.001710216,0.000178048,4,1
0.001715402,0.0002070577,4,1
0.001663378,0.0002344468,4,1
0.001566625,0.0002485465,4,1
0.001429194,0.0002384984,4,1
0.001250111,0.0002062474,4,1
0.00103424,0.000162976,4,1
0.0008036205,0.000121001,4,1
0.0005804563,8.583286e-05,4,1
0.0003722023,6.41161e-05,4,1
0.0001756171,5.747142e-05,4,1
-1.788895e-05,6.427817e-05,4,1
-0.0002229016,8.340187e-05,4,1
-0.0004431483,0.0001112771,4,1
-0.0006643674,0.0001427178,4,1
-0.0008617629,0.0001782101,4,1
