EMG1,EMG2,class,user
0.0005039615,-0.0004019837,4,1
0.000393595,-0.0002616352,4,1
0.0002242366,-0.0001310105,4,1
3.218923e-05,-2.323711e-05,4,1
-0.0001366828,5.406805e-05,4,1
-0.0002549905,0.0001013911,4,1
-0.0003190063,0.0001245665,4,1
-0.0003371576,0.0001323456,4,1
-0.0003186821,0.000135749,4,1
-0.0002673075,0.0001436902,4,1
-0.0001908126,0.0001621656,4,1
-0.0001075111,0.0001961994,4,1
-3.814712e-05,0.0002393087,4,1
5.610517e-06,0.0002824181,4,1
2.505836e-05,0.0003164518,4,1
2.748934e-05,0.0003386548,4,1
1.54965e-05,0.0003563199,4,1
-1.059602e-05,0.0003675024,4,1
-4.495386e-05,0.0003508097,4,1
-7.785312e-05,0.0002812837,4,1
-9.746302e-05,0.0001589243,4,1
-9.778715e-05,3.341602e-06,4,1
-8.433573e-05,-0.0001496481,4,1
-6.586029e-05,-0.0002549905,4,1
-5.305713e-05,-0.0002771934,4,1
-5.402952e-05,-0.0002096122,4,1
-6.602235e-05,-8.07703e-05,4,1
-7.769106e-05,5.455425e-05,4,1
-8.125649e-05,0.000128294,4,1
-7.704279e-05,0.0001051186,4,1
-7.55842e-05,-3.14101e-06,4,1
-8.044617e-05,-0.0001421931,4,1
-9.324933e-05,-0.0002553146,4,1
-0.0001083214,-0.0003087962,4,1
-0.0001173971,-0.0003015032,4,1
-0.0001182074,-0.0002527216,4,1
-0.000119666,-0.0001801163,4,1
-0.0001336036,-9.000802e-05,4,1
-0.0001686097,1.808955e-05,4,1
-0.0002191741,0.0001453108,4,1
-0.0002768693,0.0002900352,4,1
-0.0003373197,0.0004470765,4,1
-0.0003938804,0.0006063868,4,1
-0.0004363416,0.0007548388,4,1
-0.0004583824,0.0008752534,4,1
-0.0004627582,0.0009603378,4,1
-0.0004614617,0.001014143,4,1
-0.0004741028,0.001050284,4,1
-0.0005157535,0.001083346,4,1
-0.0005843072,0.001119324,4,1
-0.0006572366,0.001138124,4,1
-0.0006941874,0.001098418,4,1
-0.0006572366,0.0009736272,4,1
-0.0005259637,0.0007741245,4,1
-0.0003112272,0.000542371,4,1
-5.208474e-05,0.000324393,4,1
0.0001876099,0.0001414213,4,1
0.0003504856,-1.886135e-05,4,1
0.0004203358,-0.0001705545,4,1
0.0004264942,-0.000310903,4,1
0.0004250357,-0.0004233763,4,1
0.0004543695,-0.0004886886,4,1
0.0005156302,-0.0005006815,4,1
0.0005777013,-0.0004692408,4,1
0.0006099523,-0.0004141386,4,1
0.0006029835,-0.0003632501,4,1
0.000572029,-0.0003360231,4,1
0.0005334574,-0.000338292,4,1
0.0004892136,-0.0003561192,4,1
0.0004307079,-0.0003697327,4,1
0.0003443271,-0.0003663294,4,1
0.0002245608,-0.0003444506,4,1
9.21534e-05,-0.0003162512,4,1
-6.382317e-06,-0.0002969654,4,1
-2.809907e-05,-0.0002948586,4,1
2.943412e-05,-0.0003062031,4,1
0.000121001,-0.0003170615,4,1
0.0001897167,-0.00030831,4,1
0.0001950649,-0.0002695764,4,1
0.0001269974,-0.0001995642,4,1
1.322759e-05,-0.0001107524,4,1
-9.519411e-05,-2.258885e-05,4,1
-0.0001459206,4.175109e-05,4,1
-0.0001177212,6.557468e-05,4,1
-1.643037e-05,4.288554e-05,4,1
0.0001354248,-1.383732e-05,4,1
0.0003127243,-8.547019e-05,4,1
0.0004901859,-0.0001512687,4,1
0.0006423654,-0.0001977815,4,1
0.0007451148,-0.0002212809,4,1
0.0007872519,-0.0002258187,4,1
0.0007763935,-0.0002272773,4,1
0.000718374,-0.0002384598,4,1
0.0005986077,-0.0002627696,4,1
0.0003940812,-0.0002937241,4,1
0.0001013911,-0.0003228959,4,1
-0.0002504527,-0.0003433161,4,1
-0.0006069963,-0.0003470436,4,1
-0.0009053585,-0.0003250027,4,1
-0.001096109,-0.0002739521,4,1
-0.00115656,-0.0002011848,4,1
-0.001099675,-0.0001245279,4,1
-0.0009551126,-6.456377e-05,4,1
-0.0007450759,-3.231277e-05,4,1
-0.0004901472,-2.129233e-05,4,1
-0.000213988,-1.902341e-05,4,1
5.455425e-05,-1.448558e-05,4,1
0.0002843629,-8.002969e-06,4,1
0.0004568005,-8.813297e-06,4,1
0.0005775391,-2.485776e-05,4,1
0.0006702406,-5.532604e-05,4,1
0.000748032,-9.2439e-05,4,1
0.0008057273,-0.0001233935,4,1
0.0008277682,-0.0001336036,4,1
0.0008016757,-0.000117235,4,1
0.0007261531,-7.671866e-05,4,1
0.0006128695,-2.599222e-05,4,1
0.0004871067,2.214118e-05,4,1
0.0003722023,5.94162e-05,4,1
0.000282256,8.307774e-05,4,1
0.0002213195,9.733949e-05,4,1
0.0001835583,0.0001047945,4,1
0.0001584381,0.0001075496,4,1
0.000135749,0.0001015532,4,1
0.0001090082,8.810177e-05,4,1
7.708133e-05,7.351589e-05,4,1
3.769945e-05,6.476436e-05,4,1
-1.25408e-05,6.298164e-05,4,1
-7.18567e-05,6.573675e-05,4,1
-0.0001394379,6.881599e-05,4,1
-0.0002183637,7.108491e-05,4,1
-0.0003079858,7.416415e-05,4,1
-0.000405063,7.57848e-05,4,1
-0.0004941989,7.157111e-05,4,1
-0.0005595111,6.103686e-05,4,1
-0.0005920863,4.920609e-05,4,1
-0.0005917621,3.867184e-05,4,1
-0.0005650214,3.478228e-05,4,1
-0.0005272602,3.656499e-05,4,1
-0.0004943609,4.402e-05,4,1
-0.0004760476,5.423012e-05,4,1
-0.0004706994,6.330578e-05,4,1
-0.0004689167,6.622294e-05,4,1
-0.0004570859,6.168512e-05,4,1
-0.000427428,4.985435e-05,4,1
-0.0003836704,3.640293e-05,4,1
-0.0003361852,2.424803e-05,4,1
-0.0003021515,1.695509e-05,4,1
-0.0002951827,1.841368e-05,4,1
-0.0003128478,2.635488e-05,4,1
-0.0003447747,3.948217e-05,4,1
-0.0003673017,5.893001e-05,4,1
-0.0003643846,8.42122e-05,4,1
-0.0003403989,0.0001122495,4,1
-0.0003121996,0.0001360731,4,1
-0.0002989102,0.0001475797,4,1
-0.0003063652,0.000145797,4,1
-0.0003348887,0.0001402868,4,1
-0.0003781601,0.0001419075,4,1
-0.0004178661,0.0001579519,4,1
-0.0004345588,0.0001908512,4,1
-0.0004190006,0.000235095,4,1
-0.0003737844,0.0002854973,4,1
-0.0002972895,0.000334117,4,1
-0.0001830335,0.0003699334,4,1
-2.955766e-05,0.0003814401,4,1
0.0001534141,0.0003666921,4,1
0.0003529166,0.0003384927,4,1
0.0005576051,0.0003133726,4,1
0.0007541905,0.0002983005,4,1
0.0009183628,0.0002913317,4,1
0.001021112,0.0002903593,4,1
0.001039102,0.000292142,4,1
0.0009723307,0.0002911697,4,1
0.0008467299,0.0002785285,4,1
0.0007110811,0.0002535705,4,1
0.0006084936,0.0002222919,4,1
0.0005517708,0.0001971717,4,1
0.0005307022,0.0001824238,4,1
0.0005169268,0.0001733481,4,1
0.0004744656,0.0001644345,4,1
0.0003918123,0.0001540623,4,1
0.0002850112,0.0001422316,4,1
0.0001782101,0.0001320215,4,1
7.983644e-05,0.0001253768,4,1
-1.497178e-05,0.0001260251,4,1
-0.00010978,0.0001351007,4,1
-0.000201509,0.000153252,4,1
-0.0002874036,0.0001626518,4,1
-0.0003536883,0.0001328318,4,1
-0.0003796187,3.899597e-05,4,1
-0.0003553089,-0.0001165867,4,1
-0.0002827037,-0.000303448,4,1
-0.0001752544,-0.0004763717,4,1
-5.030202e-05,-0.0005967862,4,1
7.918817e-05,-0.0006471885,4,1
0.0001984683,-0.0006330888,4,1
0.0002929524,-0.0005731247,4,1
0.0003550234,-0.0004888507,4,1
0.0003841952,-0.0004019837,4,1
0.0003895433,-0.000328244,4,1
0.0003790091,-0.0002744383,4,1
0.0003525924,-0.0002400805,4,1
0.0002965178,-0.0002177155,4,1
0.0001996027,-0.0001987538,4,1
6.298164e-05,-0.0001796301,4,1
-0.0001037836,-0.0001590478,4,1
-0.0002896725,-0.0001360346,4,1
-0.0004753993,-0.0001114006,4,1
-0.0006295234,-8.676672e-05,4,1
-0.0007209282,-5.905355e-05,4,1
-0.0007481552,-2.242678e-05,4,1
-0.0007454,2.667901e-05,4,1
-0.0007565826,8.923623e-05,4,1
-0.0008045539,0.0001590864,4,1
-0.0008826694,0.0002256952,4,1
-0.0009585159,0.0002791768,4,1
-0.0009875257,0.0003175863,4,1
-0.0009402025,0.0003427064,4,1
-0.000817195,0.0003707437,4,1
-0.0006411921,0.0004166082,4,1
-0.000439907,0.0004739794,4,1
-0.0002337599,0.0005128751,4,1
-3.830919e-05,0.0005067165,4,1
0.0001367214,0.0004462662,4,1
0.0002807975,0.0003467581,4,1
0.0003798194,0.000239957,4,1
0.0004232529,0.0001564933,4,1
0.0004072085,0.0001158149,4,1
0.0003499994,0.0001203528,4,1
0.0002811216,0.0001571416,4,1
0.0002193747,0.0002008992,4,1
0.0001735102,0.0002265056,4,1
0.0001517934,0.0002209954,4,1
0.0001645966,0.0001874478,4,1
0.0002124059,0.0001385041,4,1
0.0002889007,8.405014e-05,4,1
0.0003794953,3.364782e-05,4,1
0.0004676588,-7.192643e-06,4,1
0.000530054,-3.63644e-05,4,1
0.0005491778,-6.326724e-05,4,1
0.0005248679,-0.0001068628,4,1
0.0004739794,-0.0001896782,4,1
0.0004219564,-0.0003131719,4,1
0.0003871123,-0.0004527101,4,1
0.0003781987,-0.0005771763,4,1
0.0003840331,-0.0006659881,4,1
0.0003828986,-0.0007134732,4,1
0.0003597233,-0.0007197938,4,1
0.0003117519,-0.0006896496,4,1
0.0002443328,-0.0006350336,4,1
0.0001660552,-0.0005653456,4,1
8.340187e-05,-0.0004888507,4,1
8.203562e-06,-0.000412518,4,1
-5.59743e-05,-0.0003462333,4,1
-0.0001130213,-0.0002987481,4,1
-0.0001809267,-0.000271035,4,1
-0.0002767073,-0.0002502906,4,1
-0.000392746,-0.000211557,4,1
-0.0004977643,-0.0001365208,4,1
-0.0005577285,-2.194059e-05,4,1
-0.0005648594,0.0001174356,4,1
-0.0005407116,0.0002595669,4,1
-0.0005199672,0.000383871,4,1
-0.0005165638,0.0004684692,4,1
-0.0005202913,0.0004909963,4,1
-0.0004980884,0.0004443214,4,1
-0.0004037664,0.0003545372,4,1
-0.000216581,0.0002662116,4,1
4.969229e-05,0.0002081922,4,1
0.0003569682,0.0001880961,4,1
0.0006553305,0.0001974959,4,1
0.0008969702,0.0002174299,4,1
0.00105547,0.0002363916,4,1
0.001139258,0.0002581083,4,1
0.001169726,0.00029198,4,1
0.001163082,0.0003258516,4,1
0.00112451,0.0003282826,4,1
0.001051743,0.0002762596,4,1
0.0009523966,0.0001731861,4,1
0.0008438127,4.82337e-05,4,1
0.0007370116,-6.132246e-05,4,1
0.0006256726,-0.0001319829,4,1
0.0005042856,-0.0001592099,4,1
0.0003817642,-0.0001498101,4,1
0.0002710735,-0.0001211246,4,1
0.0001819376,-9.065628e-05,4,1
0.0001221355,-8.060823e-05,4,1
9.020862e-05,-0.0001075111,4,1
7.011252e-05,-0.0001726613,4,1
3.948217e-05,-0.0002614731,4,1
-1.059602e-05,-0.0003497987,4,1
-8.109443e-05,-0.0004211074,4,1
-0.0001807646,-0.0004682684,4,1
-0.0003073376,-0.0004922541,4,1
-0.0004402311,-0.0004933886,4,1
-0.0005460597,-0.000467134,4,1
-0.0005899795,-0.0004091146,4,1
-0.0005507597,-0.0003154408,4,1
-0.000447362,-0.0001977815,4,1
-0.0003303509,-7.671866e-05,4,1
-0.0002506147,2.068259e-05,4,1
-0.0002418632,7.027458e-05,4,1
-0.0003334301,6.071273e-05,4,1
-0.0005285567,-5.734056e-06,4,1
-0.0007847819,-0.0001079973,4,1
-0.001031445,-0.000213988,4,1
-0.001204207,-0.0002927517,4,1
-0.001260282,-0.0003188442,4,1
-0.001188325,-0.0002857829,4,1
-0.001003894,-0.0002055606,4,1
-0.0007483172,-0.0001062146,4,1
-0.0004716718,-1.659243e-05,4,1
-0.000211557,4.402e-05,4,1
1.679302e-05,7.157111e-05,4,1
0.0002185644,7.335383e-05,4,1
0.0003979707,6.379197e-05,4,1
0.0005457744,5.56887e-05,4,1
0.0006451205,5.390598e-05,4,1
0.0006807749,5.730935e-05,4,1
0.0006504686,6.735741e-05,4,1
0.0005666808,8.46984e-05,4,1
0.0004568005,0.0001081979,4,1
0.0003542131,0.000133318,4,1
0.0002869559,0.0001589243,4,1
0.000264753,0.0001863134,4,1
0.0002798251,0.0002188885,4,1
0.0003237448,0.000254867,4,1
0.0003934329,0.0002848491,4,1
0.0004901859,0.0002989488,4,1
0.0006096281,0.0002911697,4,1
0.0007357151,0.000267346,4,1
0.0008386266,0.000239957,4,1
0.0008815739,0.0002216436,4,1
0.0008378163,0.0002216436,4,1
0.0006937401,0.0002365536,4,1
0.0004678209,0.0002569738,4,1
0.0002070577,0.0002736666,4,1
-4.155049e-05,0.0002854973,4,1
-0.0002485079,0.0002973281,4,1
-0.0003995528,0.0003111037,4,1
-0.0004916058,0.0003239069,4,1
-0.0005303394,0.0003313618,4,1
-0.0005298533,0.0003320101,4,1
-0.0005071641,0.0003273102,4,1
-0.000484637,0.0003180725,4,1
-0.0004938748,0.0003026763,4,1
-0.0005604835,0.0002812837,4,1
-0.0006868945,0.0002560015,4,1
-0.0008429634,0.0002287745,4,1
-0.0009844464,0.0002025199,4,1
-0.001070503,0.00018291,4,1
-0.001081523,0.0001714034,4,1
-0.001015077,0.0001668655,4,1
-0.0008872072,0.0001665414,4,1
-0.0007227109,0.0001636242,4,1
-0.0005527044,0.0001534141,4,1
-0.0003997148,0.0001325077,4,1
-0.000276059,0.0001007429,4,1
-0.0001861127,6.281957e-05,4,1
-0.0001344139,2.522042e-05,4,1
-0.0001259865,-7.678839e-06,4,1
-0.0001676373,-3.182657e-05,4,1
-0.000266173,-4.673658e-05,4,1
-0.0004173799,-5.2733e-05,4,1
-0.000591276,-4.787104e-05,4,1
-0.0007348658,-3.377136e-05,4,1
-0.0007912645,-1.221667e-05,4,1
-0.0007335693,1.12828e-05,4,1
-0.0005809038,2.894792e-05,4,1
-0.0003882082,3.251336e-05,4,1
-0.000216581,2.068259e-05,4,1
-9.778715e-05,-6.382317e-06,4,1
-2.988179e-05,-4.625038e-05,4,1
4.962256e-06,-9.227693e-05,4,1
3.13789e-05,-0.0001352242,4,1
7.6271e-05,-0.0001682856,4,1
0.0001563313,-0.000189192,4,1
0.0002743149,-0.0001976194,4,1
0.0004182289,-0.0001953505,4,1
0.0005731634,-0.0001887058,4,1
0.0007295565,-0.0001778474,4,1
0.0008827084,-0.000159534,4,1
0.001027433,-0.0001306864,4,1
0.00115433,-9.422172e-05,4,1
0.001259187,-6.278104e-05,4,1
0.001339733,-4.544006e-05,4,1
0.00139046,-4.641245e-05,4,1
0.001401156,-6.342931e-05,4,1
0.001368905,-9.114248e-05,4,1
0.001297596,-0.0001188556,4,1
0.00119355,-0.0001386276,4,1
0.001070056,-0.0001472171,4,1
0.0009499656,-0.000144462,4,1
0.0008478644,-0.0001316588,4,1
0.0007579181,-0.0001139937,4,1
0.0006674855,-9.600444e-05,4,1
0.0005601982,-8.239095e-05,4,1
0.0004376768,-7.169464e-05,4,1
0.0003218,-6.213279e-05,4,1
0.0002435224,-5.613637e-05,4,1
0.000217592,-5.419158e-05,4,1
0.0002367157,-5.759496e-05,4,1
0.0002825802,-6.521203e-05,4,1
0.0003282826,-7.477388e-05,4,1
0.0003449753,-7.963584e-05,4,1
0.00030689,-7.866345e-05,4,1
0.0001934442,-7.23429e-05,4,1
6.744974e-06,-6.342931e-05,4,1
-0.0002193361,-5.581224e-05,4,1
-0.0004379622,-5.32192e-05,4,1
-0.0006103997,-5.662256e-05,4,1
-0.000722873,-6.634648e-05,4,1
-0.000777489,-7.704279e-05,4,1
-0.0007865646,-8.109443e-05,4,1
-0.0007646859,-7.169464e-05,4,1
-0.0007347037,-4.414354e-05,4,1
-0.00071558,-7.100305e-07,4,1
-0.0007092595,4.758544e-05,4,1
-0.0007050458,9.085688e-05,4,1
-0.0006961322,0.0001205148,4,1
-0.0006797637,0.0001310491,4,1
-0.0006539953,0.0001271595,4,1
-0.0006188271,0.0001187321,4,1
-0.0005778245,0.0001182459,4,1
-0.0005389289,0.0001316974,4,1
-0.0005048952,0.0001526038,4,1
-0.0004781544,0.0001748067,4,1
-0.0004616237,0.0001932822,4,1
-0.0004656754,0.0002060853,4,1
-0.0005035987,0.000207706,4,1
-0.0005705316,0.0002010613,4,1
-0.0006455678,0.0001874478,4,1
-0.0007022907,0.0001670276,4,1
-0.0007191455,0.00013818,4,1
-0.0006875428,0.0001025256,4,1
-0.000616234,6.751948e-05,4,1
-0.0005230465,4.515445e-05,4,1
-0.0004316416,4.337174e-05,4,1
-0.0003588744,6.022653e-05,4,1
-0.000305879,8.032264e-05,4,1
-0.0002535319,5.730935e-05,4,1
-0.0001713648,-4.884343e-05,4,1
-3.814712e-05,-0.0002373254,4,1
0.0001398006,-0.0004612996,4,1
0.0003263378,-0.0006526987,4,1
0.0004796517,-0.0007580412,4,1
0.0005759185,-0.0007560964,4,1
0.0006146522,-0.0006689052,4,1
0.0006070351,-0.0005410357,4,1
0.0005702463,-0.0004136524,4,1
0.0005182233,-0.0003094444,4,1
0.0004521006,-0.0002324634,4,1
0.0003686369,-0.0001750923,4,1
0.0002756114,-0.0001311726,4,1
0.0001890685,-9.405965e-05,4,1
0.000125863,-6.0188e-05,4,1
9.490851e-05,-2.826114e-05,4,1
9.247754e-05,1.558884e-06,4,1
9.798775e-05,2.992031e-05,4,1
8.79397e-05,5.779555e-05,4,1
5.163707e-05,9.16672e-05,4,1
2.369211e-06,0.0001344524,4,1
-2.275091e-05,0.0001845306,4,1
8.365628e-06,0.0002436845,4,1
0.0001028497,0.0003153174,4,1
0.0002430362,0.0004023465,4,1
0.0003939191,0.0004986133,4,1
0.0005227611,0.0005879114,4,1
0.0006120591,0.0006561409,4,1
0.0006569512,0.0007080019,4,1
0.0006673234,0.0007605111,4,1
0.0006541961,0.0008379783,4,1
0.0006221072,0.0009499656,4,1
0.0005806184,0.001070704,4,1
0.0005350781,0.001144768,4,1
0.0004777069,0.001112355,4,1
0.0004029947,0.0009540173,4,1
0.0003195311,0.0007021675,4,1
0.0002446569,0.0004253598,4,1
0.0001898788,0.000190365,4,1
0.000153252,3.121684e-05,4,1
0.0001247285,-5.095028e-05,4,1
9.507057e-05,-7.882551e-05,4,1
6.703327e-05,-8.07703e-05,4,1
4.693717e-05,-7.736692e-05,4,1
3.93201e-05,-7.850138e-05,4,1
3.462021e-05,-8.206682e-05,4,1
2.311357e-05,-8.773911e-05,4,1
5.934648e-06,-9.681477e-05,4,1
-9.623623e-06,-0.0001109144,4,1
-2.615429e-05,-0.0001323071,4,1
-4.787104e-05,-0.0001600202,4,1
-7.18567e-05,-0.0001864369,4,1
-8.417367e-05,-0.0002028055,4,1
-7.720486e-05,-0.0002117191,4,1
-5.354332e-05,-0.000216581,4,1
-3.004385e-05,-0.0002191741,4,1
-2.372331e-05,-0.0002156086,4,1
-4.738484e-05,-0.0002053985,4,1
-9.324933e-05,-0.0001908126,4,1
-0.0001489998,-0.0001757406,4,1
-0.0001976194,-0.0001635857,4,1
-0.000228898,-0.0001566169,4,1
-0.0002378116,-0.0001558065,4,1
-0.0002334358,-0.0001613168,4,1
-0.0002303566,-0.000171851,4,1
-0.0002358668,-0.0001865989,4,1
-0.0002493182,-0.0002047502,4,1
-0.0002606628,-0.0002276015,4,1
-0.0002609869,-0.0002551526,4,1
-0.0002520733,-0.0002856209,4,1
-0.0002400805,-0.0003136581,4,1
-0.000233922,-0.0003340784,4,1
-0.0002420253,-0.0003420196,4,1
-0.0002655248,-0.0003391024,4,1
-0.0002977757,-0.0003241924,4,1
-0.0003254889,-0.0002963172,4,1
-0.0003416954,-0.0002595283,4,1
-0.0003444506,-0.0002224154,4,1
-0.0003337542,-0.0001898403,4,1
-0.0003164132,-0.0001645581,4,1
-0.0002972895,-0.0001493239,4,1
-0.0002781658,-0.0001478653,4,1
-0.0002574215,-0.0001645581,4,1
-0.0002301945,-0.000199078,4,1
-0.000201671,-0.0002366771,4,1
-0.0001838438,-0.0002575835,4,1
-0.0001835197,-0.0002507768,4,1
-0.0001950263,-0.0002206326,4,1
-0.0002042641,-0.0001831956,4,1
-0.0001972953,-0.0001515928,4,1
-0.0001639098,-0.0001329553,4,1
-0.0001036215,-0.0001327933,4,1
-2.712668e-05,-0.0001477033,4,1
3.753739e-05,-0.0001705545,4,1
5.893001e-05,-0.0001921092,4,1
1.64689e-05,-0.0002000504,4,1
-7.493595e-05,-0.000189192,4,1
-0.0001703924,-0.0001598582,4,1
-0.0002237119,-0.0001167488,4,1
-0.0002071812,-7.088431e-05,4,1
-0.000127121,-3.458168e-05,4,1
-1.3027e-05,-1.464765e-05,4,1
0.0001023635,-1.25408e-05,4,1
0.0001996027,-2.09682e-05,4,1
0.0002725321,-2.599222e-05,4,1
0.0003235827,-1.967167e-05,4,1
0.0003572923,2.623614e-07,4,1
0.0003775505,3.299956e-05,4,1
0.0003913261,7.643307e-05,4,1
0.0004068843,0.0001227837,4,1
0.0004378388,0.0001634622,4,1
0.000480462,0.0001986303,4,1
0.0005268127,0.0002294227,4,1
0.0005691118,0.0002584324,4,1
0.0005999042,0.0002926282,4,1
0.000611735,0.000336548,4,1
0.0006055765,0.0003906778,4,1
0.0005849942,0.0004412422,4,1
0.0005545259,0.0004713863,4,1
0.0005097958,0.0004671726,4,1
0.0004469145,0.0004305459,4,1
0.000363937,0.0003731747,4,1
0.0002681563,0.0003101313,4,1
0.0001769136,0.0002485465,4,1
0.0001088461,0.0001976579,4,1
7.189524e-05,0.0001735102,4,1
5.698522e-05,0.0001796687,4,1
5.374392e-05,0.0001996027,4,1
5.179914e-05,0.0002149989,4,1
4.02925e-05,0.0002164575,4,1
1.582063e-05,0.0002017096,4,1
-9.785688e-06,0.000178048,4,1
-2.258885e-05,0.0001582761,4,1
-1.67545e-05,0.0001509831,4,1
6.90704e-06,0.0001610312,4,1
4.110282e-05,0.0001863134,4,1
8.032264e-05,0.0002222919,4,1
0.0001077117,0.0002639427,4,1
9.944634e-05,0.000309483,4,1
4.580272e-05,0.0003524304,4,1
-3.587821e-05,0.0003856538,4,1
-0.0001096179,0.0004039671,4,1
-0.0001451102,0.0004008879,4,1
-0.0001323071,0.0003697714,4,1
-8.158062e-05,0.000311914,4,1
-1.108221e-05,0.0002341226,4,1
6.200925e-05,0.0001453108,4,1
0.000125863,5.244739e-05,4,1
0.0001751309,-3.895745e-05,4,1
0.0002062474,-0.0001306864,4,1
0.0002209954,-0.0002225774,4,1
0.0002208333,-0.0003047445,4,1
0.0001996027,-0.0003660052,4,1
0.0001417454,-0.0003964735,4,1
3.575467e-05,-0.0003904771,4,1
-0.0001110765,-0.0003525538,4,1
-0.0002671454,-0.0002987481,4,1
-0.0003930701,-0.0002564491,4,1
-0.0004627582,-0.0002449425,4,1
-0.0004752372,-0.0002569353,4,1
-0.0004583824,-0.0002663351,4,1
-0.0004698891,-0.0002506147,4,1
-0.0005593491,-0.0002028055,4,1
-0.0007330831,-0.0001313347,4,1
-0.0009541402,-5.613637e-05,4,1
-0.001178276,-3.858999e-07,4,1
-0.001367407,2.035846e-05,4,1
-0.001491387,3.827799e-06,4,1
-0.001527365,-3.895745e-05,4,1
-0.001464484,-9.324933e-05,4,1
-0.001302581,-0.000149486,4,1
-0.001048462,-0.0002031296,4,1
-0.000725304,-0.0002496423,4,1
-0.0003708672,-0.0002791382,4,1
-2.485776e-05,-0.0002878898,4,1
0.0002850112,-0.0002765452,4,1
0.0005477191,-0.0002473734,4,1
0.0007642386,-0.0002019951,4,1
0.0009340832,-0.0001488377,4,1
0.00105466,-0.0001065387,4,1
0.001127427,-0.0001050801,4,1
0.001170699,-0.0001637477,4,1
0.001206353,-0.0002771934,4,1
0.001236335,-0.0004144627,4,1
0.001247032,-0.0005377944,4,1
0.001220291,-0.0006157478,4,1
0.001156599,-0.000631144,4,1
0.001070704,-0.0005857658,4,1
0.0009750858,-0.0004933886,4,1
0.0008793051,-0.0003749188,4,1
0.0007896828,-0.000253856,4,1
0.0007013571,-0.0001457585,4,1
0.0005937457,-5.516398e-05,4,1
0.0004367043,1.841368e-05,4,1
0.0002111094,7.67572e-05,4,1
-5.500191e-05,0.0001192183,4,1
-0.0002995585,0.0001479039,4,1
-0.0004839888,0.0001624898,4,1
-0.0006053757,0.000165569,4,1
-0.0006727948,0.000163138,4,1
-0.0006834911,0.0001652449,4,1
-0.000623689,0.0001814514,4,1
-0.0004912817,0.0002184023,4,1
-0.0003005308,0.0002795009,4,1
-8.141856e-05,0.0003593992,4,1
0.0001328318,0.0004493454,4,1
0.0003219621,0.000537347,4,1
0.0004751139,0.000611735,4,1
0.0005817529,0.0006618132,4,1
0.0006392861,0.0006866092,4,1
0.0006494962,0.0006939021,4,1
0.0006180556,0.0006973055,4,1
0.0005514466,0.0007135121,4,1
0.0004590694,0.0007473837,4,1
0.0003443271,0.0007843347,4,1
0.0002112714,0.0007937344,4,1
6.816773e-05,0.0007567836,4,1
-7.574627e-05,0.0006755888,4,1
-0.0002143121,0.0005717048,4,1
-0.0003483401,0.0004665244,4,1
-0.0004768579,0.0003767402,4,1
-0.0005903036,0.0003088348,4,1
-0.0006742534,0.0002639427,4,1
-0.0007246558,0.0002362295,4,1
-0.0007500999,0.0002146748,4,1
-0.0007661444,0.0001957132,4,1
-0.0007820268,0.0001751309,4,1
-0.0007945059,0.0001480659,4,1
-0.0007881853,0.0001099806,4,1
-0.0007539895,6.03886e-05,4,1
-0.0006990494,8.365628e-06,4,1
-0.0006444334,-3.458168e-05,4,1
-0.0006116962,-6.504996e-05,4,1
-0.0005990551,-8.692878e-05,4,1
-0.0005784728,-0.0001057284,4,1
-0.0005172121,-0.0001230693,4,1
-0.0003974459,-0.0001418689,4,1
-0.0002251705,-0.0001655305,4,1
-1.3027e-05,-0.0001940539,4,1
0.0002231022,-0.0002217671,4,1
0.0004553419,-0.0002404046,4,1
0.0006384758,-0.0002478596,4,1
0.0007321496,-0.000246401,4,1
0.0007271256,-0.0002452666,4,1
0.0006443101,-0.0002501286,4,1
0.0005144958,-0.0002592042,4,1
0.0003624784,-0.0002739521,4,1
0.0002044647,-0.0002925897,4,1
4.709924e-05,-0.0003123616,4,1
-0.0001152902,-0.0003334301,4,1
-0.0002818933,-0.0003561192,4,1
-0.0004428242,-0.0003794566,4,1
-0.000591276,-0.0003997148,4,1
-0.0007256281,-0.0004096008,4,1
-0.0008330774,-0.0004010113,4,1
-0.0008975794,-0.0003698948,4,1
-0.0009040619,-0.0003149546,4,1
-0.0008361567,-0.0002431597,4,1
-0.0006821946,-0.0001645581,4,1
-0.0004368278,-9.373552e-05,4,1
-0.0001052422,-4.041603e-05,4,1
0.0002829043,-3.465141e-06,4,1
0.0006741302,2.116879e-05,4,1
0.001007823,3.526847e-05,4,1
0.001232446,4.191315e-05,4,1
0.001333737,4.239934e-05,4,1
0.001330334,3.267542e-05,4,1
0.001260483,1.095867e-05,4,1
0.001163892,-1.805102e-05,4,1
0.001066653,-4.041603e-05,4,1
0.0009729789,-4.527799e-05,4,1
0.000866664,-3.26369e-05,4,1
0.0007298806,-1.075808e-05,4,1
0.0005507984,1.209313e-05,4,1
0.000329255,2.570662e-05,4,1
7.270556e-05,2.667901e-05,4,1
-0.0001940539,1.54965e-05,4,1
-0.0004335865,-3.14101e-06,4,1
-0.000608779,-2.745081e-05,4,1
-0.0007128249,-5.629844e-05,4,1
-0.0007716547,-8.579432e-05,4,1
-0.0008152502,-0.0001110765,4,1
-0.0008361567,-0.00012469,4,1
-0.0008066607,-0.000119828,4,1
-0.0007078009,-9.438378e-05,4,1
-0.000546546,-5.111234e-05,4,1
-0.0003538503,2.693341e-06,4,1
-0.0001734716,5.439218e-05,4,1
-4.155049e-05,9.717743e-05,4,1
2.992031e-05,0.000125863,4,1
5.585077e-05,0.0001352628,4,1
6.638502e-05,0.000108522,4,1
9.377406e-05,2.473423e-05,4,1
0.0001595726,-0.0001167488,4,1
0.0002637806,-0.0002854588,4,1
0.0003875985,-0.0004387725,4,1
0.0005005581,-0.000539253,4,1
0.0005728393,-0.0005692351,4,1
0.0005848321,-0.0005311498,4,1
0.0005318367,-0.0004441207,4,1
0.0004313562,-0.0003319715,4,1
0.0003102934,-0.0002201465,4,1
0.000205275,-0.0001224211,4,1
0.0001441764,-4.041603e-05,4,1
0.0001376938,3.251336e-05,4,1
0.0001759412,0.0001049566,4,1
0.0002219677,0.000180479,4,1
0.0002388225,0.0002587566,4,1
0.0002070577,0.0003331446,4,1
0.000123432,0.000391164,4,1
-3.951337e-06,0.0004313562,4,1
-0.0001611547,0.0004663623,4,1
-0.000328244,0.0005161164,4,1
-0.0004779923,0.0005900182,4,1
-0.0005836589,0.0006791542,4,1
-0.0006283889,0.000765373,4,1
-0.0006183409,0.0008319819,4,1
-0.0005768522,0.0008598572,4,1
-0.0005376324,0.0008348991,4,1
-0.000524343,0.0007614834,4,1
-0.0005433047,0.0006579236,4,1
-0.0005826865,0.0005511225,4,1
-0.0006225546,0.0004713863,4,1
-0.0006418404,0.0004331389,4,1
-0.0006259579,0.0004240633,4,1
-0.0005702075,0.0004096394,4,1
-0.0004857715,0.0003568061,4,1
-0.0003933943,0.0002525981,4,1
-0.0003078238,0.000111115,4,1
-0.0002366771,-3.992984e-05,4,1
-0.0001759026,-0.0001687718,4,1
-0.0001183694,-0.0002558008,4,1
-5.872941e-05,-0.0003015032,4,1
2.207145e-06,-0.0003241924,4,1
6.168512e-05,-0.0003412093,4,1
0.000113546,-0.0003634122,4,1
0.0001526038,-0.0003916115,4,1
0.0001767515,-0.000424997,4,1
0.0001887444,-0.000467134,4,1
0.0001971717,-0.000519481,4,1
0.0002072198,-0.0005776625,4,1
0.0002239125,-0.0006317923,4,1
0.0002493568,-0.0006792775,4,1
0.0002811216,-0.0007270867,4,1
0.0003064038,-0.0007855922,4,1
0.0003122381,-0.0008513908,4,1
0.0002937627,-0.0008980656,4,1
0.0002506533,-0.0008901244,4,1
0.0001911753,-0.0008081193,4,1
0.000128294,-0.0006582089,4,1
7.740546e-05,-0.0004705373,4,1
5.228533e-05,-0.0002838381,4,1
5.779555e-05,-0.0001287416,4,1
9.020862e-05,-1.886135e-05,4,1
0.0001461212,4.385793e-05,4,1
0.0002239125,7.238143e-05,4,1
0.00030689,8.712937e-05,4,1
0.000368961,0.0001033359,4,1
0.0003874365,0.0001281319,4,1
0.0003537269,0.0001618415,4,1
0.0002791768,0.0001968476,4,1
0.0001997648,0.0002269918,4,1
0.0001589243,0.000250005,4,1
0.0001765894,0.0002686426,4,1
0.0002242366,0.0002851732,4,1
0.000237526,0.000299597,4,1
0.0001694586,0.0003089969,4,1
2.700314e-05,0.0003171001,4,1
-0.0001374932,0.0003250413,4,1
-0.0002596904,0.0003336308,4,1
-0.0002934,0.0003381686,4,1
-0.0002243602,0.0003336308,4,1
-6.553616e-05,0.0003156415,4,1
0.0001490383,0.0002900352,4,1
0.0003632887,0.0002654013,4,1
0.0005120648,0.0002496809,4,1
0.0005460985,0.0002446569,4,1
0.0004514523,0.0002482223,4,1
0.0002571359,0.0002547049,4,1
2.424803e-05,0.0002611876,4,1
-0.0001806025,0.0002624841,4,1
-0.0003136581,0.0002509774,4,1
-0.0003566054,0.0002253711,4,1
-0.0003186821,0.0001921477,4,1
-0.0002258187,0.0001611932,4,1
-0.0001146419,0.0001321835,4,1
-2.226472e-05,9.426025e-05,4,1
3.624086e-05,3.786152e-05,4,1
6.606088e-05,-3.328516e-05,4,1
9.296373e-05,-0.000112211,4,1
0.0001488763,-0.0001903264,4,1
0.000249843,-0.0002515871,4,1
0.0003903536,-0.0002852967,4,1
0.0005480433,-0.0002963172,4,1
0.0006947125,-0.0002943724,4,1
0.0008054032,-0.000283514,4,1
0.0008720121,-0.0002616352,4,1
0.000911394,-0.0002207947,4,1
0.0009475346,-0.0001535376,4,1
0.0009908061,-6.504996e-05,4,1
0.001026947,2.878586e-05,4,1
0.001031647,0.0001116012,4,1
0.0009854579,0.0001759412,4,1
0.0008815739,0.0002232643,4,1
0.0007221015,0.0002645909,4,1
0.0005159543,0.000307052,4,1
0.0002817699,0.0003498373,4,1
3.267542e-05,0.0003880847,4,1
-0.0002201465,0.0004153117,4,1
-0.0004663236,0.000428277,4,1
-0.0006808981,0.000426008,4,1
-0.0008304843,0.0004117463,4,1
-0.0009001724,0.0003929467,4,1
-0.0009053585,0.0003796573,4,1
-0.0008813728,0.0003736609,4,1
-0.0008635456,0.0003619922,4,1
-0.0008578734,0.0003279585,4,1
-0.0008432875,0.0002607014,4,1
-0.000792399,0.0001637863,4,1
-0.0007142835,4.596478e-05,4,1
-0.0006538332,-8.109443e-05,4,1
-0.0006518884,-0.0002000504,4,1
-0.0007183352,-0.0002922655,4,1
-0.0008359946,-0.0003460712,4,1
-0.0009859049,-0.0003590364,4,1
-0.001155587,-0.0003335922,4,1
-0.001323973,-0.0002828657,4,1
-0.001453301,-0.0002345703,4,1
-0.001499166,-0.0002237119,4,1
-0.001430774,-0.0002673075,4,1
-0.001245209,-0.0003489884,4,1
-0.0009690502,-0.0004322899,4,1
-0.0006455678,-0.0004807475,4,1
-0.0003261372,-0.0004724821,4,1
-6.261898e-05,-0.0004014975,4,1
0.0001088461,-0.0002841623,4,1
0.0001720516,-0.0001491618,4,1
0.0001566554,-2.696461e-05,4,1
0.0001255389,6.103686e-05,4,1
0.0001445005,0.0001073875,4,1
0.0002456293,0.0001193804,4,1
0.000428439,0.0001062531,4,1
0.0006692683,8.129502e-05,4,1
0.0009344073,5.828175e-05,4,1
0.001197602,4.77475e-05,4,1
0.001437135,4.888196e-05,4,1
0.001627562,5.423012e-05,4,1
0.001750732,5.828175e-05,4,1
0.001817989,6.006447e-05,4,1
0.001860288,6.654708e-05,4,1
0.001899022,8.631905e-05,4,1
0.001933056,0.0001214872,4,1
0.001945535,0.0001743205,4,1
0.001921225,0.0002404432,4,1
0.001851213,0.0003086727,4,1
0.001725774,0.0003577785,4,1
0.001533402,0.0003790091,4,1
0.001275717,0.000376416,4,1
0.000975734,0.0003649094,4,1
0.0006606788,0.0003640991,4,1
0.0003585888,0.0003778746,4,1
8.79397e-05,0.0003885709,4,1
-0.0001405724,0.000371392,4,1
-0.0003152788,0.0003130485,4,1
-0.0004352071,0.0002137024,4,1
-0.0005105674,9.328786e-05,4,1
-0.0005638869,-1.805102e-05,4,1
-0.0006113721,-9.66527e-05,4,1
-0.0006611261,-0.0001332795,4,1
-0.0007162283,-0.0001344139,4,1
-0.0007690616,-0.0001185315,4,1
-0.0008095779,-0.000104918,4,1
-0.0008382635,-0.0001031353,4,1
-0.0008695421,-0.0001117248,4,1
-0.0009120032,-0.000129714,4,1
-0.0009580297,-0.0001507825,4,1
-0.000993522,-0.0001686097,4,1
-0.001008432,-0.0001760647,4,1
-0.001004705,-0.0001749302,4,1
-0.0009893083,-0.0001705545,4,1
-0.000973588,-0.0001702304,4,1
-0.0009708329,-0.0001797922,4,1
-0.0009802326,-0.0001998883,4,1
-0.0009795844,-0.0002266291,4,1
-0.0009329096,-0.0002532078,4,1
-0.0008220569,-0.0002752487,4,1
-0.0006642053,-0.0002891863,4,1
-0.0005079744,-0.0002966413,4,1
-0.0003956632,-0.0003000446,4,1
-0.0003329439,-0.0003024756,4,1
-0.0003027998,-0.0003045825,4,1
-0.0002911311,-0.0003057169,4,1
-0.0002899966,-0.0002993964,4,1
-0.0002977757,-0.0002831898,4,1
-0.0003123616,-0.0002545043,4,1
-0.0003326198,-0.0002146363,4,1
-0.0003543365,-0.0001710407,4,1
-0.0003721637,-0.0001326312,4,1
-0.0003784843,-9.973194e-05,4,1
-0.0003673017,-7.428769e-05,4,1
-0.0003442885,-5.872941e-05,4,1
-0.0003180339,-5.662256e-05,4,1
-0.0002917793,-6.537409e-05,4,1
-0.000258718,-7.574627e-05,4,1
-0.0002125294,-7.882551e-05,4,1
-0.0001525652,-7.169464e-05,4,1
-8.498399e-05,-5.59743e-05,4,1
-1.967167e-05,-3.798505e-05,4,1
3.656499e-05,-1.772689e-05,4,1
7.643307e-05,7.717366e-06,4,1
9.977047e-05,3.591673e-05,4,1
0.0001151667,6.03886e-05,4,1
0.0001321835,7.983644e-05,4,1
0.0001566554,9.652917e-05,4,1
0.000185503,0.0001128978,4,1
0.0002119197,0.0001304008,4,1
0.0002297469,0.0001529279,4,1
0.0002355812,0.0001880961,4,1
0.0002271538,0.0002357433,4,1
0.0002067336,0.0002910076,4,1
0.0001824238,0.0003422202,4,1
0.0001610312,0.0003769022,4,1
0.0001470936,0.0003859779,4,1
0.0001419075,0.0003678266,4,1
0.000145797,0.0003274723,4,1
0.0001547106,0.0002736666,4,1
0.0001709172,0.0002140265,4,1
0.0001974959,0.0001500107,4,1
0.0002308813,8.46984e-05,4,1
0.0002658874,1.59827e-05,4,1
0.0002879283,-5.678463e-05,4,1
0.0003007315,-0.0001306864,4,1
0.0003240689,-0.0001900023,4,1
0.0003717161,-0.0002167431,4,1
0.0004427008,-0.0002039399,4,1
0.0005204921,-0.0001575893,4,1
0.0005814288,-9.600444e-05,4,1
0.0006007145,-4.171256e-05,4,1
0.0005674912,-9.623623e-06,4,1
0.0004893756,1.072688e-06,4,1
0.0003944053,-2.006553e-06,4,1
0.0003098072,-5.409925e-06,4,1
0.0002508154,4.80019e-06,4,1
0.0002190506,3.397195e-05,4,1
0.0002031682,7.6271e-05,4,1
0.0001830721,0.0001197045,4,1
0.0001247285,0.0001540623,4,1
-6.544382e-06,0.0001762653,4,1
-0.0002143121,0.000187934,4,1
-0.000459841,0.0001916615,4,1
-0.0006752257,0.0001874478,4,1
-0.000804878,0.0001741585,4,1
-0.0008321049,0.000155683,4,1
-0.0007747339,0.0001334801,4,1
-0.0006663122,0.0001099806,4,1
-0.0005361738,8.291568e-05,4,1
-0.000402794,5.56887e-05,4,1
-0.0002682799,3.170304e-05,4,1
-0.0001209625,1.419998e-05,4,1
4.839576e-05,2.531276e-06,4,1
0.0002404432,-2.978945e-06,4,1
0.0004417284,-3.303076e-06,4,1
0.0006302104,-8.720959e-07,4,1
0.0007833623,2.04508e-06,4,1
0.0008869221,1.234753e-06,4,1
0.000946076,-4.275467e-06,4,1
0.0009776788,-1.432352e-05,4,1
0.0009938853,-2.826114e-05,4,1
0.0009985853,-4.608832e-05,4,1
0.0009744375,-6.44017e-05,4,1
0.0008953495,-7.752899e-05,4,1
0.0007512733,-8.222889e-05,4,1
0.0005527431,-7.542214e-05,4,1
0.000324393,-6.326724e-05,4,1
9.426025e-05,-4.949169e-05,4,1
-0.0001195039,-3.911951e-05,4,1
-0.0003178718,-3.701266e-05,4,1
-0.0005126743,-4.025397e-05,4,1
-0.0007090974,-4.770897e-05,4,1
-0.0008907726,-5.808115e-05,4,1
-0.001019615,-6.81292e-05,4,1
-0.001058186,-7.574627e-05,4,1
-0.0009888222,-7.866345e-05,4,1
-0.0008150881,-7.509801e-05,4,1
-0.0005585388,-6.748094e-05,4,1
-0.0002617972,-5.289507e-05,4,1
2.133085e-05,-2.809907e-05,4,1
0.0002464396,9.013889e-06,4,1
0.0003968363,5.666109e-05,4,1
0.000480462,0.0001043083,4,1
0.0005238955,0.0001386662,4,1
0.0005559844,0.0001573037,4,1
0.0005885597,0.0001602208,4,1
0.0006154625,0.0001529279,4,1
0.0006297242,0.0001433661,4,1
0.0006255105,0.0001451488,4,1
0.0005929354,0.0001728619,4,1
0.00052503,0.0002292607,4,1
0.0004349216,0.0003007315,4,1
0.0003618301,0.0003652335,4,1
0.0003459477,0.0004041292,4,1
0.0003984569,0.0004091532,4,1
0.0004851619,0.0003848434,4,1
0.0005567948,0.000341572,4,1
0.0005775391,0.0002957075,4,1
0.0005405883,0.0002636185,4,1
0.0004592314,0.0002517878,4,1
0.0003556717,0.0002576221,4,1
0.0002501671,0.0002741528,4,1
0.0001644345,0.0002858215,4,1
0.0001164632,0.0002733424,4,1
0.000113384,0.0002224539,4,1
0.0001355869,0.0001368834,4,1
0.0001449867,3.299956e-05,4,1
0.0001044704,-7.347736e-05,4,1
-1.358292e-06,-0.0001726613,4,1
-0.0001559686,-0.000253856,4,1
-0.00032322,-0.0003045825,4,1
-0.000462272,-0.0003222476,4,1
-0.0005494631,-0.0003070135,4,1
-0.000588845,-0.0002728177,4,1
-0.0006006758,-0.0002412149,4,1
-0.0006152617,-0.0002272773,4,1
-0.0006619364,-0.0002329496,4,1
-0.0007499378,-0.0002415391,4,1
-0.0008628974,-0.000238946,4,1
-0.0009635399,-0.0002209568,4,1
-0.001012322,-0.0001903264,4,1
-0.0009844464,-0.0001540238,4,1
-0.0008737558,-0.0001186936,4,1
-0.0006977529,-8.919769e-05,4,1
-0.0005005194,-6.748094e-05,4,1
-0.0003416954,-5.419158e-05,4,1
-0.0002715212,-5.062615e-05,4,1
-0.0003125237,-4.754691e-05,4,1
-0.0004442827,-3.393342e-05,4,1
-0.0006125065,-2.492749e-06,4,1
-0.000747831,4.531652e-05,4,1
-0.000787537,0.0001005808,4,1
-0.0006966184,0.0001483901,4,1
-0.0004953333,0.0001785342,4,1
-0.0002543422,0.0001996027,4,1
-6.44017e-05,0.000225209,4,1
1.760335e-05,0.0002641047,4,1
-7.516774e-06,0.000304297,4,1
-8.628052e-05,0.0003185587,4,1
-0.0001491618,0.0002859836,4,1
-0.0001541859,0.0002080301,4,1
-0.0001067007,0.0001015532,4,1
-3.701266e-05,-6.220252e-06,4,1
3.235129e-05,-8.903562e-05,4,1
9.409818e-05,-0.0001363587,4,1
0.0001410971,-0.0001536997,4,1
0.000163138,-0.0001583996,4,1
0.0001560072,-0.0001640719,4,1
0.000138342,-0.0001788198,4,1
0.0001427178,-0.0002013469,4,1
0.0001973338,-0.0002276015,4,1
0.0003122381,-0.0002509389,4,1
0.0004812723,-0.000266173,4,1
0.0006900126,-0.0002749245,4,1
0.0009254937,-0.0002882139,4,1
0.001170051,-0.0003180339,4,1
0.001396456,-0.0003634122,4,1
0.001570839,-0.0004053871,4,1
0.001665323,-0.0004259694,4,1
0.001670023,-0.0004094387,4,1
0.001587208,-0.0003535262,4,1
0.001420766,-0.0002640662,4,1
0.00117313,-0.0001572651,4,1
0.0008655295,-5.208474e-05,4,1
0.0005580913,3.575467e-05,4,1
0.0003230965,9.669123e-05,4,1
0.0002008992,0.0001349386,4,1
0.0001812893,0.0001600588,4,1
0.0002128921,0.0001809652,4,1
0.0002420638,0.0001999268,4,1
0.0002310434,0.0002187264,4,1
0.0001723757,0.0002378501,4,1
8.631905e-05,0.0002532463,4,1
-3.858999e-07,0.0002607014,4,1
-6.748094e-05,0.0002571359,4,1
-0.0001211246,0.0002388225,4,1
-0.0001844921,0.0002018716,4,1
-0.0002742763,0.0001466074,4,1
-0.0003886944,8.42122e-05,4,1
-0.000511864,2.424803e-05,4,1
-0.0006262821,-2.226472e-05,4,1
-0.0007076389,-4.398147e-05,4,1
-0.0007283832,-3.68506e-05,4,1
-0.0006664743,-1.221667e-05,4,1
-0.0005209396,1.727922e-05,4,1
-0.000328244,4.158902e-05,4,1
-0.0001442999,4.385793e-05,4,1
-1.270286e-05,1.234753e-06,4,1
5.293359e-05,-8.968389e-05,4,1
5.131294e-05,-0.0002070192,4,1
-8.489166e-06,-0.0003125237,4,1
-9.535618e-05,-0.0003682741,4,1
-0.0001660166,-0.0003559572,4,1
-0.0001887058,-0.0002849726,4,1
-0.0001661787,-0.000181737,4,1
-0.0001199901,-8.044617e-05,4,1
-7.931171e-05,-4.437533e-06,4,1
-6.602235e-05,4.013043e-05,4,1
-9.470791e-05,6.379197e-05,4,1
-0.000171851,8.064677e-05,4,1
-0.0002917793,9.717743e-05,4,1
-0.0004353692,0.0001148425,4,1
-0.0005755557,0.0001351007,4,1
-0.0006849497,0.0001644345,4,1
-0.0007385933,0.0002057612,4,1
-0.0007298418,0.0002513016,4,1
-0.0006739292,0.0002850112,4,1
-0.0006001896,0.000302028,4,1
-0.0005424943,0.0003030004,4,1
-0.0005301774,0.0002942489,4,1
-0.0005655076,0.0002882525,4,1
-0.0006121824,0.0003005694,4,1
-0.000618503,0.0003410858,4,1
-0.0005314739,0.0004080188,4,1
-0.0003314853,0.0004969927,4,1
-6.359137e-05,0.0006107626,4,1
0.0001905271,0.0007584042,4,1
0.0003585888,0.0009353797,4,1
0.0004089912,0.001107818,4,1
0.0003499994,0.001220129,4,1
0.0002187264,0.00121786,4,1
5.957827e-05,0.001079294,4,1
-9.162867e-05,0.0008267959,4,1
-0.0002194982,0.0005237334,4,1
-0.0003254889,0.0002401191,4,1
-0.0004141386,1.533444e-05,4,1
-0.0004859335,-0.0001473791,4,1
-0.0005397392,-0.0002676316,4,1
-0.000583821,-0.0003685983,4,1
-0.0006270924,-0.0004703753,4,1
-0.0006740913,-0.0005711799,4,1
-0.0007212523,-0.0006586951,4,1
-0.0007572309,-0.0007251419,4,1
-0.0007669547,-0.000777489,4,1
-0.0007364865,-0.0008355084,4,1
-0.0006624226,-0.0009222133,4,1
-0.0005530285,-0.001041493,4,1
-0.0004188385,-0.001174711,4,1
-0.0002679557,-0.00128994,4,1
-0.0001062146,-0.001355252,4,1
5.277153e-05,-0.001355738,4,1
0.0001923098,-0.001300636,4,1
0.0003010556,-0.001209393,4,1
0.0003807918,-0.001099675,4,1
0.0004430249,-0.000973588,4,1
0.00050542,-0.0008361567,4,1
0.0005773771,-0.0006982391,4,1
0.0006572754,-0.0005747453,4,1
0.0007321496,-0.0004768579,4,1
0.0007904932,-0.0003992286,4,1
0.000822258,-0.0003279199,4,1
0.0008220959,-0.0002501286,4,1
0.0007953551,-0.0001618029,4,1
0.0007558112,-7.218083e-05,4,1
0.0007120535,1.825161e-05,4,1
0.0006619753,0.0001051186,4,1
0.0005927734,0.0001863134,4,1
0.0004966686,0.0002603772,4,1
0.0003814401,0.000329255,4,1
0.0002632944,0.0003926226,4,1
0.0001417454,0.0004511282,4,1
1.371378e-05,0.0005039615,4,1
-0.0001071869,0.0005465847,4,1
-0.0001924333,0.0005730013,4,1
-0.0002225774,0.0005812666,4,1
-0.000196647,0.0005728393,4,1
-0.0001282554,0.0005590637,4,1
-2.728874e-05,0.0005501501,4,1
0.0001033359,0.0005475571,4,1
0.0002561635,0.0005529052,4,1
0.0004133669,0.0005610085,4,1
0.0005428572,0.0005644119,4,1
0.0006131936,0.0005582534,4,1
0.0006222692,0.0005383193,4,1
0.0005952043,0.0005055821,4,1
0.0005611706,0.0004647417,4,1
0.000530054,0.0004326527,4,1
0.0004982892,0.0004323286,4,1
0.00046069,0.0004715484,4,1
0.0004182289,0.0005318367,4,1
0.0003856538,0.0005788357,4,1
0.0003785229,0.0005806184,4,1
0.0003948915,0.0005321609,4,1
0.0004153117,0.0004491834,4,1
0.0004170944,0.0003603715,4,1
0.0003848434,0.000287118,4,1
0.0003258516,0.0002362295,4,1
0.0002503292,0.0002065715,4,1
0.0001511452,0.0001916615,4,1
1.484824e-05,0.000185341,4,1
-0.0001514308,0.0001825859,4,1
-0.0003131719,0.0001759412,4,1
-0.0004366657,0.0001584381,4,1
-0.0005074882,0.0001274836,4,1
-0.0005324463,8.583286e-05,4,1
-0.0005167259,3.948217e-05,4,1
-0.0004575721,-3.951337e-06,4,1
-0.0003540124,-3.895745e-05,4,1
-0.0002207947,-6.602235e-05,4,1
-7.979791e-05,-8.773911e-05,4,1
4.871989e-05,-0.0001120489,4,1
0.0001459591,-0.0001477033,4,1
0.0002046267,-0.000194216,4,1
0.0002211574,-0.0002417012,4,1
0.0001986303,-0.0002749245,4,1
0.0001577899,-0.0002898345,4,1
0.0001242423,-0.0002895104,4,1
0.0001169494,-0.0002804347,4,1
0.000133318,-0.0002703867,4,1
0.0001590864,-0.0002676316,4,1
0.0001799928,-0.0002728177,4,1
0.0001932822,-0.0002817312,4,1
0.0002012234,-0.0002833519,4,1
0.0001973338,-0.0002681178,4,1
0.0001773998,-0.0002370013,4,1
0.0001425557,-0.0001995642,4,1
0.0001028497,-0.0001660166,4,1
7.30297e-05,-0.0001396,4,1
6.508849e-05,-0.0001201522,4,1
8.777764e-05,-0.0001015147,4,1
0.0001420695,-7.347736e-05,4,1
0.0002128921,-3.166451e-05,4,1
0.0002668598,1.209313e-05,4,1
0.0002717218,4.223728e-05,4,1
0.0002059233,4.402e-05,4,1
6.541262e-05,1.873781e-05,4,1
-0.0001340898,-2.388537e-05,4,1
-0.0003517435,-7.023606e-05,4,1
-0.0005399013,-0.0001037836,4,1
-0.0006664743,-0.0001135075,4,1
-0.0007233592,-0.0001010285,4,1
-0.0007248178,-7.736692e-05,4,1
-0.0006914323,-4.819517e-05,4,1
-0.0006326026,-1.805102e-05,4,1
-0.0005458977,1.1769e-05,4,1
-0.0004334244,4.304761e-05,4,1
-0.0003057169,7.173317e-05,4,1
-0.0001783336,9.620504e-05,4,1
-8.141856e-05,0.0001164632,4,1
-5.548811e-05,0.0001336421,4,1
-0.0001201522,0.0001492004,4,1
-0.0002527216,0.0001628139,4,1
-0.0004008493,0.0001746447,4,1
-0.00051705,0.0001882582,4,1
-0.0005674524,0.0002046267,4,1
-0.0005330946,0.0002239125,4,1
-0.0004117076,0.0002406053,4,1
-0.0002279256,0.0002514636,4,1
-2.907146e-05,0.0002525981,4,1
0.0001362352,0.0002407673,4,1
0.0002383363,0.0002140265,4,1
0.0002660495,0.0001752929,4,1
0.0002313675,0.0001316974,4,1
0.0001637863,9.490851e-05,4,1
9.182927e-05,7.400208e-05,4,1
4.077869e-05,6.816773e-05,4,1
2.100672e-05,7.124698e-05,4,1
3.202716e-05,7.821578e-05,4,1
6.41161e-05,8.42122e-05,4,1
0.0001088461,8.826383e-05,4,1
0.0001564933,9.037068e-05,4,1
0.0001971717,9.150514e-05,4,1
0.0002221298,8.939829e-05,4,1
0.0002263435,8.388807e-05,4,1
0.000205275,7.6271e-05,4,1
0.0001592484,7.108491e-05,4,1
9.26396e-05,6.946425e-05,4,1
1.54965e-05,6.978839e-05,4,1
-5.678463e-05,6.703327e-05,4,1
-0.0001063766,5.747142e-05,4,1
-0.0001112386,4.499239e-05,4,1
-6.148453e-05,3.478228e-05,4,1
3.348575e-05,2.894792e-05,4,1
0.0001467694,2.862379e-05,4,1
0.0002508154,3.218923e-05,4,1
0.0003183966,3.98063e-05,4,1
0.0003281205,4.936815e-05,4,1
0.0002793389,5.730935e-05,4,1
0.0001955511,5.633696e-05,4,1
0.0001052807,4.35338e-05,4,1
2.748934e-05,2.01964e-05,4,1
-2.647842e-05,-9.947754e-06,4,1
-5.808115e-05,-4.544006e-05,4,1
-7.461182e-05,-8.271508e-05,4,1
-8.514606e-05,-0.0001079973,4,1
-0.0001010285,-0.0001029732,4,1
-0.0001361966,-6.359137e-05,4,1
-0.0001969711,-5.89612e-06,4,1
-0.0002791382,4.709924e-05,4,1
-0.0003741085,7.805372e-05,4,1
-0.0004747511,7.967438e-05,4,1
-0.0005700454,5.228533e-05,4,1
-0.0006462161,2.623614e-07,4,1
-0.0006949978,-6.699475e-05,4,1
-0.0007134732,-0.0001404103,4,1
-0.0006998597,-0.0002109087,4,1
-0.0006488092,-0.000273628,4,1
-0.0005562698,-0.0003241924,4,1
-0.000435045,-0.0003622777,4,1
-0.0003102548,-0.0003940425,4,1
-0.0002073433,-0.0004194868,4,1
-0.0001248521,-0.0004386105,4,1
-3.620233e-05,-0.0004493068,4,1
7.481241e-05,-0.0004507654,4,1
0.000202682,-0.0004429862,4,1
0.0003258516,-0.0004287245,4,1
0.0004248736,-0.0004121938,4,1
0.0004937514,-0.0004018217,4,1
0.0005465847,-0.0004008493,4,1
0.0006086557,-0.0004044147,4,1
0.0006916333,-0.0004019837,4,1
0.0007896828,-0.0003807532,4,1
0.0008780085,-0.0003319715,4,1
0.0009259799,-0.0002626076,4,1
0.0009057217,-0.0001932436,4,1
0.0008070238,-0.0001397621,4,1
0.0006472273,-0.0001044318,4,1
0.0004511282,-7.850138e-05,4,1
0.0002466017,-4.868137e-05,4,1
6.865393e-05,-8.720959e-07,4,1
-6.44017e-05,6.573675e-05,4,1
-0.0001608306,0.0001453108,4,1
-0.0002408908,0.0002237505,4,1
-0.0003159271,0.0002887387,4,1
-0.0003833462,0.0003357376,4,1
-0.0004405553,0.0003660439,4,1
-0.0004882024,0.0003835469,4,1
-0.0005176983,0.0003953777,4,1
-0.0005052193,0.0004075326,4,1
-0.0004206212,0.0004188772,4,1
-0.0002634179,0.0004222805,4,1
-6.521203e-05,0.0004127187,4,1
0.0001260251,0.0003903536,4,1
0.0002754493,0.0003569682,4,1
0.0003799815,0.0003158036,4,1
0.0004572867,0.0002699391,4,1
0.0005292437,0.0002171058,4,1
0.0006131936,0.0001574657,4,1
0.0007174017,9.377406e-05,4,1
0.0008292268,3.543054e-05,4,1
0.0009225765,1.072688e-06,4,1
0.0009765443,1.720949e-06,4,1
0.0009843234,3.656499e-05,4,1
0.0009441312,9.21534e-05,4,1
0.0008546711,0.0001496866,4,1
0.0007167534,0.000192958,4,1
0.0005365367,0.0002130541,4,1
0.0003339549,0.0002125679,4,1
0.0001320215,0.000200251,4,1
-5.937768e-05,0.0001782101,4,1
-0.0002379736,0.000145635,4,1
-0.0003937184,9.960841e-05,4,1
-0.0005136467,4.110282e-05,4,1
-0.0005873864,-2.631635e-05,4,1
-0.0006181788,-9.794922e-05,4,1
-0.000621258,-0.0001697442,4,1
-0.0006168823,-0.0002344082,4,1
-0.0006154237,-0.0002804347,4,1
-0.0006189891,-0.0002950206,4,1
-0.0006254718,-0.0002655248,4,1
-0.0006363301,-0.0001938919,4,1
-0.0006465403,-8.838737e-05,4,1
-0.000648323,3.332369e-05,4,1
-0.0006382749,0.00015309,4,1
-0.0006141272,0.0002482223,4,1
-0.0005758798,0.0003033245,4,1
-0.0005272602,0.0003135347,4,1
-0.0004830164,0.0002832284,4,1
-0.0004595169,0.0002268297,4,1
-0.0004606514,0.0001618415,4,1
-0.0004783165,9.652917e-05,4,1
-0.0005050572,2.635488e-05,4,1
-0.0005334187,-5.046408e-05,4,1
-0.0005551354,-0.0001269589,4,1
-0.0005572423,-0.0001974573,4,1
-0.0005296912,-0.0002566112,4,1
-0.000467134,-0.0002979378,4,1
-0.000365519,-0.0003125237,4,1
-0.000231491,-0.0002977757,4,1
-8.547019e-05,-0.0002616352,4,1
4.82337e-05,-0.0002183637,4,1
0.0001498487,-0.0001736337,4,1
0.0002117576,-0.0001344139,4,1
0.0002496809,-0.0001091317,4,1
0.000294573,-0.0001003802,4,1
0.0003673404,-0.0001071869,4,1
0.0004697657,-0.0001261486,4,1
0.0005977973,-0.0001509446,4,1
0.0007386322,-0.0001705545,4,1
0.0008781706,-0.0001760647,4,1
0.001007337,-0.0001658546,4,1
0.001121917,-0.0001412206,4,1
0.001216887,-0.0001057284,4,1
0.001287224,-6.359137e-05,4,1
0.001328875,-1.902341e-05,4,1
0.001330334,2.975825e-05,4,1
0.001270693,8.372601e-05,4,1
0.001135531,0.0001336421,4,1
0.0009337591,0.0001657311,4,1
0.0007071915,0.000170593,4,1
0.00050542,0.0001496866,4,1
0.0003634508,0.0001163011,4,1
0.0002898731,8.615699e-05,4,1
0.0002626462,7.189524e-05,4,1
0.0002436845,8.129502e-05,4,1
0.0002023578,0.0001154908,4,1
0.0001253768,0.0001714034,4,1
1.079661e-05,0.0002407673,4,1
-0.0001436516,0.0003148312,4,1
-0.0003344025,0.0003824125,4,1
-0.0005408737,0.0004362182,4,1
-0.0007288694,0.0004637693,4,1
-0.000874242,0.0004564763,4,1
-0.0009602986,0.0004180668,4,1
-0.0009748845,0.000363937,4,1
-0.0009175134,0.0003099692,4,1
-0.0007974231,0.0002641047,4,1
-0.0006309819,0.0002247229,4,1
-0.0004470379,0.0001897167,4,1
-0.0002770314,0.0001540623,4,1
-0.0001391138,0.0001137081,4,1
-3.587821e-05,7.157111e-05,4,1
3.753739e-05,3.299956e-05,4,1
8.712937e-05,9.106227e-07,4,1
0.0001132219,-2.356124e-05,4,1
0.000113384,-4.138842e-05,4,1
8.275361e-05,-5.338126e-05,4,1
1.97102e-05,-5.986387e-05,4,1
-7.526008e-05,-6.164659e-05,4,1
-0.0001857886,-5.905355e-05,4,1
-0.0002805968,-4.495386e-05,4,1
-0.0003394265,-1.286493e-05,4,1
-0.0003647087,3.915804e-05,4,1
-0.0003715154,0.0001044704,4,1
-0.0003716775,0.0001644345,4,1
-0.0003561192,0.0002034923,4,1
-0.0003013411,0.0002120818,4,1
-0.0001951884,0.0001843686,4,1
-6.342931e-05,0.000121001,4,1
3.899597e-05,2.975825e-05,4,1
6.816773e-05,-7.60704e-05,4,1
1.744129e-05,-0.0001840059,4,1
-9.503204e-05,-0.0002856209,4,1
-0.0002379736,-0.0003700569,4,1
-0.0003836704,-0.0004271038,4,1
-0.0005068399,-0.000449955,4,1
-0.000586414,-0.000437314,4,1
-0.0005998655,-0.0003997148,4,1
-0.0005364979,-0.0003579019,4,1
-0.000405225,-0.0003358611,4,1
-0.0002337599,-0.0003478539,4,1
-6.261898e-05,-0.0003901529,4,1
7.351589e-05,-0.0004389346,4,1
0.0001564933,-0.000467134,4,1
0.0001825859,-0.0004595169,4,1
0.0001595726,-0.0004243487,4,1
9.831188e-05,-0.0003857772,4,1
6.420843e-06,-0.0003645466,4,1
-0.0001041077,-0.0003666535,4,1
-0.0002159328,-0.0003807532,4,1
-0.000305879,-0.0003818876,4,1
-0.0003559572,-0.0003450988,4,1
-0.000360495,-0.0002624455,4,1
-0.0003254889,-0.0001430034,4,1
-0.0002629317,-1.464765e-05,4,1
-0.000189192,9.037068e-05,4,1
-0.0001248521,0.0001545486,4,1
-7.882551e-05,0.0001835583,4,1
-4.365734e-05,0.0001924718,4,1
1.720949e-06,0.000200251,4,1
7.351589e-05,0.0002143507,4,1
0.0001736723,0.0002376881,4,1
0.0002782044,0.0002675081,4,1
0.0003662059,0.0002978143,4,1
0.0004287631,0.0003247172,4,1
0.0004676588,0.0003423823,4,1
0.0004817585,0.0003472443,4,1
0.0004744656,0.0003409237,4,1
0.0004512903,0.0003287688,4,1
0.0004227667,0.0003188828,4,1
0.0004029947,0.0003171001,4,1
0.0004039671,0.0003232586,4,1
0.0004266563,0.0003235827,4,1
0.0004624728,0.000299435,4,1
0.000500396,0.0002466017,4,1
0.0005386435,0.0001788584,4,1
0.0005733255,0.000121001,4,1
0.000596987,9.507057e-05,4,1
0.0006013628,0.0001122495,4,1
0.000589532,0.0001662173,4,1
0.0005764047,0.0002346088,4,1
0.0005730013,0.0002900352,4,1
0.0005801322,0.0003135347,4,1
0.0005896941,0.0003065659,4,1
0.0005976353,0.000279663,4,1
0.000599418,0.0002401191,4,1
0.0005854804,0.0002020337,4,1
0.0005402642,0.0001762653,4,1
0.0004545315,0.0001584381,4,1
0.0003279585,0.0001347766,4,1
0.0001715654,9.085688e-05,4,1
9.824215e-06,2.376183e-05,4,1
-0.0001313347,-5.743289e-05,4,1
-0.0002340841,-0.0001293899,4,1
-0.0002950206,-0.0001747682,4,1
-0.0003262992,-0.0001856265,4,1
-0.0003457471,-0.000166989,4,1
-0.0003609812,-0.0001285796,4,1
-0.000365357,-7.688073e-05,4,1
-0.0003566054,-1.529591e-05,4,1
-0.0003426678,5.487838e-05,4,1
-0.0003389403,0.000133318,4,1
-0.0003626019,0.0002153231,4,1
-0.0004261314,0.0002926282,4,1
-0.0005246671,0.0003666921,4,1
-0.000648323,0.0004402698,4,1
-0.0007786234,0.0005080132,4,1
-0.0008826694,0.000544802,4,1
-0.0009309648,0.0005227611,4,1
-0.0009162169,0.0004320045,4,1
-0.000847015,0.0002908455,4,1
-0.0007421587,0.0001331559,4,1
-0.0006202856,-7.840905e-06,4,1
-0.0004982505,-0.000112373,4,1
-0.0003912874,-0.0001765509,4,1
-0.0003079858,-0.0002029675,4,1
-0.0002493182,-0.0002029675,4,1
-0.0002136638,-0.0001906506,4,1
-0.0001919471,-0.0001776853,4,1
-0.0001731475,-0.0001663408,4,1
-0.0001528894,-0.0001587237,4,1
-0.0001211246,-0.00015451,4,1
-6.261898e-05,-0.0001528894,4,1
3.397195e-05,-0.0001485136,4,1
0.0001736723,-0.0001360346,4,1
0.0003556717,-0.0001149661,4,1
0.0005559844,-8.984595e-05,4,1
0.0007345806,-6.91016e-05,4,1
0.000849485,-5.808115e-05,4,1
0.000879143,-5.953974e-05,4,1
0.0008314957,-7.493595e-05,4,1
0.0007315014,-0.0001016767,4,1
0.0006122212,-0.000137169,4,1
0.0004997478,-0.0001749302,4,1
0.0003960259,-0.000204102,4,1
0.0002817699,-0.0002097743,4,1
0.0001315353,-0.0001864369,4,1
-5.516398e-05,-0.0001452723,4,1
-0.000246239,-0.000102325,4,1
-0.0004006872,-7.18567e-05,4,1
-0.0005003574,-6.164659e-05,4,1
-0.0005423322,-7.444975e-05,4,1
-0.0005334187,-0.0001036215,4,1
-0.0004815578,-0.0001358725,4,1
-0.0003932322,-0.0001608306,4,1
-0.0002775176,-0.0001731475,4,1
-0.0001515928,-0.0001771992,4,1
-2.583016e-05,-0.0001812508,4,1
9.523264e-05,-0.0001921092,4,1
0.0002025199,-0.0002128535,4,1
0.0002827423,-0.0002335979,4,1
0.0003287688,-0.0002442942,4,1
0.0003402755,-0.0002397564,4,1
0.0003248792,-0.0002186879,4,1
0.0002856594,-0.0001872472,4,1
0.0002221298,-0.0001564548,4,1
0.0001354248,-0.0001340898,4,1
2.894792e-05,-0.0001201522,4,1
-9.324933e-05,-0.0001058904,4,1
-0.0002196603,-8.563225e-05,4,1
-0.0003454229,-6.829127e-05,4,1
-0.0004809095,-7.201877e-05,4,1
-0.0006274165,-0.0001167488,4,1
-0.0007710064,-0.0002060468,4,1
-0.0008872072,-0.0003211132,4,1
-0.0009476576,-0.0004282383,4,1
-0.0009290201,-0.0004925782,4,1
-0.0008129813,-0.0004971161,4,1
-0.0006045654,-0.0004441207,4,1
-0.0003337542,-0.0003489884,4,1
-4.138842e-05,-0.000231491,4,1
0.0002410915,-0.0001099421,4,1
0.000497803,-3.951337e-06,4,1
0.0007269635,7.513654e-05,4,1
0.0009254937,0.000123432,4,1
0.001079618,0.0001427178,4,1
0.001172644,0.0001404489,4,1
0.001201167,0.0001261871,4,1
0.001175723,0.0001124116,4,1
0.001112193,0.0001057669,4,1
0.001023543,0.0001094944,4,1
0.000923873,0.0001218114,4,1
0.0008282544,0.0001466074,4,1
0.0007499768,0.0001880961,4,1
0.0006955228,0.0002453052,4,1
0.0006571133,0.0003120761,4,1
0.0006128695,0.0003804677,4,1
0.0005362125,0.0004441593,4,1
0.0004123946,0.0004990995,4,1
0.0002310434,0.0005417228,4,1
-1.707863e-05,0.0005644119,4,1
-0.0003164132,0.000572191,4,1
-0.0006168823,0.0005802943,4,1
-0.0008499322,0.000609466,4,1
-0.0009581918,0.0006781818,4,1
-0.0009209168,0.0007785003,4,1
-0.0007611204,0.000869095,4,1
-0.0005397392,0.0008942151,4,1
-0.0003288923,0.0008186926,4,1
-0.0001731475,0.0006444722,4,1
-7.509801e-05,0.0004104497,4,1
-1.448558e-05,0.0001725378,4,1
3.202716e-05,-2.113026e-05,4,1
8.405014e-05,-0.0001488377,4,1
0.0001571416,-0.0002104225,4,1
0.0002608634,-0.0002230636,4,1
0.0003973225,-0.000209126,4,1
0.0005616568,-0.0001901644,4,1
0.0007360392,-0.0001796301,4,1
0.0008893532,-0.0001804405,4,1
0.0009835132,-0.0001861127,4,1
0.0009911302,-0.0001853024,4,1
0.0009086389,-0.0001695821,4,1
0.0007631041,-0.0001381414,4,1
0.0006012007,-9.956988e-05,4,1
0.000460528,-7.104638e-05,4,1
0.0003388169,-6.748094e-05,4,1
0.0002146748,-8.514606e-05,4,1
7.448828e-05,-0.0001083214,4,1
-7.169464e-05,-0.0001219349,4,1
-0.0001945401,-0.0001242038,4,1
-0.0002742763,-0.0001227452,4,1
-0.0003112272,-0.0001230693,4,1
-0.0003228959,-0.0001280934,4,1
-0.0003170615,-0.0001361966,4,1
-0.0002987481,-0.0001365208,4,1
-0.0002715212,-0.0001169109,4,1
-0.000248832,-7.137051e-05,4,1
-0.0002420253,-7.516774e-06,4,1
-0.0002580697,6.055066e-05,4,1
-0.0002956689,0.000118408,4,1
-0.0003494746,0.0001615174,4,1
-0.0004094387,0.0001921477,4,1
-0.0004625961,0.0002085163,4,1
-0.0004995471,0.0002109473,4,1
-0.0005155915,0.0002015475,4,1
-0.0005134846,0.0001783722,4,1
-0.0004993849,0.0001385041,4,1
-0.0004750752,8.275361e-05,4,1
-0.0004436345,1.679302e-05,4,1
-0.000410087,-5.062615e-05,4,1
-0.0003831841,-0.0001131834,4,1
-0.0003707051,-0.0001640719,4,1
-0.0003768636,-0.0001995642,4,1
-0.0003956632,-0.000216581,4,1
-0.0004089525,-0.000221443,4,1
-0.0004042526,-0.0002253326,4,1
-0.0003841565,-0.0002394322,4,1
-0.0003570916,-0.0002619593,4,1
-0.0003300267,-0.0002746004,4,1
-0.0003047445,-0.0002601766,4,1
-0.0002877277,-0.000216581,4,1
-0.000285945,-0.0001522411,4,1
-0.000303286,-8.628052e-05,4,1
-0.0003324577,-3.847125e-05,4,1
-0.0003637363,-1.659243e-05,4,1
-0.0003851289,-2.015787e-05,4,1
-0.0003904771,-4.657452e-05,4,1
-0.0003788084,-9.551824e-05,4,1
-0.0003514194,-0.0001650443,4,1
-0.0003143064,-0.0002455907,4,1
-0.000278652,-0.0003228959,4,1
-0.0002525595,-0.0003799429,4,1
-0.0002358668,-0.0004058733,4,1
-0.000224036,-0.000400039,4,1
-0.0002160948,-0.000360495,4,1
-0.0002167431,-0.0002940482,4,1
-0.000228898,-0.0002149604,4,1
-0.0002478596,-0.0001387897,4,1
-0.0002669833,-7.817725e-05,4,1
-0.0002822175,-4.041603e-05,4,1
-0.0002938862,-2.664048e-05,4,1
-0.0002998826,-3.198864e-05,4,1
-0.0002979378,-5.095028e-05,4,1
-0.000288538,-7.720486e-05,4,1
-0.0002723315,-0.0001042698,4,1
-0.0002527216,-0.0001295519,4,1
-0.000231329,-0.0001486757,4,1
-0.0002084778,-0.0001566169,4,1
-0.0001789819,-0.0001485136,4,1
-0.0001339277,-0.0001209625,4,1
-6.359137e-05,-7.931171e-05,4,1
3.154097e-05,-3.101625e-05,4,1
0.0001428799,1.403791e-05,4,1
0.0002511395,5.341979e-05,4,1
0.0003373583,9.118101e-05,4,1
0.000391164,0.0001263492,4,1
0.0004102877,0.0001582761,4,1
0.0004007258,0.0001861513,4,1
0.0003773884,0.0002140265,4,1
0.0003542131,0.0002443328,4,1
0.000344165,0.0002739907,4,1
0.0003527545,0.0002961937,4,1
0.0003794953,0.0003064038,4,1
0.000420984,0.000304297,4,1
0.0004665244,0.0002927903,4,1
0.0005057442,0.0002741528,4,1
0.0005285954,0.0002488706,4,1
0.0005191956,0.0002169437,4,1
0.0004798138,0.0001788584,4,1
0.0004303838,0.0001427178,4,1
0.0003957018,0.000113546,4,1
0.0003874365,9.490851e-05,4,1
0.0004020224,8.161915e-05,4,1
0.0004307079,7.432621e-05,4,1
0.000458097,7.999851e-05,4,1
0.0004760863,0.0001083599,4,1
0.0004825689,0.0001584381,4,1
0.0004846757,0.0002188885,4,1
0.0004922928,0.0002733424,4,1
0.0005166026,0.0003112658,4,1
0.0005684635,0.0003299033,4,1
0.0006491721,0.0003368721,4,1
0.0007418735,0.0003397893,4,1
0.0008088066,0.0003409237,4,1
0.0008041067,0.000341734,4,1
0.0007041123,0.0003404375,4,1
0.0005318367,0.0003378445,4,1
0.0003409237,0.0003350894,4,1
0.0001798307,0.0003307136,4,1
7.853991e-05,0.0003253654,4,1
4.547859e-05,0.0003185587,4,1
6.525056e-05,0.0003111037,4,1
0.0001077117,0.0003008936,4,1
0.0001462832,0.0002882525,4,1
0.0001717275,0.000277232,4,1
0.0001906891,0.0002705873,4,1
0.0002188885,0.0002582704,4,1
0.0002605393,0.0002329882,4,1
0.0003002453,0.0001966855,4,1
0.0003080245,0.000155521,4,1
0.0002662116,0.000108522,4,1
0.0001811273,4.304761e-05,4,1
7.659513e-05,-4.462973e-05,4,1
-1.902341e-05,-0.0001426792,4,1
-8.465986e-05,-0.0002318152,4,1
-0.0001141558,-0.0002911311,4,1
-0.0001199901,-0.0003128478,4,1
-0.0001264727,-0.0003044204,4,1
-0.0001598582,-0.0002794623,4,1
-0.0002368392,-0.0002528836,4,1
-0.0003517435,-0.0002335979,4,1
-0.0004929024,-0.0002250084,4,1
-0.0006395715,-0.0002274394,4,1
-0.0007723029,-0.0002404046,4,1
-0.0008813728,-0.000263742,4,1
-0.0009659709,-0.0002891863,4,1
-0.001024801,-0.0003120375,4,1
-0.001045869,-0.0003292164,4,1
-0.001023828,-0.0003395886,4,1
-0.0009544643,-0.0003457471,4,1
-0.0008426392,-0.0003507711,4,1
-0.0007097457,-0.0003515814,4,1
-0.0005891691,-0.0003459091,4,1
-0.0005165638,-0.000328244,4,1
-0.0005133225,-0.0002951827,4,1
-0.0005669662,-0.0002449425,4,1
-0.0006421645,-0.0001773612,4,1
-0.0006945116,-9.486997e-05,4,1
-0.0006919185,-8.651231e-06,4,1
-0.000621096,6.719535e-05,4,1
-0.0004852853,0.0001252147,4,1
-0.000301017,0.0001626518,4,1
-8.563225e-05,0.0001783722,4,1
0.000155683,0.0001809652,4,1
0.0004268184,0.0001842065,4,1
0.0007285841,0.0001893926,4,1
0.001040884,0.0001817755,4,1
0.001322392,0.0001449867,4,1
0.001532916,7.643307e-05,4,1
0.001645875,-9.947754e-06,4,1
0.001659975,-8.919769e-05,4,1
0.001600011,-0.0001383035,4,1
0.001496937,-0.0001489998,4,1
0.001381384,-0.0001216107,4,1
0.001271342,-5.613637e-05,4,1
0.001165675,3.705119e-05,4,1
0.001048339,0.0001286181,4,1
0.0009036149,0.0001861513,4,1
0.0007195085,0.0001944166,4,1
0.0005007202,0.0001650828,4,1
0.0002641047,0.0001289422,4,1
2.149292e-05,0.0001188942,4,1
-0.0002156086,0.0001574657,4,1
-0.0004287245,0.0002422259,4,1
-0.0005951655,0.000356644,4,1
-0.0006911082,0.0004756001,4,1
-0.0007092595,0.0005734875,4,1
-0.0006705259,0.0006321552,4,1
-0.0006155858,0.0006460929,4,1
-0.000586414,0.0006183797,4,1
-0.0006003517,0.0005503122,4,1
-0.0006462161,0.0004438352,4,1
-0.0006794395,0.0003015418,4,1
-0.0006570745,0.0001344524,4,1
-0.0005679386,-3.312309e-05,4,1
-0.0004253211,-0.0001728234,4,1
-0.0002572594,-0.0002652006,4,1
-9.519411e-05,-0.0003091203,4,1
3.364782e-05,-0.0003134961,4,1
0.0001163011,-0.0003003688,4,1
0.0001564933,-0.0002974516,4,1
0.0001683241,-0.0003206269,4,1
0.0001688103,-0.0003713534,4,1
0.0001712413,-0.0004412035,4,1
0.0001942546,-0.000524343,4,1
0.000257298,-0.0006194753,4,1
0.0003712299,-0.0007159042,4,1
0.0005211404,-0.0007883473,4,1
0.0006622995,-0.0008110365,4,1
0.0007472217,-0.0007667927,4,1
0.00074787,-0.0006653398,4,1
0.0006601926,-0.0005305015,4,1
0.000492779,-0.0003873979,4,1
0.0002707494,-0.0002528836,4,1
2.311357e-05,-0.0001384655,4,1
-0.0002305186,-6.0188e-05,4,1
-0.0004715097,-3.360929e-05,4,1
-0.0006792775,-5.986387e-05,4,1
-0.0008397221,-0.0001156143,4,1
-0.0009526816,-0.0001652063,4,1
-0.001033066,-0.0001848162,4,1
-0.001104537,-0.0001648822,4,1
-0.001179735,-0.0001083214,4,1
-0.001252988,-2.7937e-05,4,1
-0.001301608,5.909208e-05,4,1
-0.001305498,0.0001367214,4,1
-0.001265144,0.0001970097,4,1
-0.001195617,0.000237526,4,1
-0.001114909,0.0002662116,4,1
-0.001042952,0.0002903593,4,1
-0.0009888222,0.0003075383,4,1
-0.0009478196,0.0003159656,4,1
-0.0009129756,0.0003115899,4,1
-0.0008807246,0.0002937627,4,1
-0.0008411807,0.0002628082,4,1
-0.0007779752,0.0002221298,4,1
-0.0006742534,0.0001757791,4,1
-0.000514457,0.0001292664,4,1
-0.0002995585,8.534666e-05,4,1
-5.22468e-05,4.499239e-05,4,1
0.0001911753,5.934648e-06,4,1
0.0003955397,-3.182657e-05,4,1
0.0005345919,-6.877746e-05,4,1
0.0005961767,-9.989401e-05,4,1
0.0005924492,-0.0001154523,4,1
0.0005543638,-0.0001178833,4,1
0.000505258,-0.0001136696,4,1
0.0004647417,-0.0001107524,4,1
0.0004423766,-0.0001149661,4,1
0.0004438352,-0.0001263107,4,1
0.0004721967,-0.0001366828,4,1
0.0005294057,-0.0001379794,4,1
0.0006084936,-0.0001261486,4,1
0.0006911471,-9.940781e-05,4,1
0.0007601869,-5.759496e-05,4,1
0.0008154513,-2.330684e-06,4,1
0.0008637467,6.071273e-05,4,1
0.0009078286,0.0001252147,4,1
0.0009494794,0.0001848548,4,1
0.0009848097,0.0002355812,4,1
0.001004096,0.0002731804,4,1
0.0009940475,0.0002961937,4,1
0.0009491552,0.0003091589,4,1
0.0008752534,0.0003185587,4,1
0.0007955172,0.0003307136,4,1
0.0007311772,0.0003498373,4,1
0.0006788301,0.0003734989,4,1
0.0006162729,0.0003973225,4,1
0.0005255162,0.0004200116,4,1
0.0004102877,0.0004315182,4,1
0.000294573,0.000406074,4,1
0.0002039785,0.0003200173,4,1
0.0001519555,0.0001720516,4,1
0.0001315353,-1.270286e-05,4,1
0.0001224596,-0.0001938919,4,1
0.0001041462,-0.0003262992,4,1
6.816773e-05,-0.0003796187,4,1
2.586868e-05,-0.0003514194,4,1
-7.100305e-07,-0.0002648765,4,1
2.693341e-06,-0.0001543479,4,1
3.18651e-05,-4.868137e-05,4,1
6.816773e-05,3.348575e-05,4,1
9.377406e-05,8.550872e-05,4,1
9.426025e-05,0.0001052807,4,1
6.41161e-05,9.652917e-05,4,1
4.47606e-06,7.189524e-05,4,1
-7.947377e-05,4.855783e-05,4,1
-0.0001705545,4.045456e-05,4,1
-0.0002446183,5.536457e-05,4,1
-0.0002848105,9.717743e-05,4,1
-0.0002925897,0.000168,4,1
-0.000288538,0.0002636185,4,1
-0.0002982619,0.000373985,4,1
-0.0003337542,0.0004783552,4,1
-0.0003904771,0.0005631154,4,1
-0.0004614617,0.0006300483,4,1
-0.0005559457,0.0006895264,4,1
-0.0006937013,0.0007498147,4,1
-0.0008787798,0.0008102651,4,1
-0.001077634,0.0008627744,4,1
-0.001237754,0.0009100975,4,1
-0.001324459,0.0009575827,4,1
-0.00133548,0.001008471,4,1
-0.001296422,0.001061791,4,1
-0.001239213,0.001103928,4,1
-0.001181518,0.001110248,4,1
-0.001126416,0.001052877,4,1
-0.001064669,0.0009201455,4,1
-0.0009748845,0.0007227498,4,1
-0.0008372911,0.0004885653,4,1
-0.0006439472,0.0002511395,4,1
-0.000410087,3.510641e-05,4,1
-0.0001611547,-0.0001601823,4,1
7.90261e-05,-0.0003494746,4,1
0.0002905214,-0.00053666,4,1
0.0004678209,-0.0007035872,4,1
0.0006190279,-0.0008283774,4,1
0.0007634282,-0.0008992,4,1
0.0009222524,-0.0009199444,4,1
0.0011002,-0.0009084377,4,1
0.001278797,-0.0008860728,4,1
0.001426601,-0.0008677593,4,1
0.001521733,-0.0008583596,4,1
0.001557712,-0.0008541459,4,1
0.001535833,-0.0008455564,4,1
0.001458365,-0.0008264327,4,1
0.001334061,-0.000797261,4,1
0.00119193,-0.0007637134,4,1
0.001063087,-0.0007235213,4,1
0.0009637412,-0.0006714982,4,1
0.0008922703,-0.0006021344,4,1
0.0008400852,-0.0005160777,4,1
0.000797624,-0.0004204592,4,1
0.0007488423,-0.0003279199,4,1
0.0006746164,-0.0002517492,4,1
0.0005520949,-0.0002031296,4,1
0.0003743092,-0.0001864369,4,1
0.000168162,-0.000191623,4,1
-9.137427e-06,-0.0001994021,4,1
-0.0001070249,-0.0001961608,4,1
-0.0001144799,-0.0001823853,4,1
-5.775702e-05,-0.000161965,4,1
1.517237e-05,-0.0001418689,4,1
5.471631e-05,-0.0001243659,4,1
2.81376e-05,-0.0001065387,4,1
-7.072225e-05,-8.660465e-05,4,1
-0.0002183637,-6.44017e-05,4,1
-0.0003763774,-3.587821e-05,4,1
-0.0005121881,-5.734056e-06,4,1
-0.0006126686,1.825161e-05,4,1
-0.0006745775,2.910999e-05,4,1
-0.0006946736,2.197911e-05,4,1
-0.0006690673,5.86492e-07,4,1
-0.0005979206,-2.437157e-05,4,1
-0.0004885266,-4.300908e-05,4,1
-0.0003598467,-5.419158e-05,4,1
-0.0002376495,-6.099833e-05,4,1
-0.0001489998,-6.051213e-05,4,1
-0.0001130213,-4.754691e-05,4,1
-0.0001266348,-2.583016e-05,4,1
-0.0001707166,-5.57199e-06,4,1
-0.0002243602,3.827799e-06,4,1
-0.0002742763,-8.720959e-07,4,1
-0.000313334,-1.270286e-05,4,1
-0.000338292,-1.869928e-05,4,1
-0.0003467195,-2.006553e-06,4,1
-0.0003348887,4.466826e-05,4,1
-0.0002997205,0.0001112771,4,1
-0.0002502906,0.0001788584,4,1
-0.0002058847,0.0002312055,4,1
-0.0001859507,0.0002582704,4,1
-0.0001925954,0.0002579462,4,1
-0.0002037779,0.0002388225,4,1
-0.0001908126,0.0002135403,4,1
-0.0001381414,0.0001859892,4,1
-4.868137e-05,0.000155521,4,1
6.249545e-05,0.0001240803,4,1
0.0001692965,9.134307e-05,4,1
0.0002396328,5.61749e-05,4,1
0.0002488706,1.387585e-05,4,1
0.000195227,-3.782299e-05,4,1
9.426025e-05,-9.632857e-05,4,1
-3.231277e-05,-0.000151917,4,1
-0.0001647201,-0.0001912988,4,1
-0.0002804347,-0.0002052365,4,1
-0.0003569296,-0.0001959987,4,1
-0.00038286,-0.0001710407,4,1
-0.0003632501,-0.0001425172,4,1
-0.000313334,-0.0001161005,4,1
-0.0002549905,-9.341139e-05,4,1
-0.0002073433,-7.477388e-05,4,1
-0.0001877334,-6.116039e-05,4,1
-0.0001995642,-4.916756e-05,4,1
-0.0002350565,-3.652646e-05,4,1
-0.0002823795,-2.372331e-05,4,1
-0.0003297026,-1.416145e-05,4,1
-0.0003650328,-5.247859e-06,4,1
-0.0003768636,6.258778e-06,4,1
-0.0003647087,2.052053e-05,4,1
-0.0003235441,3.624086e-05,4,1
-0.0002572594,5.212327e-05,4,1
-0.0001749302,6.573675e-05,4,1
-9.065628e-05,7.6271e-05,4,1
-1.934754e-05,8.242948e-05,4,1
2.684107e-05,8.356394e-05,4,1
4.661304e-05,8.080883e-05,4,1
4.547859e-05,7.724339e-05,4,1
2.748934e-05,7.756752e-05,4,1
-7.030578e-06,7.918817e-05,4,1
-5.64605e-05,8.178122e-05,4,1
-0.0001045939,8.307774e-05,4,1
-0.0001295519,8.648112e-05,4,1
-0.0001185315,9.814982e-05,4,1
-7.201877e-05,0.0001171115,4,1
-6.176923e-08,0.0001368834,4,1
8.761557e-05,0.0001504969,4,1
0.0001812893,0.00015309,4,1
0.0002689667,0.0001467694,4,1
0.0003433547,0.000135749,4,1
0.00040105,0.0001295905,4,1
0.000440756,0.0001326697,4,1
0.0004642555,0.0001470936,4,1
0.0004734932,0.000165569,4,1
0.0004733311,0.0001770756,4,1
0.0004687933,0.0001752929,4,1
0.0004603659,0.0001644345,4,1
0.000448211,0.0001521176,4,1
0.0004342734,0.0001443384,4,1
0.0004193634,0.0001422316,4,1
0.0003994293,0.0001485521,4,1
0.0003647473,0.0001694586,4,1
0.0003023522,0.0002059233,4,1
0.0002055991,0.0002448189,4,1
7.124698e-05,0.0002735045,4,1
-9.892161e-05,0.0002884145,4,1
-0.0002815692,0.0002953834,4,1
-0.00042759,0.0003060797,4,1
-0.000484475,0.0003237448,4,1
-0.0004360174,0.0003475684,4,1
-0.000305879,0.0003746333,4,1
-0.0001394379,0.0003982949,4,1
2.230325e-05,0.0004096394,4,1
0.0001568175,0.0004067223,4,1
0.0002441707,0.000396188,4,1
0.0002642668,0.0003843572,4,1
0.0002070577,0.0003720403,4,1
8.323981e-05,0.0003574544,4,1
-7.347736e-05,0.0003410858,4,1
-0.000221605,0.0003255275,4,1
-0.0003259751,0.0003104554,4,1
-0.0003651949,0.0002923041,4,1
-0.0003279199,0.0002691288,4,1
-0.0002156086,0.0002431983,4,1
-4.074016e-05,0.0002166196,4,1
0.0001684862,0.0001825859,4,1
0.0003777126,0.0001325077,4,1
0.0005624671,6.622294e-05,4,1
0.0007101087,-4.923729e-06,4,1
0.0008113996,-6.48879e-05,4,1
0.0008583986,-0.0001039456,4,1
0.0008478644,-0.0001250141,4,1
0.0007804451,-0.0001400862,4,1
0.0006580857,-0.0001655305,4,1
0.0004827309,-0.0002018331,4,1
0.0002670219,-0.0002386219,4,1
3.624086e-05,-0.0002673075,4,1
-0.0001763888,-0.0002848105,4,1
-0.0003452609,-0.0002943724,4,1
-0.0004544929,-0.0002972895,4,1
-0.0004914437,-0.0002997205,4,1
-0.0004587066,-0.0003094444,4,1
-0.0003844807,-0.0003340784,4,1
-0.000310903,-0.0003720016,4,1
-0.0002664971,-0.000410249,4,1
-0.000246401,-0.0004287245,4,1
-0.0002207947,-0.0004138145,4,1
-0.000152079,-0.0003707051,4,1
-2.615429e-05,-0.0003151167,4,1
0.0001446626,-0.000258718,4,1
0.0003289309,-0.0002058847,4,1
0.000492779,-0.0001590478,4,1
0.0006057385,-0.0001214487,4,1
0.0006545202,-9.584238e-05,4,1
0.0006491721,-8.433573e-05,4,1
0.0006230795,-9.227693e-05,4,1
0.0006057385,-0.000127121,4,1
0.000606711,-0.0001937298,4,1
0.0006046041,-0.0002817312,4,1
0.0005608465,-0.000370543,4,1
0.0004349216,-0.0004405553,4,1
0.0002094887,-0.0004817198,4,1
-8.757704e-05,-0.0004979264,4,1
-0.0003950149,-0.0004974402,4,1
-0.0006510781,-0.0004838267,4,1
-0.0008236776,-0.0004543308,4,1
-0.0009047102,-0.0004021458,4,1
-0.0009038999,-0.0003248407,4,1
-0.0008392359,-0.0002280877,4,1
-0.0007426449,-0.0001242038,4,1
-0.0006441093,-2.501983e-05,4,1
-0.0005536768,6.476436e-05,4,1
-0.0004600031,0.0001496866,4,1
-0.000350609,0.0002381743,4,1
-0.0002198223,0.0003276344,4,1
-7.785312e-05,0.0004146635,4,1
5.909208e-05,0.0005012064,4,1
0.0001735102,0.0005898562,4,1
0.0002556773,0.0006781818,4,1
0.0003054314,0.0007535422,4,1
0.000324393,0.0008011895,4,1
0.0003206656,0.0008167478,4,1
0.0003059176,0.0008002172,4,1
0.0002903593,0.0007519216,4,1
0.000277232,0.0006741302,4,1
0.000259729,0.0005699221,4,1
0.0002263435,0.0004490213,4,1
0.0001688103,0.0003180725,4,1
8.631905e-05,0.0001827479,4,1
-9.299493e-06,5.244739e-05,4,1
-0.0001007043,-5.840528e-05,4,1
-0.0001624512,-0.0001358725,4,1
-0.0001760647,-0.0001703924,4,1
-0.0001504584,-0.0001699062,4,1
-0.000117235,-0.0001562927,4,1
-0.0001193418,-0.0001506204,4,1
-0.0001880575,-0.000161965,4,1
-0.0003147926,-0.0001911368,4,1
-0.0004575721,-0.0002374874,4,1
-0.0005668041,-0.0003026377,4,1
-0.0006103997,-0.0003899909,4,1
-0.0005818762,-0.0004860956,4,1
-0.0004917679,-0.0005710179,4,1
-0.0003533641,-0.0006222305,4,1
-0.000181737,-0.0006343853,4,1
4.638125e-06,-0.0006146134,4,1
0.0001817755,-0.0005744212,4,1
0.0003295791,-0.0005196431,4,1
0.0004415663,-0.0004514136,4,1
0.0005203301,-0.0003747568,4,1
0.0005705704,-0.0002980999,4,1
0.0005879114,-0.0002303566,4,1
0.0005652222,-0.0001760647,4,1
0.0004922928,-0.0001397621,4,1
0.0003675024,-0.000119828,4,1
0.0001926339,-0.0001104282,4,1
-2.388537e-05,-0.0001036215,4,1
-0.0002622834,-9.2439e-05,4,1
-0.0004929024,-7.428769e-05,4,1
-0.0006844635,-4.884343e-05,4,1
-0.0008218948,-1.967167e-05,4,1
-0.0009056826,1.047248e-05,4,1
-0.0009525195,4.402e-05,4,1
-0.0009745604,8.453633e-05,4,1
-0.0009747224,0.0001310491,4,1
-0.0009442542,0.000177886,4,1
-0.0008782936,0.0002245608,4,1
-0.0007857543,0.0002713977,4,1
-0.0006828429,0.0003138588,4,1
-0.0005820383,0.0003401134,4,1
-0.0004826922,0.0003378445,4,1
-0.0003776739,0.0003081865,4,1
-0.0002491561,0.0002632944,4,1
-7.882551e-05,0.0002162954,4,1
0.0001402868,0.0001796687,4,1
0.0003918123,0.0001537382,4,1
0.0006358828,0.0001355869,4,1
0.0008293889,0.0001169494,4,1
0.0009449415,8.486046e-05,4,1
0.0009776788,2.927205e-05,4,1
0.0009421865,-4.219875e-05,4,1
0.000851916,-0.0001084835,4,1
0.0007139983,-0.000144624,4,1
0.0005480433,-0.0001310105,4,1
0.0003816021,-6.326724e-05,4,1
0.0002440086,4.499239e-05,4,1
0.0001633001,0.0001717275,4,1
0.0001550348,0.0002953834,4,1
0.0002167816,0.0004020224,4,1
0.0003188828,0.0004822447,4,1
0.0004078567,0.0005329712,4,1
0.0004409181,0.0005553362,4,1
0.0004117463,0.0005507984,4,1
0.0003519442,0.0005234093,4,1
0.0003062417,0.0004822447,4,1
0.0003085106,0.0004373526,4,1
0.0003603715,0.0003905157,4,1
0.0004334631,0.0003389789,4,1
0.0004874308,0.0002798251,4,1
0.0004929411,0.0002206712,4,1
0.0004441593,0.0001722137,4,1
0.0003522683,0.0001351007,4,1
0.00024255,0.000103498,4,1
0.0001441764,7.189524e-05,4,1
8.42122e-05,2.943412e-05,4,1
7.740546e-05,-2.89094e-05,4,1
0.0001216493,-9.389759e-05,4,1
0.0001939304,-0.0001486757,4,1
0.0002644289,-0.0001840059,4,1
0.0003125623,-0.0001989159,4,1
0.0003307136,-0.0001925954,4,1
0.0003175863,-0.0001721751,4,1
0.0002775562,-0.0001439758,4,1
0.0002231022,-0.00010978,4,1
0.0001675138,-7.218083e-05,4,1
0.000128456,-3.749886e-05,4,1
0.0001090082,-1.594417e-05,4,1
9.782569e-05,-1.837515e-05,4,1
7.254349e-05,-4.333321e-05,4,1
1.906194e-05,-7.623246e-05,4,1
-5.516398e-05,-9.924574e-05,4,1
-0.0001269589,-0.000102325,4,1
-0.0001720131,-8.903562e-05,4,1
-0.0001801163,-6.91016e-05,4,1
-0.0001553203,-5.208474e-05,4,1
-0.0001269589,-4.560212e-05,4,1
-0.0001381414,-4.787104e-05,4,1
-0.0002178775,-5.095028e-05,4,1
-0.0003564434,-4.657452e-05,4,1
-0.0005214258,-3.312309e-05,4,1
-0.000683167,-1.67545e-05,4,1
-0.0008342119,-3.465141e-06,4,1
-0.0009846084,-1.682422e-06,4,1
-0.001145053,-1.659243e-05,4,1
-0.001322677,-4.300908e-05,4,1
-0.001498031,-7.056019e-05,4,1
-0.001625901,-8.709085e-05,4,1
-0.001658314,-8.514606e-05,4,1
-0.001572257,-6.780507e-05,4,1
-0.001378751,-4.219875e-05,4,1
-0.001110533,-1.659243e-05,4,1
-0.0008061745,4.638125e-06,4,1
-0.0004956574,2.133085e-05,4,1
-0.0002008607,3.073064e-05,4,1
7.448828e-05,2.927205e-05,4,1
0.0003378445,1.322759e-05,4,1
0.0005937457,-1.950961e-05,4,1
0.0008386266,-6.618442e-05,4,1
0.001053525,-0.0001183694,4,1
0.001216077,-0.0001630995,4,1
0.001320609,-0.0001929195,4,1
0.001378791,-0.0002068571,4,1
0.001401967,-0.0002083157,4,1
0.001404235,-0.0002083157,4,1
0.001398725,-0.0002167431,4,1
0.001388677,-0.0002355427,4,1
0.001361774,-0.0002567732,4,1
0.001297596,-0.0002674695,4,1
0.001193712,-0.0002566112,4,1
0.001066491,-0.0002188499,4,1
0.0009387831,-0.0001577513,4,1
0.0008113996,-9.098041e-05,4,1
0.0006678096,-3.620233e-05,4,1
0.0004997478,2.855407e-06,4,1
0.0003158036,3.13789e-05,4,1
0.0001370455,5.471631e-05,4,1
-1.20546e-05,7.837785e-05,4,1
-0.0001062146,9.993253e-05,4,1
-0.0001305243,0.0001177597,4,1
-9.762509e-05,0.0001310491,4,1
-3.911951e-05,0.0001375317,4,1
7.555301e-06,0.000135911,4,1
1.403791e-05,0.0001244044,4,1
-3.053005e-05,9.101894e-05,4,1
-0.0001233935,2.619281e-05,4,1
-0.0002483458,-6.0188e-05,4,1
-0.0003726499,-0.0001447861,4,1
-0.0004604893,-0.0002063709,4,1
-0.0004938748,-0.0002334358,4,1
-0.0004849611,-0.000228898,4,1
-0.000459679,-0.0002058847,4,1
-0.0004415277,-0.000174282,4,1
-0.0004481723,-0.000144624,4,1
-0.0004867439,-0.0001217728,4,1
-0.0005543251,-0.000102325,4,1
-0.0006473506,-7.363943e-05,4,1
-0.0007580412,-3.004385e-05,4,1
-0.0008650042,2.651694e-05,4,1
-0.0009382577,8.534666e-05,4,1
-0.0009604607,0.0001385041,4,1
-0.0009319372,0.000185503,4,1
-0.0008658146,0.0002295848,4,1
-0.0007770028,0.000269777,4,1
-0.0006734431,0.000304459,4,1
-0.0005575664,0.0003354135,4,1
-0.0004340726,0.0003702575,4,1
-0.0003097686,0.0004136911,4,1
-0.0001922712,0.0004678209,4,1
-8.871149e-05,0.0005292437,4,1
-1.124428e-05,0.0005913147,4,1
3.040651e-05,0.0006444722,4,1
3.510641e-05,0.0006757508,4,1
1.484824e-05,0.0006794783,4,1
-1.140634e-05,0.0006598685,4,1
-3.117831e-05,0.0006339379,4,1
-3.668853e-05,0.0006255105,4,1
-2.210265e-05,0.0006472273,4,1
1.22552e-05,0.0006864472,4,1
5.795762e-05,0.0007089743,4,1
9.960841e-05,0.0006875816,4,1
0.0001219734,0.0006203245,4,1
0.0001150046,0.0005253541,4,1
7.319176e-05,0.0004226047,4,1
4.47606e-06,0.0003224483,4,1
-7.282909e-05,0.0002188885,4,1
-0.0001428413,0.0001062531,4,1
-0.0002011848,-1.351319e-05,4,1
-0.000253856,-0.0001302002,4,1
-0.0003024756,-0.000231491,4,1
-0.000340561,-0.0003115513,4,1
-0.0003601709,-0.0003734602,4,1
-0.0003499608,-0.0004207833,4,1
-0.0003027998,-0.000459841,4,1
-0.0002229016,-0.0004950092,4,1
-0.0001298761,-0.0005261258,4,1
-5.872941e-05,-0.0005452494,4,1
-4.884343e-05,-0.0005473563,4,1
-0.000117235,-0.0005311498,4,1
-0.0002472114,-0.0004980884,4,1
-0.0004010113,-0.0004557894,4,1
-0.0005282326,-0.0004180282,4,1
-0.000578959,-0.0003961493,4,1
-0.0005227224,-0.0003942046,4,1
-0.000370543,-0.0004040906,4,1
-0.0001642339,-0.0004131662,4,1
5.115087e-05,-0.000412518,4,1
0.0002490327,-0.0003961493,4,1
0.0004182289,-0.0003673017,4,1
0.0005603603,-0.0003376438,4,1
0.0006862851,-0.0003162512,4,1
0.0008199891,-0.0003060411,4,1
0.0009768684,-0.0003018274,4,1
0.001142013,-0.0002916173,4,1
0.001273773,-0.0002690902,4,1
0.001335033,-0.0002334358,4,1
0.001310724,-0.0001877334,4,1
0.001207488,-0.0001379794,4,1
0.001055632,-8.968389e-05,4,1
0.0008982667,-4.85193e-05,4,1
0.0007804451,-1.448558e-05,4,1
0.0007191843,1.792748e-05,4,1
0.0007000606,5.19612e-05,4,1
0.0006926056,8.680524e-05,4,1
0.0006697544,0.0001175977,4,1
0.000616759,0.0001363972,4,1
0.0005365367,0.0001346145,4,1
0.0004412422,0.0001154908,4,1
0.0003418961,9.020862e-05,4,1
0.0002480603,7.059871e-05,4,1
0.0001714034,6.476436e-05,4,1
0.0001261871,7.059871e-05,4,1
0.0001127357,8.226741e-05,4,1
0.0001141943,9.150514e-05,4,1
0.0001044704,8.79397e-05,4,1
6.152305e-05,6.606088e-05,4,1
-2.84232e-05,2.505836e-05,4,1
-0.0001674752,-2.712668e-05,4,1
-0.0003373197,-8.773911e-05,4,1
-0.0005018159,-0.0001554824,4,1
-0.0006274165,-0.0002300324,4,1
-0.000695646,-0.0003003688,4,1
-0.0006990494,-0.0003481781,4,1
-0.0006282268,-0.0003514194,4,1
-0.0004758855,-0.0002908069,4,1
-0.0002543422,-0.0001684476,4,1
-1.844488e-06,-8.651231e-06,4,1
0.0002273159,0.0001535762,4,1
0.0003819262,0.0002923041,4,1
0.0004396215,0.0003921364,4,1
0.0004172565,0.0004504799,4,1
0.0003512959,0.0004765725,4,1
0.0002720459,0.0004794896,4,1
0.0001989545,0.0004692795,4,1
0.000135749,0.0004525868,4,1
8.664318e-05,0.0004349216,4,1
5.795762e-05,0.0004177427,4,1
4.855783e-05,0.0003992672,4,1
5.163707e-05,0.0003704196,4,1
5.552663e-05,0.0003179104,4,1
4.953022e-05,0.0002381743,4,1
2.716521e-05,0.0001425557,4,1
-1.383732e-05,5.666109e-05,4,1
-7.526008e-05,-2.238346e-07,4,1
-0.0001559686,-2.550602e-05,4,1
-0.0002575835,-3.620233e-05,4,1
-0.0003755671,-5.159854e-05,4,1
-0.0004987367,-8.336335e-05,4,1
-0.0006139652,-0.000134738,4,1
-0.0007058561,-0.00019924,4,1
-0.0007645238,-0.0002601766,4,1
-0.0007828371,-0.0003005308,4,1
-0.0007554481,-0.0003130099,4,1
-0.0006868945,-0.000301017,4,1
-0.0005896553,-0.0002752487,4,1
-0.0004869059,-0.0002540181,4,1
-0.000405063,-0.0002481838,4,1
-0.0003645466,-0.0002567732,4,1
-0.00036795,-0.000271035,4,1
-0.0003899909,-0.0002852967,4,1
-0.0003972838,-0.0003024756,4,1
-0.0003682741,-0.0003277578,4,1
-0.0003076617,-0.0003621157,4,1
-0.0002335979,-0.0003958252,4,1
-0.000156941,-0.000415111,4,1
-7.60704e-05,-0.000405063,4,1
5.772582e-06,-0.0003638984,4,1
7.546067e-05,-0.0003006929,4,1
0.0001229458,-0.0002263049,4,1
0.0001483901,-0.0001504584,4,1
0.0001602208,-8.303922e-05,4,1
0.0001691344,-2.955766e-05,4,1
0.0001769136,8.365628e-06,4,1
0.0001799928,3.543054e-05,4,1
0.000170431,5.860588e-05,4,1
0.0001376938,8.080883e-05,4,1
7.319176e-05,0.0001047945,4,1
-1.659243e-05,0.0001299146,4,1
-0.0001143178,0.0001573037,4,1
-0.000194216,0.000185503,4,1
-0.0002352185,0.000210299,4,1
-0.0002332737,0.0002279642,4,1
-0.0002047502,0.000239957,4,1
-0.0001741199,0.0002480603,4,1
-0.0001626133,0.0002555152,4,1
-0.0001739578,0.0002615117,4,1
-0.0001974573,0.0002611876,4,1
-0.0002128535,0.0002511395,4,1
-0.0002055606,0.0002370398,4,1
-0.0001749302,0.0002315296,4,1
-0.0001248521,0.0002389846,4,1
-5.581224e-05,0.000252436,4,1
3.267542e-05,0.0002628082,4,1
0.0001352628,0.000264753,4,1
0.0002365536,0.0002621599,4,1
0.000324231,0.0002632944,4,1
0.0004046154,0.0002751252,4,1
0.0004992616,0.0002957075,4,1
0.0006136798,0.0003188828,4,1
0.0007300428,0.0003425444,4,1
0.0008094548,0.0003694472,4,1
0.0008096169,0.0003997535,4,1
0.0007123777,0.000428439,4,1
0.000537347,0.0004488593,4,1
0.000329255,0.0004589073,4,1
0.0001360731,0.000453235,4,1
-5.085794e-06,0.0004321665,4,1
-8.02841e-05,0.0003994293,4,1
-8.44978e-05,0.0003593992,4,1
-1.659243e-05,0.0003198552,4,1
0.0001094944,0.0002876042,4,1
0.0002718839,0.0002621599,4,1
0.0004430249,0.000235095,4,1
0.0005932595,0.0002046267,4,1
0.0006966573,0.0001731861,4,1
0.0007392805,0.000145797,4,1
0.0007243705,0.0001261871,4,1
0.000656465,0.0001119254,4,1
0.0005418848,9.118101e-05,4,1
0.0003984569,5.374392e-05,4,1
0.0002483844,-1.520357e-06,4,1
0.0001150046,-6.553616e-05,4,1
1.59827e-05,-0.0001253383,4,1
-3.976777e-05,-0.0001716889,4,1
-6.423963e-05,-0.0001953505,4,1
-9.956988e-05,-0.0001961608,4,1
-0.0002175534,-0.0001849783,4,1
-0.000467134,-0.0001796301,4,1
-0.0008287016,-0.0001875713,4,1
-0.001214579,-0.0002110708,4,1
-0.001522341,-0.0002467252,4,1
-0.001675979,-0.0002877277,4,1
-0.001646159,-0.0003224097,4,1
-0.001458325,-0.0003452609,4,1
-0.001166446,-0.0003520676,4,1
-0.0008379394,-0.0003439643,4,1
-0.0005296912,-0.0003227338,4,1
-0.0002708729,-0.0002917793,4,1
-5.370539e-05,-0.0002506147,4,1
0.0001461212,-0.0001985918,4,1
0.0003376824,-0.0001439758,4,1
0.0005078511,-9.697683e-05,4,1
0.0006308587,-6.780507e-05,4,1
0.0006948746,-6.278104e-05,4,1
0.0007089743,-8.060823e-05,4,1
0.0006807749,-0.0001118868,4,1
0.0006075213,-0.000144624,4,1
0.0004919686,-0.0001721751,4,1
0.0003606957,-0.0001856265,4,1
0.0002615117,-0.0001799543,4,1
0.0002451431,-0.0001536997,4,1
0.0003402755,-0.0001105903,4,1
0.0005295678,-6.002594e-05,4,1
0.0007439804,-1.059602e-05,4,1
0.0009032908,3.299956e-05,4,1
0.0009528828,6.622294e-05,4,1
0.0008802774,9.004655e-05,4,1
0.0007130259,0.0001094944,4,1
0.0004981271,0.0001271595,4,1
0.0002981384,0.000138342,4,1
0.0001647587,0.000138342,4,1
0.0001141943,0.0001312112,4,1
0.000130887,0.0001211631,4,1
0.0001895547,0.0001125736,4,1
0.0002688046,0.0001093323,4,1
0.0003511338,0.0001132219,4,1
0.0004174185,0.0001240803,4,1
0.000460528,0.000133318,4,1
0.0004786793,0.0001326697,4,1
0.0004764104,0.0001198666,4,1
0.000460528,9.896015e-05,4,1
0.000428439,7.951231e-05,4,1
0.0003728506,7.108491e-05,4,1
0.0002929524,7.465034e-05,4,1
0.000200251,8.631905e-05,4,1
0.0001188942,0.0001007429,4,1
7.270556e-05,0.0001145184,4,1
7.610894e-05,0.0001240803,4,1
0.0001269974,0.000130887,4,1
0.0002049509,0.0001360731,4,1
0.0002728562,0.0001399627,4,1
0.0002948972,0.0001404489,4,1
0.0002440086,0.0001378558,4,1
0.0001166253,0.0001321835,4,1
-6.780507e-05,0.0001237561,4,1
-0.0002750866,0.0001164632,4,1
-0.0004729683,0.0001094944,4,1
-0.0006494574,0.0001012291,4,1
-0.000812333,9.004655e-05,4,1
-0.0009790981,7.594687e-05,4,1
-0.001151698,6.217132e-05,4,1
-0.001312953,5.001642e-05,4,1
-0.00143515,3.672706e-05,4,1
-0.001496087,1.582063e-05,4,1
-0.001493332,-1.918548e-05,4,1
-0.001444226,-7.039812e-05,4,1
-0.001371944,-0.0001289037,4,1
-0.001292857,-0.0001815749,4,1
-0.001211014,-0.0002175534,4,1
-0.001119609,-0.0002327876,4,1
-0.001013294,-0.0002298704,4,1
-0.0008899623,-0.0002160948,4,1
-0.0007535033,-0.0001950263,4,1
-0.0006219063,-0.0001750923,4,1
-0.0005227224,-0.0001671511,4,1
-0.0004655133,-0.0001752544,4,1
-0.0004251591,-0.0001924333,4,1
-0.000365357,-0.0002086398,4,1
-0.0002692523,-0.0002167431,4,1
-0.0001480274,-0.0002156086,4,1
-3.441962e-05,-0.000208964,4,1
4.013043e-05,-0.0002019951,4,1
5.909208e-05,-0.0002003745,4,1
2.992031e-05,-0.0002049123,4,1
-2.161646e-05,-0.0002102605,4,1
-6.083626e-05,-0.0002154466,4,1
-5.775702e-05,-0.0002188499,4,1
-1.682422e-06,-0.0002188499,4,1
8.84259e-05,-0.0002154466,4,1
0.0001801549,-0.0002088019,4,1
0.0002508154,-0.0001995642,4,1
0.0002966799,-0.0001898403,4,1
0.0003349273,-0.0001759026,4,1
0.0003895433,-0.0001566169,4,1
0.0004757621,-0.0001332795,4,1
0.0005849942,-0.0001084835,4,1
0.0006843403,-8.40116e-05,4,1
0.0007371737,-6.456377e-05,4,1
0.0007332841,-5.22468e-05,4,1
0.0006914712,-4.706071e-05,4,1
0.0006381517,-4.592625e-05,4,1
0.0005955285,-4.300908e-05,4,1
0.0005734875,-3.312309e-05,4,1
0.0005713807,-1.367526e-05,4,1
0.0005838597,1.241726e-05,4,1
0.0006008766,4.013043e-05,4,1
0.0006057385,6.200925e-05,4,1
0.0005890459,7.821578e-05,4,1
0.0005574431,9.085688e-05,4,1
0.0005281092,0.00010366,4,1
0.0005185474,0.000115977,4,1
0.0005332953,0.0001299146,4,1
0.000562143,0.0001477418,4,1
0.0005777013,0.0001699448,4,1
0.0005571189,0.0001908512,4,1
0.0004984512,0.0002086784,4,1
0.0004226047,0.000222616,4,1
0.0003482167,0.0002331503,4,1
0.0002816078,0.0002444948,4,1
0.0002115956,0.0002592428,4,1
0.0001218114,0.000274801,4,1
9.66215e-06,0.0002885766,4,1
-0.0001084835,0.0002955454,4,1
-0.0002133397,0.0002978143,4,1
-0.0002919414,0.0002997591,4,1
-0.0003413713,0.0003049452,4,1
-0.0003632501,0.000307052,4,1
-0.0003637363,0.0003010556,4,1
-0.0003476919,0.0002861456,4,1
-0.0003180339,0.0002595669,4,1
-0.00027849,0.0002216436,4,1
-0.0002355427,0.0001767515,4,1
-0.0001963229,0.0001341283,4,1
-0.0001598582,0.000101067,4,1
-0.0001290658,8.259155e-05,4,1
-0.0001101041,8.178122e-05,4,1
-0.0001024871,9.150514e-05,4,1
-9.924574e-05,0.0001043083,4,1
-9.341139e-05,0.0001161391,4,1
-8.303922e-05,0.0001248906,4,1
-6.634648e-05,0.0001329939,4,1
-4.835724e-05,0.000143204,4,1
-3.409549e-05,0.0001566554,4,1
-2.258885e-05,0.0001733481,4,1
-1.918548e-05,0.000187934,4,1
-3.198864e-05,0.0001916615,4,1
-6.197072e-05,0.0001783722,4,1
-9.940781e-05,0.0001464453,4,1
-0.0001295519,9.507057e-05,4,1
-0.0001363587,2.846173e-05,4,1
-0.0001114006,-4.446767e-05,4,1
-6.197072e-05,-0.0001089697,4,1
-8.975362e-06,-0.0001477033,4,1
2.441009e-05,-0.0001562927,4,1
2.635488e-05,-0.0001465688,4,1
-3.14101e-06,-0.0001355484,4,1
-5.435365e-05,-0.0001310105,4,1
-0.0001130213,-0.0001298761,4,1
-0.0001666649,-0.000127283,4,1
-0.000206695,-0.0001243659,4,1
-0.0002272773,-0.0001290658,4,1
-0.0002196603,-0.0001507825,4,1
-0.0001712027,-0.0001862748,4,1
-7.752899e-05,-0.0002167431,4,1
4.693717e-05,-0.000216581,4,1
0.000178048,-0.0001741199,4,1
0.0002940868,-9.908367e-05,4,1
0.0003850055,-1.67545e-05,4,1
0.0004527488,4.564065e-05,4,1
0.0005018546,6.865393e-05,4,1
0.0005251921,5.050261e-05,4,1
0.0005086614,9.66215e-06,4,1
0.0004428628,-3.490581e-05,4,1
0.0003286068,-6.278104e-05,4,1
0.0001866375,-5.824322e-05,4,1
5.131294e-05,-2.031993e-05,4,1
-4.689865e-05,3.445814e-05,4,1
-9.600444e-05,7.173317e-05,4,1
-0.0001102662,6.78436e-05,4,1
-0.0001191798,2.894792e-05,4,1
-0.0001530514,-2.356124e-05,4,1
-0.0002245222,-7.914964e-05,4,1
-0.0003180339,-0.0001447861,4,1
-0.0004091146,-0.0002378116,4,1
-0.0004779923,-0.0003718396,4,1
-0.0005162397,-0.0005343911,4,1
-0.000516888,-0.0006865704,4,1
-0.0004731304,-0.0007802441,4,1
-0.0003838324,-0.000785106,4,1
-0.0002566112,-0.0007035872,4,1
-0.0001063766,-0.0005609698,4,1
5.131294e-05,-0.0003898288,4,1
0.0002091646,-0.0002196603,4,1
0.0003684748,-6.683268e-05,4,1
0.0005284334,6.508849e-05,4,1
0.0006742922,0.0001738343,4,1
0.0007854691,0.0002581083,4,1
0.0008502954,0.0003196932,4,1
0.0008660157,0.0003623164,4,1
0.000837168,0.0003890571,4,1
0.000780121,0.0004029947,4,1
0.0007136742,0.0004041292,4,1
0.0006543582,0.0003963501,4,1
0.000604442,0.0003809539,4,1
0.0005558224,0.0003589129,4,1
0.0004987754,0.0003363859,4,1
0.0004316803,0.0003211517,4,1
0.0003572923,0.0003219621,4,1
0.0002791768,0.0003433547,4,1
0.0001957132,0.0003845193,4,1
0.0001023635,0.0004386491,4,1
-5.479652e-07,0.0004845136,4,1
-0.0001024871,0.0004864584,4,1
-0.0001825473,0.0004187151,4,1
-0.0002271153,0.0002874421,4,1
-0.0002407288,0.0001316974,4,1
-0.0002447804,-1.358292e-06,4,1
-0.0002635799,-8.40116e-05,4,1
-0.0003052308,-0.0001117248,4,1
-0.0003656811,-0.0001010285,4,1
-0.0004314796,-6.213279e-05,4,1
-0.0004967919,6.582909e-06,4,1
-0.0005518941,9.896015e-05,4,1
-0.0005872243,0.0001944166,4,1
-0.0005972724,0.0002668598,4,1
-0.000586252,0.00029198,4,1
-0.0005659938,0.0002641047,4,1
-0.0005439529,0.0001900409,4,1
-0.000514457,9.458438e-05,4,1
-0.0004681064,8.203562e-06,4,1
-0.0004039285,-5.176061e-05,4,1
-0.0003360231,-8.676672e-05,4,1
-0.0002796244,-0.0001118868,4,1
-0.0002395943,-0.0001442999,4,1
-0.0002156086,-0.0001948643,4,1
-0.0002034537,-0.0002627696,4,1
-0.0002024813,-0.0003410472,4,1
-0.0002102605,-0.0004191627,4,1
-0.0002250084,-0.0004818819,4,1
-0.0002460769,-0.00051705,4,1
-0.0002674695,-0.0005251534,4,1
-0.0002838381,-0.0005121881,4,1
-0.0002932379,-0.0004825302,4,1
-0.0002924276,-0.0004428242,4,1
-0.0002780038,-0.0003959873,4,1
-0.0002434839,-0.000345585,4,1
-0.0001849783,-0.0002938862,4,1
-0.0001112386,-0.0002407288,4,1
-4.592625e-05,-0.0001815749,4,1
-1.513384e-05,-0.0001214487,4,1
-3.069211e-05,-6.423963e-05,4,1
-8.352541e-05,-1.562004e-05,4,1
-0.0001525652,1.906194e-05,4,1
-0.0002152845,3.93201e-05,4,1
-0.0002551526,4.871989e-05,4,1
-0.0002664971,5.682316e-05,4,1
-0.0002527216,6.849186e-05,4,1
-0.0002167431,8.275361e-05,4,1
-0.0001622891,9.68533e-05,4,1
-9.033215e-05,0.0001093323,4,1
1.072688e-06,0.0001227837,4,1
0.0001088461,0.0001406109,4,1
0.0002240746,0.0001628139,4,1
0.0003297412,0.0001885823,4,1
0.0004067223,0.0002171058,4,1
0.0004435111,0.0002483844,4,1
0.0004370285,0.0002790148,4,1
0.0003984569,0.0003081865,4,1
0.0003452995,0.0003339549,4,1
0.0002923041,0.0003610198,4,1
0.0002443328,0.0003875985,4,1
0.0002041406,0.0004002396,4,1
0.0001765894,0.0003879227,4,1
0.0001636242,0.0003487029,4,1
0.0001613553,0.0002906835,4,1
0.0001649207,0.0002242366,4,1
0.0001671896,0.0001628139,4,1
0.0001658931,0.0001143563,4,1
0.0001686482,8.405014e-05,4,1
0.0001811273,7.367795e-05,4,1
0.0001984683,7.967438e-05,4,1
0.0002156472,9.701536e-05,4,1
0.0002302331,0.0001188942,4,1
0.0002454672,0.0001461212,4,1
0.000264753,0.0001791825,4,1
0.0002795009,0.0002162954,4,1
0.0002735045,0.0002534084,4,1
0.0002268297,0.000282256,4,1
0.0001349386,0.0002955454,4,1
1.209313e-05,0.0002898731,4,1
-0.0001224211,0.0002688046,4,1
-0.0002481838,0.0002433604,4,1
-0.0003488263,0.0002203471,4,1
-0.0004065215,0.0001974959,4,1
-0.0004003631,0.0001688103,4,1
-0.000325651,0.0001355869,4,1
-0.0001955125,0.0001025256,4,1
-3.360929e-05,7.400208e-05,4,1
0.0001318594,4.645098e-05,4,1
0.0002715597,1.290346e-05,4,1
0.0003709058,-2.550602e-05,4,1
0.0004414042,-6.456377e-05,4,1
0.0005041235,-0.0001010285,4,1
0.0005747841,-0.000132145,4,1
0.0006478756,-0.0001512687,4,1
0.0007052467,-0.0001525652,4,1
0.0007318255,-0.0001374932,4,1
0.0007196706,-0.000112211,4,1
0.000666189,-8.919769e-05,4,1
0.000572191,-7.65566e-05,4,1
0.0004469145,-7.688073e-05,4,1
0.0003015418,-8.595638e-05,4,1
0.000143204,-9.908367e-05,4,1
-2.631635e-05,-0.0001110765,4,1
-0.0002010227,-0.0001191798,4,1
-0.0003681121,-0.0001211246,4,1
-0.0005126743,-0.0001165867,4,1
-0.000613641,-0.0001139937,4,1
-0.0006593434,-0.0001214487,4,1
-0.0006653398,-0.0001402483,4,1
-0.0006671225,-0.0001681235,4,1
-0.0006915944,-0.0001995642,4,1
-0.0007395657,-0.0002259808,4,1
-0.0007933713,-0.0002412149,4,1
-0.0008317808,-0.0002475355,4,1
-0.0008431255,-0.0002485079,4,1
-0.0008155743,-0.0002473734,4,1
-0.0007262764,-0.0002452666,4,1
-0.0005494631,-0.0002429977,4,1
-0.0002870794,-0.000238946,4,1
2.76514e-05,-0.0002342462,4,1
0.0003404375,-0.000231329,4,1
0.0006099523,-0.0002295462,4,1
0.0008175581,-0.0002282497,4,1
0.0009697376,-0.0002250084,4,1
0.001079132,-0.0002211189,4,1
0.001152872,-0.0002169052,4,1
0.001198412,-0.0002092881,4,1
0.001220777,-0.0001976194,4,1
0.001220453,-0.0001831956,4,1
0.001196629,-0.0001679614,4,1
0.001150116,-0.0001481895,4,1
0.001084318,-0.0001219349,4,1
0.0009982612,-8.887356e-05,4,1
0.0008802774,-5.402952e-05,4,1
0.0007248566,-2.226472e-05,4,1
0.0005386435,1.558884e-06,4,1
0.0003459477,1.889987e-05,4,1
0.0001684862,3.348575e-05,4,1
2.197911e-05,4.904402e-05,4,1
-8.514606e-05,6.525056e-05,4,1
-0.0001596961,7.90261e-05,4,1
-0.0002173914,9.21534e-05,4,1
-0.0002767073,0.0001101427,4,1
-0.0003562813,0.0001336421,4,1
-0.0004612996,0.0001534141,4,1
-0.0005791211,0.0001636242,4,1
-0.0006924047,0.0001647587,4,1
-0.0007770028,0.000160707,4,1
-0.0008118468,0.0001577899,4,1
-0.0007867267,0.000160707,4,1
-0.0007056941,0.0001715654,4,1
-0.0005971103,0.0001850168,4,1
-0.0005052193,0.0001960373,4,1
-0.0004625961,0.0002039785,4,1
-0.0004815578,0.0002064095,4,1
-0.0005536768,0.000202682,4,1
-0.0006564262,0.0001919856,4,1
-0.0007541516,0.0001785342,4,1
-0.0008149261,0.000168162,4,1
-0.0008157364,0.0001649207,4,1
-0.0007479931,0.000170593,4,1
-0.0006257959,0.000177886,4,1
-0.0004891749,0.0001809652,4,1
-0.000372974,0.0001806411,4,1
-0.0002934,0.0001820997,4,1
-0.0002452666,0.0001825859,4,1
-0.0002109087,0.0001791825,4,1
-0.0001737958,0.0001714034,4,1
-0.0001195039,0.0001602208,4,1
-5.030202e-05,0.0001461212,4,1
8.527692e-06,0.000128294,4,1
3.056858e-05,0.0001096565,4,1
1.014835e-05,9.426025e-05,4,1
-3.701266e-05,8.178122e-05,4,1
-8.968389e-05,6.703327e-05,4,1
-0.0001404103,4.709924e-05,4,1
-0.000194216,2.359977e-05,4,1
-0.0002608248,-5.479652e-07,4,1
-0.0003551469,-2.242678e-05,4,1
-0.0004836646,-4.138842e-05,4,1
-0.0006296854,-6.06742e-05,4,1
-0.0007588515,-8.158062e-05,4,1
-0.0008343739,-0.000104756,4,1
-0.000827243,-0.0001277692,4,1
-0.0007311383,-0.0001457585,4,1
-0.0005629146,-0.0001582375,4,1
-0.0003549848,-0.0001630995,4,1
-0.0001412206,-0.0001629374,4,1
5.536457e-05,-0.0001627754,4,1
0.0002221298,-0.0001676373,4,1
0.0003546993,-0.0001781716,4,1
0.000463121,-0.0001964849,4,1
0.0005550121,-0.0002147983,4,1
0.0006332897,-0.000226467,4,1
0.000693416,-0.000224036,4,1
0.0007289083,-0.0002049123,4,1
0.0007337703,-0.0001733096,4,1
0.0007125397,-0.000137007,4,1
0.0006749405,-0.0001016767,4,1
0.0006341,-7.444975e-05,4,1
0.0005979594,-5.775702e-05,4,1
0.0005653843,-4.997789e-05,4,1
0.0005357263,-4.981582e-05,4,1
0.0005016926,-5.435365e-05,4,1
0.00044578,-5.678463e-05,4,1
0.0003459477,-5.176061e-05,4,1
0.000187772,-3.733679e-05,4,1
-1.707863e-05,-1.805102e-05,4,1
-0.0002353806,4.47606e-06,4,1
-0.0004306693,2.554455e-05,4,1
-0.0005800935,4.288554e-05,4,1
-0.0006752257,5.682316e-05,4,1
-0.000700508,6.768154e-05,4,1
-0.00064103,7.6271e-05,4,1
-0.0004909576,8.518459e-05,4,1
-0.0002598524,9.555677e-05,4,1
2.829966e-05,0.0001051186,4,1
0.000339303,0.000113546,4,1
0.000634262,0.0001237561,4,1
0.0008747673,0.0001449867,4,1
0.001033753,0.0001827479,4,1
0.001111383,0.000237526,4,1
0.001124672,0.0002986247,4,1
0.001089504,0.0003509718,4,1
0.001020626,0.0003853296,4,1
0.0009347314,0.0003994293,4,1
0.0008512677,0.0003884089,4,1
0.0007812555,0.0003577785,4,1
0.0007178878,0.0003106175,4,1
0.0006493342,0.0002527602,4,1
0.0005603603,0.0001871237,4,1
0.0004388112,0.0001141943,4,1
0.0002819319,3.445814e-05,4,1
0.0001002567,-4.689865e-05,4,1
-8.871149e-05,-0.000112373,4,1
-0.0002553146,-0.0001442999,4,1
-0.0003619536,-0.0001363587,4,1
-0.0003711913,-9.2439e-05,4,1
-0.0002643903,-2.680255e-05,4,1
-5.840528e-05,3.93201e-05,4,1
0.0001931201,8.826383e-05,4,1
0.0004290873,0.0001146805,4,1
0.0006183797,0.0001227837,4,1
0.0007750969,0.0001151667,4,1
0.0009344073,8.696731e-05,4,1
0.001103928,2.716521e-05,4,1
0.001251732,-6.099833e-05,4,1
0.001325471,-0.0001575893,4,1
0.001286414,-0.0002350565,4,1
0.001124348,-0.0002754107,4,1
0.0008616399,-0.0002794623,4,1
0.0005418848,-0.0002622834,4,1
0.0002167816,-0.000236353,4,1
-7.056019e-05,-0.0002088019,4,1
-0.0002966413,-0.0001833576,4,1
-0.0004591928,-0.0001618029,4,1
-0.0005682627,-0.0001496481,4,1
-0.000643461,-0.0001434896,4,1
-0.0007047217,-0.0001358725,4,1
-0.0007701961,-0.0001256624,4,1
-0.0008460426,-0.0001154523,4,1
-0.0009272373,-0.0001039456,4,1
-0.001001139,-8.757704e-05,4,1
-0.001060293,-5.872941e-05,4,1
-0.001100161,-1.173047e-05,4,1
-0.001115233,5.066468e-05,4,1
-0.001099837,0.0001197045,4,1
-0.001057862,0.0001872858,4,1
-0.0009970875,0.0002480603,4,1
-0.0009228616,0.00029198,4,1
-0.000839398,0.0003111037,4,1
-0.0007544757,0.0003026763,4,1
-0.0006818705,0.0002678322,4,1
-0.0006327647,0.0002146748,4,1
-0.0006100755,0.0001553589,4,1
-0.0006095894,0.0001028497,4,1
-0.0006232028,7.448828e-05,4,1
-0.0006439472,8.631905e-05,4,1
-0.0006638812,0.0001508211,4,1
-0.0006763602,0.0002595669,4,1
-0.0006742534,0.0003794953,4,1
-0.0006546435,0.0004624728,4,1
-0.0006113721,0.0004674968,4,1
-0.0005444391,0.0003850055,4,1
-0.0004627582,0.0002396328,4,1
-0.0003749188,7.059871e-05,4,1
-0.0002841623,-8.384954e-05,4,1
-0.0001951884,-0.00019924,4,1
-0.0001169109,-0.0002775176,4,1
-5.548811e-05,-0.000333268,4,1
-1.189254e-05,-0.00038286,4,1
2.035846e-05,-0.0004352071,4,1
4.807163e-05,-0.000489499,4,1
6.768154e-05,-0.0005329325,4,1
6.687121e-05,-0.0005473563,4,1
3.769945e-05,-0.0005259637,4,1
-1.270286e-05,-0.0004752372,4,1
-6.051213e-05,-0.0004096008,4,1
-8.158062e-05,-0.000348016,4,1
-6.310517e-05,-0.0003053928,4,1
-1.156841e-05,-0.0002797865,4,1
5.56887e-05,-0.0002592042,4,1
0.0001211631,-0.0002254946,4,1
0.0001743205,-0.0001697442,4,1
0.0002098128,-9.973194e-05,4,1
0.0002352571,-3.247483e-05,4,1
0.0002624841,1.64689e-05,4,1
0.0002997591,3.964424e-05,4,1
0.0003508097,3.802358e-05,4,1
0.0004114222,2.246531e-05,4,1
0.0004687933,6.90704e-06,4,1
0.0005110924,5.610517e-06,4,1
0.0005378332,2.927205e-05,4,1
0.0005579292,7.546067e-05,4,1
0.0005780254,0.0001334801,4,1
0.0005948802,0.0001871237,4,1
0.0006002283,0.0002256952,4,1
0.0005827253,0.0002462775,4,1
0.0005332953,0.0002509774,4,1
0.000455666,0.0002444948,4,1
0.0003658818,0.0002328261,4,1
0.0002791768,0.0002232643,4,1
0.0001981441,0.0002174299,4,1
0.0001198666,0.0002137024,4,1
4.288554e-05,0.0002122438,4,1
-3.587821e-05,0.0002138645,4,1
-0.000117235,0.0002166196,4,1
-0.0002013469,0.000217754,4,1
-0.0002878898,0.0002179161,4,1
-0.0003718396,0.0002143507,4,1
-0.0004462276,0.0002010613,4,1
-0.0004950092,0.0001809652,4,1
-0.0005003574,0.0001573037,4,1
-0.0004564377,0.0001373696,4,1
-0.0003896668,0.0001255389,4,1
-0.000345585,0.0001197045,4,1
-0.0003528779,0.0001158149,4,1
-0.0003992286,0.0001156529,4,1
-0.000444769,0.0001206769,4,1
-0.0004510895,0.0001286181,4,1
-0.0003940425,0.0001334801,4,1
-0.0002739521,0.0001276457,4,1
-0.000107349,0.0001094944,4,1
7.708133e-05,8.356394e-05,4,1
0.0002532463,5.714729e-05,4,1
0.000406074,3.040651e-05,4,1
0.0005282713,2.693341e-06,4,1
0.0006255105,-2.453363e-05,4,1
0.0007143224,-4.868137e-05,4,1
0.0008063756,-6.472583e-05,4,1
0.0008945392,-6.926366e-05,4,1
0.0009579068,-6.521203e-05,4,1
0.0009827028,-6.0188e-05,4,1
0.0009613102,-6.197072e-05,4,1
0.0008955116,-6.893953e-05,4,1
0.0007903311,-7.752899e-05,4,1
0.0006561409,-8.206682e-05,4,1
0.0005097958,-8.044617e-05,4,1
0.0003752816,-7.55842e-05,4,1
0.0002798251,-7.039812e-05,4,1
0.0002396328,-6.083626e-05,4,1
0.0002532463,-4.365734e-05,4,1
0.0003031625,-1.62683e-05,4,1
0.0003597233,2.278944e-05,4,1
0.0003918123,6.719535e-05,4,1
0.0003901916,0.00010366,4,1
0.0003632887,0.0001263492,4,1
0.000329255,0.0001346145,4,1
0.0003023522,0.0001372076,4,1
0.0002911697,0.0001436902,4,1
0.0002923041,0.0001582761,4,1
0.0002978143,0.0001692965,4,1
0.0002952213,0.0001603829,4,1
0.0002756114,0.0001263492,4,1
0.0002347709,7.886404e-05,4,1
0.0001689724,3.18651e-05,4,1
8.194328e-05,-7.840905e-06,4,1
-8.651231e-06,-4.074016e-05,4,1
-7.995997e-05,-6.958779e-05,4,1
-0.0001248521,-9.600444e-05,4,1
-0.0001502963,-0.0001227452,4,1
-0.0001673132,-0.0001480274,4,1
-0.0001880575,-0.0001770371,4,1
-0.0002167431,-0.0002128535,4,1
-0.000253856,-0.0002577456,4,1
-0.0002992343,-0.0003147926,4,1
-0.0003551469,-0.0003796187,4,1
-0.0004120317,-0.0004379622,4,1
-0.000449955,-0.0004705373,4,1
-0.000449955,-0.0004578962,4,1
-0.0004040906,-0.0003940425,4,1
-0.0003241924,-0.0002966413,4,1
-0.0002323013,-0.0001940539,4,1
-0.0001485136,-0.0001076731,4,1
-8.676672e-05,-4.05781e-05,4,1
-4.835724e-05,1.355172e-05,4,1
-3.150244e-05,6.46023e-05,4,1
-4.47918e-05,0.0001192183,4,1
-0.0001089697,0.0001830721,4,1
-0.0002253326,0.0002529222,4,1
-0.0003687603,0.0003198552,4,1
-0.0004943609,0.0003722023,4,1
-0.0005659938,0.0004047775,4,1
-0.0005703696,0.0004148255,4,1
-0.0005201293,0.0004063981,4,1
-0.000444769,0.0003872744,4,1
-0.0003739464,0.0003652335,4,1
-0.0003165753,0.0003399513,4,1
-0.0002703867,0.0003099692,4,1
-0.0002276015,0.000274801,4,1
-0.0001846542,0.000244981,4,1
-0.0001574272,0.0002268297,4,1
-0.0001661787,0.000222616,4,1
-0.0002219292,0.0002286124,4,1
-0.0003149546,0.0002427121,4,1
-0.0004159214,0.0002605393,4,1
-0.0004891749,0.0002769079,4,1
-0.0005105674,0.0002814457,4,1
-0.0004807475,0.0002642668,4,1
-0.0004196489,0.0002253711,4,1
-0.0003564434,0.0001749688,4,1
-0.0003186821,0.0001195424,4,1
-0.0003156029,6.46023e-05,4,1
-0.0003416954,1.517237e-05,4,1
-0.0003810773,-2.599222e-05,4,1
-0.0004143007,-6.132246e-05,4,1
-0.0004173799,-9.162867e-05,4,1
-0.0003682741,-0.000122259,4,1
-0.0002517492,-0.0001514308,4,1
-7.542214e-05,-0.0001788198,4,1
0.0001287802,-0.0002062088,4,1
0.0003128864,-0.000231329,4,1
0.0004326527,-0.0002519113,4,1
0.0004542074,-0.0002658489,4,1
0.0003816021,-0.000273628,4,1
0.0002589186,-0.0002758969,4,1
0.0001441764,-0.0002747625,4,1
5.844381e-05,-0.0002718453,4,1
-1.480971e-05,-0.0002705488,4,1
-0.0001003802,-0.0002731418,4,1
-0.000194216,-0.0002791382,4,1
-0.0002640662,-0.0002840002,4,1
-0.0002768693,-0.0002836761,4,1
-0.0002248464,-0.0002796244,4,1
-0.0001135075,-0.0002733039,4,1
4.969229e-05,-0.0002669833,4,1
0.0002475741,-0.0002609869,4,1
0.000458259,-0.0002545043,4,1
0.0006473894,-0.0002457528,4,1
0.0007807693,-0.0002329496,4,1
0.0008454334,-0.000216581,4,1
0.000859533,-0.0001974573,4,1
0.0008674743,-0.0001783336,4,1
0.0009177146,-0.0001598582,4,1
0.001033916,-0.0001389517,4,1
0.001196467,-0.0001115627,4,1
0.001359181,-7.995997e-05,4,1
0.001471331,-5.176061e-05,4,1
0.00149483,-2.566809e-05,4,1
0.001422387,1.234753e-06,4,1
0.001269883,2.538249e-05,4,1
0.001062115,4.061663e-05,4,1
0.0008277682,4.547859e-05,4,1
0.0005922872,4.142696e-05,4,1
0.0003825745,3.380988e-05,4,1
0.0002213195,2.76514e-05,4,1
0.0001158149,2.684107e-05,4,1
5.56887e-05,3.316162e-05,4,1
1.954813e-05,4.499239e-05,4,1
-1.643037e-05,6.152305e-05,4,1
-7.526008e-05,8.080883e-05,4,1
-0.0001504584,0.0001009049,4,1
-0.0002078295,0.0001177597,4,1
-0.0002120432,0.0001274836,4,1
-0.0001634236,0.0001316974,4,1
-9.535618e-05,0.0001341283,4,1
-5.22468e-05,0.0001423936,4,1
-6.602235e-05,0.0001592484,4,1
-0.0001384655,0.0001817755,4,1
-0.0002441321,0.0002067336,4,1
-0.0003497987,0.0002265056,4,1
-0.0004331002,0.0002404432,4,1
-0.0004843129,0.0002493568,4,1
-0.0005073262,0.000257298,4,1
-0.000512026,0.0002624841,4,1
-0.0005189948,0.0002610255,4,1
-0.0005452494,0.0002537325,4,1
-0.0006013241,0.0002436845,4,1
-0.0006868945,0.0002326641,4,1
-0.0007904542,0.000220185,4,1
-0.0008865589,0.0002090025,4,1
-0.0009447403,0.0002020337,4,1
-0.0009440921,0.0001963614,4,1
-0.0008784557,0.0001914995,4,1
-0.0007622549,0.0001874478,4,1
-0.0006293613,0.00018291,4,1
-0.0005138087,0.0001751309,4,1
-0.0004378002,0.0001636242,4,1
-0.0004074939,0.0001470936,4,1
-0.0004107352,0.0001261871,4,1
-0.0004314796,0.0001015532,4,1
-0.0004549791,7.546067e-05,4,1
-0.000467134,5.277153e-05,4,1
-0.0004664857,3.737532e-05,4,1
-0.0004540067,3.299956e-05,4,1
-0.000430021,3.267542e-05,4,1
-0.0003946908,2.927205e-05,4,1
-0.0003538503,1.59827e-05,4,1
-0.0003206269,-1.108221e-05,4,1
-0.0003081479,-4.884343e-05,4,1
-0.0003190063,-9.2439e-05,4,1
-0.0003483401,-0.0001300382,4,1
-0.0003846427,-0.0001517549,4,1
-0.0004133283,-0.0001601823,4,1
-0.0004272659,-0.0001618029,4,1
-0.0004237005,-0.0001635857,4,1
-0.0004057112,-0.0001687718,4,1
-0.0003848048,-0.0001757406,4,1
-0.00036795,-0.0001789819,4,1
-0.0003611433,-0.000174282,4,1
-0.0003634122,-0.000156941,4,1
-0.0003640605,-0.0001274451,4,1
-0.0003454229,-8.790117e-05,4,1
-0.0002945344,-4.187462e-05,4,1
-0.0002100984,-6.176923e-08,4,1
-0.0001042698,2.570662e-05,4,1
1.857574e-05,2.975825e-05,4,1
0.0001663793,1.533444e-05,4,1
0.0003371962,-1.010982e-05,4,1
0.0005068787,-3.555408e-05,4,1
0.0006494962,-4.932962e-05,4,1
0.0007438183,-4.38194e-05,4,1
0.0007866036,-1.821308e-05,4,1
0.000785145,1.193106e-05,4,1
0.0007608352,3.478228e-05,4,1
0.0007353909,4.839576e-05,4,1
0.0007268014,5.876794e-05,4,1
0.0007410632,7.157111e-05,4,1
0.0007718556,8.550872e-05,4,1
0.0008008654,9.377406e-05,4,1
0.0008105893,9.16672e-05,4,1
0.0007997309,7.918817e-05,4,1
0.0007721797,6.379197e-05,4,1
0.0007295565,5.374392e-05,4,1
0.0006739681,4.871989e-05,4,1
0.0006024973,4.110282e-05,4,1
0.0004955341,2.068259e-05,4,1
0.0003375204,-1.67545e-05,4,1
0.0001365593,-6.569822e-05,4,1
-6.197072e-05,-0.0001162626,4,1
-0.0001961608,-0.0001564548,4,1
-0.0002219292,-0.0001763888,4,1
-0.0001386276,-0.0001724993,4,1
1.436204e-05,-0.0001491618,4,1
0.0001744826,-0.000107349,4,1
0.0002884145,-5.095028e-05,4,1
0.0003360618,1.825161e-05,4,1
0.0003260137,9.361199e-05,4,1
0.0002811216,0.0001670276,4,1
0.0002287745,0.0002273159,4,1
0.0001944166,0.0002607014,4,1
0.0001890685,0.0002581083,4,1
0.0002033302,0.0002193747,4,1
0.0002125679,0.0001603829,4,1
0.0002000889,0.0001051186,4,1
0.0001683241,6.751948e-05,4,1
0.0001289422,4.628891e-05,4,1
9.701536e-05,2.81376e-05,4,1
8.275361e-05,-2.978945e-06,4,1
9.361199e-05,-5.451572e-05,4,1
0.0001289422,-0.000119828,4,1
0.000175455,-0.0001791439,4,1
0.0002222919,-0.0002136638,4,1
0.0002666978,-0.0002162569,4,1
0.0003075383,-0.0001927574,4,1
0.000336548,-0.000156941,4,1
0.0003454615,-0.0001206384,4,1
0.0003274723,-9.114248e-05,4,1
0.0002842008,-6.407757e-05,4,1
0.0002227781,-2.404744e-05,4,1
0.0001624898,3.899597e-05,4,1
0.0001203528,0.0001177597,4,1
9.847395e-05,0.0001884202,4,1
8.437427e-05,0.0002245608,4,1
5.763349e-05,0.0002153231,4,1
9.500085e-06,0.0001671896,4,1
-5.338126e-05,9.831188e-05,4,1
-0.0001195039,2.781346e-05,4,1
-0.0001810887,-3.377136e-05,4,1
-0.0002533699,-8.854943e-05,4,1
-0.0003614674,-0.0001493239,4,1
-0.0005228845,-0.0002280877,4,1
-0.000722873,-0.0003225718,4,1
-0.0009168651,-0.0004147869,4,1
-0.001058024,-0.0004791268,4,1
-0.001120743,-0.0005021401,4,1
-0.001101295,-0.0004835025,4,1
-0.001014266,-0.0004355313,4,1
-0.0008782936,-0.0003674638,4,1
-0.0007053699,-0.0002901587,4,1
-0.000514295,-0.00021415,4,1
-0.0003326198,-0.0001457585,4,1
-0.0001836818,-8.514606e-05,4,1
-6.974985e-05,-3.879538e-05,4,1
2.39239e-05,-2.330684e-06,4,1
0.0001146805,3.332369e-05,4,1
0.0002117576,7.20573e-05,4,1
0.0003130485,0.0001124116,4,1
0.0004122325,0.0001470936,4,1
0.0004984512,0.0001702689,4,1
0.0005668429,0.0001783722,4,1
0.0006201624,0.000173024,4,1
0.0006647304,0.0001616794,4,1
0.0007067053,0.0001563313,4,1
0.00074317,0.0001660552,4,1
0.0007569456,0.0001955511,4,1
0.0007287462,0.0002410915,4,1
0.0006501445,0.0002914938,4,1
0.0005295678,0.0003371962,4,1
0.0003922984,0.000368961,4,1
0.0002639427,0.0003806297,4,1
0.0001621656,0.0003710679,4,1
8.972242e-05,0.0003440029,4,1
3.98063e-05,0.0003078624,4,1
-5.57199e-06,0.0002683184,4,1
-5.613637e-05,0.0002269918,4,1
-0.000104756,0.0001887444,4,1
-0.0001339277,0.0001594105,4,1
-0.0001360346,0.0001412592,4,1
-0.0001170729,0.0001352628,4,1
-9.438378e-05,0.0001470936,4,1
-8.595638e-05,0.0001757791,4,1
-9.811128e-05,0.0002179161,4,1
-0.0001350622,0.0002642668,4,1
-0.0001989159,0.000304459,4,1
-0.0002937241,0.0003277964,4,1
-0.000415111,0.0003320101,4,1
-0.0005481666,0.000324393,4,1
-0.00067085,0.0003122381,4,1
-0.0007693857,0.0003008936,4,1
-0.0008277292,0.0002890628,4,1
-0.0008343739,0.0002736666,4,1
-0.0007901301,0.0002568118,4,1
-0.0007102319,0.0002384984,4,1
-0.0006253097,0.0002188885,4,1
-0.0005672903,0.0002018716,4,1
-0.0005494631,0.0001863134,4,1
-0.0005509217,0.0001741585,4,1
-0.0005368221,0.0001649207,4,1
-0.000482044,0.0001543865,4,1
-0.0003849669,0.0001398006,4,1
-0.0002608248,0.0001190562,4,1
-0.0001326312,9.053275e-05,4,1
-1.545797e-05,5.082674e-05,4,1
8.340187e-05,-1.520357e-06,4,1
0.0001645966,-5.937768e-05,4,1
0.0002360674,-0.0001149661,4,1
0.0003030004,-0.0001624512,4,1
0.0003579406,-0.0001989159,4,1
0.0003897054,-0.0002246843,4,1
0.0003905157,-0.0002404046,4,1
0.0003623164,-0.0002460769,4,1
0.0003159656,-0.0002425115,4,1
0.0002705873,-0.0002329496,4,1
0.000237526,-0.0002206326,4,1
0.0002169437,-0.0002152845,4,1
0.0002041406,-0.0002259808,4,1
0.0001986303,-0.0002502906,4,1
0.0001971717,-0.0002809209,4,1
0.0001939304,-0.0003126857,4,1
0.0001762653,-0.0003491504,4,1
0.0001363972,-0.000387884,4,1
7.092284e-05,-0.0004164075,4,1
-1.594417e-05,-0.0004180282,4,1
-0.0001169109,-0.000385291,4,1
-0.0002131776,-0.000325813,4,1
-0.0002791382,-0.0002543422,4,1
-0.0002904828,-0.0001836818,4,1
-0.0002410529,-0.0001266348,4,1
-0.0001438137,-9.649064e-05,4,1
-2.696461e-05,-0.0001045939,4,1
8.42122e-05,-0.0001517549,4,1
0.0001714034,-0.0002229016,4,1
0.0002239125,-0.0002938862,4,1
0.0002470879,-0.0003465574,4,1
0.0002517878,-0.000370381,4,1
0.0002472499,-0.0003587123,4,1
0.0002420638,-0.0003167374,4,1
0.0002409294,-0.0002559629,4,1
0.0002397949,-0.0001904885,4,1
0.0002318537,-0.0001323071,4,1
0.0002148369,-8.514606e-05,4,1
0.0001889064,-4.689865e-05,4,1
0.0001521176,-1.62683e-05,4,1
0.0001103047,7.485573e-07,4,1
7.465034e-05,-5.409925e-06,4,1
5.633696e-05,-3.474375e-05,4,1
6.119892e-05,-7.688073e-05,4,1
8.583286e-05,-0.0001078352,4,1
0.000113384,-0.0001089697,4,1
0.0001269974,-6.861539e-05,4,1
0.0001119254,8.689758e-06,4,1
6.525056e-05,0.0001067393,4,1
-1.027188e-05,0.0002081922,4,1
-0.0001015147,0.0002981384,4,1
-0.0001950263,0.0003678266,4,1
-0.0002804347,0.0004162841,4,1
-0.0003483401,0.0004467524,4,1
-0.0003886944,0.0004671726,4,1
-0.0003867496,0.0004827309,4,1
-0.0003340784,0.0004961824,4,1
-0.0002384598,0.0005070407,4,1
-0.0001162626,0.0005141716,4,1
1.97102e-05,0.0005287575,4,1
0.0001600588,0.0005566327,4,1
0.000292142,0.0005877494,4,1
0.0003987811,0.0005982835,4,1
0.0004600418,0.0005683015,4,1
0.0004726828,0.0004974789,4,1
0.0004550177,0.0004057499,4,1
0.0004354078,0.000319369,4,1
0.0004368664,0.0002540567,4,1
0.0004650658,0.0002111094,4,1
0.000512713,0.0001811273,4,1
0.0005717048,0.000153252,4,1
0.0006460929,0.0001216493,4,1
0.0007368495,8.534666e-05,4,1
0.0008253373,4.628891e-05,4,1
0.0008715259,7.393236e-06,4,1
0.0008386266,-2.907146e-05,4,1
0.0007057329,-5.953974e-05,4,1
0.0004767345,-8.303922e-05,4,1
0.0001751309,-9.730096e-05,4,1
-0.0001515928,-0.0001041077,4,1
-0.0004442827,-0.000107349,4,1
-0.0006548056,-0.0001133454,4,1
-0.0007637134,-0.0001256624,4,1
-0.0007779752,-0.0001434896,4,1
-0.0007152559,-0.0001624512,4,1
-0.0005974344,-0.000176875,4,1
-0.0004437966,-0.0001861127,4,1
-0.0002781658,-0.000194216,4,1
-0.0001209625,-0.0002062088,4,1
1.452411e-05,-0.0002222533,4,1
0.000125863,-0.0002410529,4,1
0.0002185644,-0.0002585559,4,1
0.0003051073,-0.0002728177,4,1
0.0003848434,-0.0002781658,4,1
0.0004501558,-0.0002763831,4,1
0.000492779,-0.000268766,4,1
0.0005078511,-0.0002566112,4,1
0.0004864584,-0.0002410529,4,1
0.0004226047,-0.0002256567,4,1
0.0003172622,-0.0002173914,4,1
0.0001775618,-0.0002178775,4,1
2.295151e-05,-0.0002227395,4,1
-0.0001230693,-0.0002254946,4,1
-0.0002447804,-0.0002243602,4,1
-0.000340561,-0.0002204706,4,1
-0.0004130042,-0.0002175534,4,1
-0.0004561135,-0.0002147983,4,1
-0.0004502792,-0.0002109087,4,1
-0.0003830221,-0.0002034537,4,1
-0.0002671454,-0.000191623,4,1
-0.000134738,-0.0001784957,4,1
-2.145439e-05,-0.0001656925,4,1
5.163707e-05,-0.0001532135,4,1
8.194328e-05,-0.0001417068,4,1
7.6271e-05,-0.0001353863,4,1
4.207521e-05,-0.0001353863,4,1
-1.562004e-05,-0.0001334415,4,1
-8.935975e-05,-0.0001235555,4,1
-0.0001666649,-0.0001052422,4,1
-0.0002352185,-8.255302e-05,4,1
-0.0002896725,-6.229485e-05,4,1
-0.0003277578,-4.819517e-05,4,1
-0.0003528779,-3.733679e-05,4,1
-0.0003685983,-2.550602e-05,4,1
-0.0003711913,-8.651231e-06,4,1
-0.000353202,1.419998e-05,4,1
-0.000310741,4.304761e-05,4,1
-0.0002446183,7.805372e-05,4,1
-0.0001608306,0.0001180839,4,1
-7.526008e-05,0.0001623277,4,1
-6.544382e-06,0.0002059233,4,1
3.413401e-05,0.0002446569,4,1
4.77475e-05,0.0002707494,4,1
4.709924e-05,0.0002799871,4,1
4.677511e-05,0.0002764217,4,1
5.212327e-05,0.0002686426,4,1
5.56887e-05,0.0002632944,4,1
4.612685e-05,0.0002619979,4,1
2.133085e-05,0.0002610255,4,1
-6.220252e-06,0.0002581083,4,1
-1.62683e-05,0.0002561635,4,1
-4.113403e-06,0.0002519498,4,1
1.97102e-05,0.00024255,4,1
3.510641e-05,0.0002282883,4,1
2.489629e-05,0.0002156472,4,1
-1.643037e-05,0.0002093267,4,1
-7.914964e-05,0.0002091646,4,1
-0.0001428413,0.0002179161,4,1
-0.0001848162,0.0002357433,4,1
-0.0001912988,0.0002603772,4,1
-0.000164396,0.000284525,4,1
-0.000112373,0.0003004074,4,1
-3.701266e-05,0.000304459,4,1
5.487838e-05,0.000299435,4,1
0.0001425557,0.000292142,4,1
0.0002081922,0.0002936006,4,1
0.0002483844,0.00030689,4,1
0.0002741528,0.0003333067,4,1
0.0002923041,0.0003707437,4,1
0.0002974902,0.0004138531,4,1
0.0002832284,0.0004503179,4,1
0.0002430362,0.0004657141,4,1
0.0001701068,0.0004485351,4,1
6.444023e-05,0.0003908399,4,1
-5.921561e-05,0.0002947351,4,1
-0.0001771992,0.0001683241,4,1
-0.0002668213,2.295151e-05,4,1
-0.0003172236,-0.0001310105,4,1
-0.000333106,-0.0002890242,4,1
-0.0003241924,-0.0004436345,4,1
-0.0002883759,-0.0005812279,4,1
-0.0002232257,-0.0006894876,4,1
-0.0001366828,-0.0007679272,4,1
-4.641245e-05,-0.0008142778,4,1
2.457216e-05,-0.0008236776,4,1
5.666109e-05,-0.0007951541,4,1
3.769945e-05,-0.0007364865,4,1
-3.506788e-05,-0.0006578848,4,1
-0.0001486757,-0.000574097,4,1
-0.0002755728,-0.0004985746,4,1
-0.0003859393,-0.0004382863,4,1
-0.0004553032,-0.0003935563,4,1
-0.0004664857,-0.0003588744,4,1
-0.0004154351,-0.0003360231,4,1
-0.0003173856,-0.000330675,4,1
-0.0002070192,-0.0003473677,4,1
-0.0001206384,-0.0003763774,4,1
-8.498399e-05,-0.000397608,4,1
-0.0001037836,-0.0003922598,4,1
-0.0001648822,-0.0003535262,4,1
-0.0002489941,-0.0002898345,4,1
-0.0003402368,-0.0002151224,4,1
-0.0004269418,-0.0001421931,4,1
-0.0005013297,-7.947377e-05,4,1
-0.00055157,-3.020592e-05,4,1
-0.0005648594,8.527692e-06,4,1
-0.0005347152,4.207521e-05,4,1
-0.000467134,7.918817e-05,4,1
-0.0003745947,0.0001250527,4,1
-0.0002794623,0.0001822617,4,1
-0.0002021572,0.0002451431,4,1
-0.0001460826,0.0003025142,4,1
-0.0001021629,0.0003452995,4,1
-5.905355e-05,0.0003678266,4,1
-6.220252e-06,0.0003730126,4,1
6.184718e-05,0.0003653956,4,1
0.0001409351,0.0003482167,4,1
0.0002174299,0.0003277964,4,1
0.0002819319,0.0003112658,4,1
0.0003375204,0.0003033245,4,1
0.0003931088,0.0003041349,4,1
0.0004564763,0.0003099692,4,1
0.0005313505,0.0003159656,4,1
0.0006149763,0.0003203414,4,1
0.0006955228,0.0003260137,4,1
0.0007574318,0.000331686,4,1
0.0007900069,0.0003378445,4,1
0.0007992447,0.0003433547,4,1
0.0008060515,0.000349027,4,1
0.0008326302,0.0003542131,4,1
0.0008857877,0.0003561579,4,1
0.0009549896,0.0003524304,4,1
0.001014143,0.000339141,4,1
0.001039588,0.0003115899,4,1
0.00102565,0.0002705873,4,1
0.0009820546,0.0002227781,4,1
0.0009227386,0.0001791825,4,1
0.0008559676,0.0001459591,4,1
0.0007809313,0.0001237561,4,1
0.0006887161,0.0001094944,4,1
0.00056976,9.977047e-05,4,1
0.0004175806,9.766362e-05,4,1
0.0002433604,0.0001044704,4,1
7.027458e-05,0.0001175977,4,1
-7.65566e-05,0.0001295905,4,1
-0.000176875,0.0001349386,4,1
-0.0002316531,0.0001339663,4,1
-0.0002567732,0.000128456,4,1
-0.0002718453,0.0001179218,4,1
-0.0002875656,0.0001057669,4,1
-0.0003065273,9.750156e-05,4,1
-0.000325813,9.863601e-05,4,1
-0.0003494746,0.0001088461,4,1
-0.0003849669,0.0001214872,4,1
-0.0004360174,0.0001253768,4,1
-0.0004987367,0.000106091,4,1
-0.0005708557,5.714729e-05,4,1
-0.0006478368,-1.464765e-05,4,1
-0.0007230351,-8.887356e-05,4,1
-0.0007852681,-0.0001407345,4,1
-0.0008205983,-0.0001582375,4,1
-0.0008210845,-0.0001462447,4,1
-0.0007859163,-0.0001263107,4,1
-0.0007123387,-0.0001188556,4,1
-0.0006044033,-0.0001308485,4,1
-0.0004766958,-0.0001543479,4,1
-0.0003519055,-0.0001752544,4,1
-0.0002468872,-0.0001807646,4,1
-0.0001592099,-0.0001684476,4,1
-7.931171e-05,-0.0001430034,4,1
1.558884e-06,-0.000114804,4,1
7.6271e-05,-9.033215e-05,4,1
0.0001326697,-7.315322e-05,4,1
0.0001649207,-5.856735e-05,4,1
0.0001869616,-3.847125e-05,4,1
0.0002166196,-3.789272e-06,4,1
0.0002642668,4.628891e-05,4,1
0.0003297412,0.0001018773,4,1
0.0004016982,0.0001487142,4,1
0.0004621486,0.000173024,4,1
0.000490348,0.0001696206,4,1
0.0004822447,0.0001409351,4,1
0.000443187,9.750156e-05,4,1
0.0003811159,5.017848e-05,4,1
0.0002989488,3.665733e-06,4,1
0.0002039785,-4.203669e-05,4,1
0.0001062531,-8.433573e-05,4,1
1.436204e-05,-0.0001217728,4,1
-6.748094e-05,-0.0001579134,4,1
-0.0001374932,-0.0001995642,4,1
-0.0001835197,-0.0002449425,4,1
-0.0001859507,-0.0002822175,4,1
-0.0001214487,-0.0002969654,4,1
1.558884e-06,-0.0002849726,4,1
0.0001291043,-0.0002548284,4,1
0.0001890685,-0.0002206326,4,1
0.0001440143,-0.0001945401,4,1
1.160693e-05,-0.0001773612,4,1
-0.0001498101,-0.0001635857,4,1
-0.0002733039,-0.0001459206,4,1
-0.0003177098,-0.000122097,4,1
-0.0002846485,-9.114248e-05,4,1
-0.0002011848,-5.548811e-05,4,1
-9.875954e-05,-1.902341e-05,4,1
-2.006553e-06,1.825161e-05,4,1
8.259155e-05,5.52025e-05,4,1
0.0001598967,8.696731e-05,4,1
0.0002337985,0.0001043083,4,1
0.0003081865,0.0001031738,4,1
0.0003856538,8.372601e-05,4,1
0.0004637693,5.001642e-05,4,1
0.0005311884,1.095867e-05,4,1
0.0005686256,-2.015787e-05,4,1
0.0005644119,-3.766092e-05,4,1
0.0005196818,-4.009191e-05,4,1
0.0004529109,-2.89094e-05,4,1
0.0003824125,-8.651231e-06,4,1
0.0003245551,1.630683e-05,4,1
0.0002859836,4.35338e-05,4,1
0.0002603772,7.416415e-05,4,1
0.000225209,0.0001044704,4,1
0.0001574657,0.0001287802,4,1
4.191315e-05,0.0001386662,4,1
-0.0001208004,0.0001297526,4,1
-0.0003164132,0.0001031738,4,1
-0.0005176983,6.687121e-05,4,1
-0.0006899738,3.299956e-05,4,1
-0.0008061745,8.851824e-06,4,1
-0.0008628974,-8.327101e-06,4,1
-0.0008750523,-1.918548e-05,4,1
-0.0008643559,-2.599222e-05,4,1
-0.0008478253,-2.728874e-05,4,1
-0.0008334015,-1.934754e-05,4,1
-0.0008158985,-2.330684e-06,4,1
-0.0007935334,2.052053e-05,4,1
-0.0007544757,4.207521e-05,4,1
-0.0006823567,5.649903e-05,4,1
-0.0005684248,6.281957e-05,4,1
-0.0004217557,6.168512e-05,4,1
-0.0002640662,6.265751e-05,4,1
-0.000117235,6.962632e-05,4,1
6.90704e-06,8.016057e-05,4,1
0.0001086841,8.550872e-05,4,1
0.0001957132,8.161915e-05,4,1
0.0002765838,7.270556e-05,4,1
0.0003550234,6.217132e-05,4,1
0.0004198496,5.260946e-05,4,1
0.0004511282,4.677511e-05,4,1
0.0004404318,4.499239e-05,4,1
0.0003991052,4.790957e-05,4,1
0.0003475684,4.953022e-05,4,1
0.000299597,4.077869e-05,4,1
0.0002629703,1.12828e-05,4,1
0.000239957,-3.571614e-05,4,1
0.0002431983,-8.660465e-05,4,1
0.0002799871,-0.0001255003,4,1
0.000339303,-0.000144624,4,1
0.0003924605,-0.0001478653,4,1
0.0004098015,-0.000144624,4,1
0.000376416,-0.0001376552,4,1
0.0003028383,-0.0001250141,4,1
0.0002158093,-0.0001044318,4,1
0.0001399627,-8.060823e-05,4,1
8.777764e-05,-5.905355e-05,4,1
5.811968e-05,-4.641245e-05,4,1
4.385793e-05,-4.625038e-05,4,1
3.818565e-05,-5.548811e-05,4,1
4.191315e-05,-6.699475e-05,4,1
5.487838e-05,-7.542214e-05,4,1
7.108491e-05,-8.060823e-05,4,1
8.080883e-05,-8.44978e-05,4,1
7.351589e-05,-8.44978e-05,4,1
4.499239e-05,-7.688073e-05,4,1
2.207145e-06,-5.889148e-05,4,1
-4.009191e-05,-3.26369e-05,4,1
-6.845333e-05,-4.437533e-06,4,1
-7.801519e-05,1.873781e-05,4,1
-7.574627e-05,3.235129e-05,4,1
-7.493595e-05,3.672706e-05,4,1
-8.692878e-05,3.996837e-05,4,1
-0.0001242038,4.904402e-05,4,1
-0.0001963229,6.995045e-05,4,1
-0.000305879,9.652917e-05,4,1
-0.0004418518,0.0001205148,4,1
-0.0005841451,0.0001365593,4,1
-0.0007039114,0.0001467694,4,1
-0.0007739235,0.0001563313,4,1
-0.0007731132,0.0001688103,4,1
-0.0006985632,0.0001851789,4,1
-0.0005640491,0.0001989545,4,1
-0.0003912874,0.0002025199,4,1
-0.000199078,0.0001963614,4,1
1.234753e-06,0.0001795066,4,1
0.0001979821,0.0001574657,4,1
0.0003704196,0.0001394765,4,1
0.0005055821,0.0001316974,4,1
0.000606873,0.0001331559,4,1
0.0006945504,0.0001389903,4,1
0.0007844968,0.0001436902,4,1
0.0008744431,0.000140773,4,1
0.0009310039,0.0001266733,4,1
0.0009147974,0.0001013911,4,1
0.0008052412,6.670914e-05,4,1
0.0006028214,2.846173e-05,4,1
0.0003311998,-8.002969e-06,4,1
4.304761e-05,-3.879538e-05,4,1
-0.0002011848,-5.970181e-05,4,1
-0.0003642225,-7.493595e-05,4,1
-0.0004462276,-8.984595e-05,4,1
-0.0004732924,-0.0001044318,4,1
-0.0004747511,-0.0001138316,4,1
-0.0004538446,-0.0001089697,4,1
-0.0004037664,-9.017008e-05,4,1
-0.0003219235,-6.423963e-05,4,1
-0.0002245222,-4.025397e-05,4,1
-0.0001269589,-2.761287e-05,4,1
-4.074016e-05,-2.534396e-05,4,1
2.992031e-05,-2.485776e-05,4,1
8.437427e-05,-2.339918e-05,4,1
0.0001253768,-1.886135e-05,4,1
0.0001553589,-1.010982e-05,4,1
0.0001741585,7.485573e-07,4,1
0.0001775618,1.306552e-05,4,1
0.000163138,2.311357e-05,4,1
0.0001365593,2.716521e-05,4,1
0.0001009049,2.068259e-05,4,1
6.136099e-05,5.286387e-06,4,1
2.311357e-05,-1.010982e-05,4,1
-1.335113e-05,-1.270286e-05,4,1
-5.354332e-05,8.527692e-06,4,1
-0.0001020008,5.925414e-05,4,1
-0.0001592099,0.0001295905,4,1
-0.000221605,0.0001892305,4,1
-0.000283514,0.0002159713,4,1
-0.0003335922,0.0002085163,4,1
-0.0003515814,0.0001811273,4,1
-0.0003180339,0.0001519555,4,1
-0.0002235498,0.0001321835,4,1
-7.769106e-05,0.0001221355,4,1
9.63671e-05,0.0001128978,4,1
0.0002723701,9.814982e-05,4,1
0.0004339493,7.335383e-05,4,1
0.0005747841,3.899597e-05,4,1
0.0007060571,1.883015e-06,4,1
0.000839437,-3.749886e-05,4,1
0.000975734,-8.287715e-05,4,1
0.001098256,-0.0001316588,4,1
0.001185285,-0.0001797922,4,1
0.001214457,-0.0002225774,4,1
0.001171023,-0.0002558008,4,1
0.001062439,-0.0002757348,4,1
0.0009115561,-0.0002878898,4,1
0.0007472217,-0.0003047445,4,1
0.0005926113,-0.0003387782,4,1
0.0004658761,-0.000390315,4,1
0.0003637749,-0.0004471999,4,1
0.000267184,-0.0004937127,4,1
0.0001508211,-0.0005178604,4,1
1.396819e-06,-0.0005214258,4,1
-0.0001703924,-0.0005159156,4,1
-0.0003340784,-0.0005112157,4,1
-0.0004583824,-0.0005081365,4,1
-0.0005293671,-0.0005040849,4,1
-0.000546546,-0.0004899852,4,1
-0.0005134846,-0.0004601652,4,1
-0.0004463896,-0.0004079801,4,1
-0.0003676259,-0.0003262992,4,1
-0.0002974516,-0.0002167431,4,1
-0.0002509389,-9.486997e-05,4,1
-0.000238784,2.052053e-05,4,1
-0.0002583939,0.0001151667,4,1
-0.0003063652,0.0001848548,4,1
-0.0003676259,0.0002320158,4,1
-0.0004345588,0.0002657254,4,1
-0.0005032745,0.0002955454,4,1
-0.0005661559,0.0003269861,4,1
-0.0006113721,0.0003589129,4,1
-0.0006296854,0.0003913261,4,1
-0.0006170443,0.0004247115,4,1
-0.0005836589,0.0004546936,4,1
-0.0005497872,0.0004741415,4,1
-0.0005283947,0.0004820827,4,1
-0.0005162397,0.0004809482,4,1
-0.0005035987,0.000478031,4,1
-0.0004835025,0.0004744656,4,1
-0.0004608134,0.000458097,4,1
-0.0004470379,0.0004239012,4,1
-0.0004476861,0.0003794953,4,1
-0.0004634065,0.0003381686,4,1
-0.000482206,0.0003072141,4,1
-0.0004929024,0.0002884145,4,1
-0.0004922541,0.0002807975,4,1
-0.0004823681,0.0002793389,4,1
-0.0004702132,0.0002730183,4,1
-0.0004595169,0.0002563256,4,1
-0.0004462276,0.0002360674,4,1
-0.0004248349,0.0002256952,4,1
-0.0003961493,0.0002347709,4,1
-0.0003645466,0.0002577842,4,1
-0.0003300267,0.0002824181,4,1
-0.0002828657,0.00029198,4,1
-0.00021415,0.0002782044,4,1
-0.0001259865,0.0002427121,4,1
-2.745081e-05,0.0001958752,4,1
6.930219e-05,0.0001576278,4,1
0.0001498487,0.0001440143,4,1
0.0001979821,0.0001509831,4,1
0.0002096508,0.0001663793,4,1
0.000195389,0.0001783722,4,1
0.0001667035,0.0001796687,4,1
0.0001292664,0.0001652449,4,1
8.486046e-05,0.0001318594,4,1
4.094075e-05,7.724339e-05,4,1
7.393236e-06,8.527692e-06,4,1
-1.043395e-05,-6.0188e-05,4,1
-2.015787e-05,-0.000117235,4,1
-2.550602e-05,-0.0001614788,4,1
-1.513384e-05,-0.0001976194,4,1
2.651694e-05,-0.0002327876,4,1
9.766362e-05,-0.000268604,4,1
0.0001773998,-0.0002982619,4,1
0.0002422259,-0.0003123616,4,1
0.0002858215,-0.0003052308,4,1
0.0003214759,-0.0002752487,4,1
0.0003722023,-0.0002248464,4,1
