EMG1,EMG2,class,user
0.0001393144,-0.0004630823,4,1
0.0001474177,-0.0004105732,4,1
0.0001539003,-0.0004034423,4,1
0.000148228,-0.0004510895,4,1
0.0001276457,-0.0005295291,4,1
9.960841e-05,-0.0005948414,4,1
7.57848e-05,-0.0006131548,4,1
6.46023e-05,-0.0005736109,4,1
6.719535e-05,-0.0004877163,4,1
7.951231e-05,-0.0003762153,4,1
9.442231e-05,-0.0002577456,4,1
0.0001064152,-0.0001468929,4,1
0.0001137081,-5.59743e-05,4,1
0.0001205148,9.175954e-06,4,1
0.0001328318,5.098881e-05,4,1
0.0001500107,8.405014e-05,4,1
0.0001675138,0.0001242423,4,1
0.0001707551,0.0001720516,4,1
0.0001466074,0.0002167816,4,1
9.182927e-05,0.000252436,4,1
1.889987e-05,0.000284687,4,1
-5.386745e-05,0.0003214759,4,1
-0.000104756,0.0003675024,4,1
-0.0001138316,0.0004182289,4,1
-7.947377e-05,0.0004692795,4,1
-2.323711e-05,0.0005102821,4,1
2.603075e-05,0.0005303781,4,1
4.72613e-05,0.0005237334,4,1
3.867184e-05,0.0004922928,4,1
1.501031e-05,0.000443349,4,1
-3.465141e-06,0.0003848434,4,1
-7.678839e-06,0.0003255275,4,1
-5.247859e-06,0.0002709115,4,1
-1.448558e-05,0.0002269918,4,1
-4.80331e-05,0.0001939304,4,1
-0.0001070249,0.0001715654,4,1
-0.0001788198,0.0001602208,4,1
-0.0002489941,0.000153252,4,1
-0.0003099306,0.0001409351,4,1
-0.0003702189,0.0001214872,4,1
-0.0004405553,9.847395e-05,4,1
-0.0005157535,7.384002e-05,4,1
-0.0005818762,4.709924e-05,4,1
-0.0006257959,2.230325e-05,4,1
-0.0006424887,5.772582e-06,4,1
-0.0006215822,-2.168618e-06,4,1
-0.0005554595,-7.516774e-06,4,1
-0.0004403932,-1.513384e-05,4,1
-0.000288538,-2.210265e-05,4,1
-0.0001204763,-1.934754e-05,4,1
2.992031e-05,-3.465141e-06,4,1
0.0001331559,1.727922e-05,4,1
0.0001845306,2.878586e-05,4,1
0.0001979821,2.133085e-05,4,1
0.0001947408,-7.840905e-06,4,1
0.0001965235,-5.046408e-05,4,1
0.0002211574,-9.276313e-05,4,1
0.0002712356,-0.0001203142,4,1
0.0003323342,-0.000127121,4,1
0.0003814401,-0.0001180453,4,1
0.0004018603,-0.0001015147,4,1
0.0003914881,-8.579432e-05,4,1
0.0003559958,-7.995997e-05,4,1
0.0002944109,-9.098041e-05,4,1
0.0002010613,-0.000117235,4,1
7.789165e-05,-0.0001499722,4,1
-5.64605e-05,-0.0001797922,4,1
-0.000174444,-0.0001997262,4,1
-0.0002554767,-0.000209126,4,1
-0.0002914552,-0.0002100984,4,1
-0.0002807589,-0.0002073433,4,1
-0.000226467,-0.0002031296,4,1
-0.0001303623,-0.0001927574,4,1
1.720949e-06,-0.0001687718,4,1
0.0001543865,-0.0001245279,4,1
0.0003088348,-5.889148e-05,4,1
0.0004511282,1.857574e-05,4,1
0.0005751082,9.442231e-05,4,1
0.0006699165,0.0001529279,4,1
0.0007261531,0.0001845306,4,1
0.0007428459,0.0001889064,4,1
0.0007344186,0.0001741585,4,1
0.0007191843,0.0001483901,4,1
0.0007018434,0.0001137081,4,1
0.0006770474,7.140904e-05,4,1
0.0006394482,2.505836e-05,4,1
0.0005906665,-1.869928e-05,4,1
0.0005371849,-5.305713e-05,4,1
0.0004825689,-7.688073e-05,4,1
0.0004310321,-9.389759e-05,4,1
0.0003819262,-0.00010978,4,1
0.0003295791,-0.0001264727,4,1
0.0002632944,-0.000137007,4,1
0.000165569,-0.0001292278,4,1
3.105477e-05,-9.730096e-05,4,1
-0.0001344139,-5.013995e-05,4,1
-0.0003094444,-2.978945e-06,4,1
-0.0004585445,3.55926e-05,4,1
-0.0005522182,6.78436e-05,4,1
-0.0005796073,9.750156e-05,4,1
-0.0005535148,0.0001279698,4,1
-0.0004943609,0.0001598967,4,1
-0.000424997,0.0001942546,4,1
-0.0003645466,0.0002281262,4,1
-0.0003241924,0.0002555152,4,1
-0.0003052308,0.0002728562,4,1
-0.0003026377,0.000284687,4,1
-0.0003063652,0.0002965178,4,1
-0.0003074997,0.0003081865,4,1
-0.0002927517,0.0003164518,4,1
-0.0002579077,0.0003206656,4,1
-0.0002088019,0.000321638,4,1
-0.0001608306,0.0003171001,4,1
-0.0001282554,0.000304297,4,1
-0.0001183694,0.0002854973,4,1
-0.0001350622,0.0002628082,4,1
-0.0001752544,0.0002386605,4,1
-0.0002334358,0.0002119197,4,1
-0.0002964792,0.0001793446,4,1
-0.0003520676,0.0001425557,4,1
-0.0003956632,0.0001062531,4,1
-0.0004237005,7.270556e-05,4,1
-0.000435045,4.45062e-05,4,1
-0.0004318037,2.505836e-05,4,1
-0.0004228902,1.744129e-05,4,1
-0.0004170558,2.39239e-05,4,1
-0.0004186764,3.899597e-05,4,1
-0.000420135,5.098881e-05,4,1
-0.0004029561,4.677511e-05,4,1
-0.0003522297,2.408596e-05,4,1
-0.0002609869,-1.3027e-05,4,1
-0.0001258245,-5.613637e-05,4,1
4.320967e-05,-9.794922e-05,4,1
0.000220023,-0.0001358725,4,1
0.0003603715,-0.0001697442,4,1
0.0004242253,-0.0001977815,4,1
0.0004002396,-0.0002183637,4,1
0.0003104554,-0.0002272773,4,1
0.0001939304,-0.0002232257,4,1
8.712937e-05,-0.0002071812,4,1
1.144487e-05,-0.0001849783,4,1
-2.680255e-05,-0.0001630995,4,1
-3.830919e-05,-0.0001449482,4,1
-4.446767e-05,-0.0001342519,4,1
-6.099833e-05,-0.0001326312,4,1
-8.952183e-05,-0.0001399241,4,1
-0.0001204763,-0.0001538618,4,1
-0.000134738,-0.0001673132,4,1
-0.0001125351,-0.0001690959,4,1
-4.333321e-05,-0.0001507825,4,1
6.589881e-05,-0.0001186936,4,1
0.0001947408,-8.644259e-05,4,1
0.0003156415,-7.18567e-05,4,1
0.0004018603,-8.239095e-05,4,1
0.0004422146,-0.0001144799,4,1
0.0004422146,-0.0001598582,4,1
0.0004128807,-0.00021415,4,1
0.0003699334,-0.0002716832,4,1
0.0003205035,-0.0003209511,4,1
0.0002569738,-0.0003483401,4,1
0.000158114,-0.0003512573,4,1
-8.651231e-06,-0.0003337542,4,1
-0.0002455907,-0.0003016653,4,1
-0.0005065158,-0.0002622834,4,1
-0.0007282211,-0.0002203085,4,1
-0.0008556045,-0.0001749302,4,1
-0.0008708386,-0.0001253383,4,1
-0.0007902921,-7.201877e-05,4,1
-0.000645892,-1.529591e-05,4,1
-0.0004758855,4.564065e-05,4,1
-0.0003070135,0.0001096565,4,1
-0.0001532135,0.0001702689,4,1
-9.137427e-06,0.0002190506,4,1
0.0001378558,0.0002511395,4,1
0.0002952213,0.0002670219,4,1
0.0004640934,0.0002715597,4,1
0.0006452826,0.0002692908,4,1
0.0008261476,0.0002644289,4,1
0.0009857821,0.0002608634,4,1
0.001109438,0.000257298,4,1
0.001200519,0.0002483844,4,1
0.001267776,0.0002310434,4,1
0.001324661,0.000210299,4,1
0.001377171,0.0001916615,4,1
0.001409584,0.0001791825,4,1
0.00139678,0.0001736723,4,1
0.001324013,0.0001723757,4,1
0.001188526,0.0001587623,4,1
0.0009888613,0.0001224596,4,1
0.0007352289,6.525056e-05,4,1
0.0004503179,4.244267e-07,4,1
0.0001639484,-5.451572e-05,4,1
-9.568031e-05,-8.498399e-05,4,1
-0.0003130099,-8.433573e-05,4,1
-0.0004828543,-5.743289e-05,4,1
-0.0006084549,-1.950961e-05,4,1
-0.0006992114,1.160693e-05,4,1
-0.0007651721,2.781346e-05,4,1
-0.000812333,3.235129e-05,4,1
-0.0008353463,3.494434e-05,4,1
-0.0008280533,4.094075e-05,4,1
-0.0007912645,4.709924e-05,4,1
-0.0007431312,4.709924e-05,4,1
-0.000710556,3.640293e-05,4,1
-0.0007121767,1.452411e-05,4,1
-0.0007473448,-1.594417e-05,4,1
-0.0007987196,-4.868137e-05,4,1
-0.000834698,-7.169464e-05,4,1
-0.0008180053,-7.866345e-05,4,1
-0.0007280591,-7.104638e-05,4,1
-0.0005700454,-5.22468e-05,4,1
-0.0003708672,-2.84232e-05,4,1
-0.0001666649,-3.951337e-06,4,1
6.096713e-06,1.841368e-05,4,1
0.0001338042,4.158902e-05,4,1
0.0002184023,7.059871e-05,4,1
0.0002666978,0.0001062531,4,1
0.0002838767,0.0001445005,4,1
0.0002756114,0.0001845306,4,1
0.0002519498,0.000225047,4,1
0.0002261814,0.0002628082,4,1
0.0001984683,0.0002987867,4,1
0.0001493625,0.0003334687,4,1
6.638502e-05,0.0003606957,4,1
-4.05781e-05,0.0003679886,4,1
-0.0001417068,0.0003427064,4,1
-0.0002162569,0.0002795009,4,1
-0.0002669833,0.0001866375,4,1
-0.0003156029,7.999851e-05,4,1
-0.0003812394,-2.372331e-05,4,1
-0.0004575721,-0.0001062146,4,1
-0.0005230465,-0.000156941,4,1
-0.0005556216,-0.0001723372,4,1
-0.0005476804,-0.0001574272,4,1
-0.0005023021,-0.0001277692,4,1
-0.0004159214,-0.0001013526,4,1
-0.0002817312,-8.757704e-05,4,1
-9.811128e-05,-7.785312e-05,4,1
0.0001188942,-5.240886e-05,4,1
0.0003498373,3.503668e-06,4,1
0.0005781874,8.875003e-05,4,1
0.0007864416,0.0001898788,4,1
0.0009579068,0.0002793389,4,1
0.001087073,0.0003329825,4,1
0.001175075,0.0003423823,4,1
0.001221749,0.0003122381,4,1
0.001222884,0.0002543808,4,1
0.001179937,0.00018291,4,1
0.001101173,0.0001052807,4,1
0.001001665,2.927205e-05,4,1
0.0008979426,-3.749886e-05,4,1
0.0008078342,-8.611845e-05,4,1
0.0007394425,-0.0001131834,4,1
0.0006817472,-0.0001183694,4,1
0.0006151384,-0.0001057284,4,1
0.0005224369,-8.514606e-05,4,1
0.0004015361,-7.169464e-05,4,1
0.0002621599,-8.158062e-05,4,1
0.0001137081,-0.0001195039,4,1
-3.555408e-05,-0.0001788198,4,1
-0.0001749302,-0.0002481838,4,1
-0.0002852967,-0.0003168994,4,1
-0.0003465574,-0.000375405,4,1
-0.0003517435,-0.0004155972,4,1
-0.0003089583,-0.0004352071,4,1
-0.0002515871,-0.0004371519,4,1
-0.0002263049,-0.0004284004,4,1
-0.0002624455,-0.0004194868,4,1
-0.0003588744,-0.0004141386,4,1
-0.0004927403,-0.0004087905,4,1
-0.0006343853,-0.0003922598,4,1
-0.0007620928,-0.0003567675,4,1
-0.0008654904,-0.0002998826,4,1
-0.0009533298,-0.0002300324,4,1
-0.00104749,-0.0001579134,4,1
-0.001158991,-9.551824e-05,4,1
-0.001282322,-4.47918e-05,4,1
-0.001399009,-3.789272e-06,4,1
-0.001495276,3.251336e-05,4,1
-0.001563182,6.849186e-05,4,1
-0.001595757,0.0001039842,4,1
-0.001589598,0.000133318,4,1
-0.001536765,0.0001558451,4,1
-0.001427857,0.000170593,4,1
-0.001262388,0.0001796687,4,1
-0.001044411,0.0001859892,4,1
-0.0007829992,0.0001887444,4,1
-0.0004933886,0.0001902029,4,1
-0.0001927574,0.0001966855,4,1
9.199134e-05,0.000210137,4,1
0.0003308757,0.0002227781,4,1
0.0005013684,0.000225047,4,1
0.0006015248,0.0002132162,4,1
0.0006422033,0.0001892305,4,1
0.0006491721,0.0001626518,4,1
0.0006554927,0.0001425557,4,1
0.0006874196,0.0001344524,4,1
0.0007541905,0.0001362352,4,1
0.0008520781,0.0001472556,4,1
0.0009642274,0.0001628139,4,1
0.001063087,0.0001759412,4,1
0.001116731,0.0001796687,4,1
0.001111545,0.000170431,4,1
0.001056929,0.0001477418,4,1
0.0009661721,0.0001103047,4,1
0.0008408955,5.179914e-05,4,1
0.0006875816,-3.328516e-05,4,1
0.0005281092,-0.0001418689,4,1
0.0003913261,-0.0002548284,4,1
0.0002966799,-0.0003452609,4,1
0.0002444948,-0.000392746,4,1
0.0002188885,-0.0003916115,4,1
0.0002017096,-0.0003512573,4,1
0.0001811273,-0.0002862691,4,1
0.0001658931,-0.0002128535,4,1
0.0001694586,-0.0001430034,4,1
0.0001991165,-8.174268e-05,4,1
0.0002461155,-3.069211e-05,4,1
0.0002955454,7.555301e-06,4,1
0.0003328204,3.413401e-05,4,1
0.0003469201,5.504044e-05,4,1
0.0003350894,7.513654e-05,4,1
0.0002950592,9.814982e-05,4,1
0.0002373639,0.0001229458,4,1
0.0001799928,0.0001420695,4,1
0.0001373696,0.0001472556,4,1
0.0001161391,0.0001440143,4,1
0.0001077117,0.0001430419,4,1
9.474644e-05,0.0001503349,4,1
6.735741e-05,0.0001654069,4,1
2.376183e-05,0.0001863134,4,1
-4.608832e-05,0.0002146748,4,1
-0.0001629374,0.0002506533,4,1
-0.0003313232,0.0002903593,4,1
-0.0005314739,0.0003284447,4,1
-0.0007188214,0.0003605336,4,1
-0.0008411807,0.0003850055,4,1
-0.0008653284,0.0004015361,4,1
-0.000789968,0.0004114222,4,1
-0.0006384369,0.0004201737,4,1
-0.0004475241,0.0004305459,4,1
-0.0002519113,0.0004448076,4,1
-7.639453e-05,0.0004645796,4,1
6.914012e-05,0.0004882411,4,1
0.0001918236,0.0005104441,4,1
0.0003046211,0.0005206542,4,1
0.0004156358,0.0005060683,4,1
0.000517575,0.0004569625,4,1
0.0005924492,0.0003718782,4,1
0.0006281036,0.0002616738,4,1
0.0006225934,0.0001422316,4,1
0.0005856425,3.283749e-05,4,1
0.000534754,-5.451572e-05,4,1
0.0004934272,-0.00010978,4,1
0.0004627969,-0.0001405724,4,1
0.0004273046,-0.0001583996,4,1
0.0003684748,-0.0001737958,4,1
0.0002762596,-0.0001937298,4,1
0.0001597346,-0.0002203085,4,1
3.040651e-05,-0.000248832,4,1
-0.0001054042,-0.0002726556,4,1
-0.0002478596,-0.0002917793,4,1
-0.0003956632,-0.0003062031,4,1
-0.0005447632,-0.0003188442,4,1
-0.0006766844,-0.0003305129,4,1
-0.0007688995,-0.0003373197,4,1
-0.0008042298,-0.0003269475,4,1
-0.000785106,-0.0002969654,4,1
-0.0007272488,-0.0002556388,4,1
-0.000655778,-0.0002126914,4,1
-0.0005920863,-0.000174282,4,1
-0.0005475183,-0.0001399241,4,1
-0.000519319,-0.0001114006,4,1
-0.0004980884,-9.422172e-05,4,1
-0.0004702132,-9.211487e-05,4,1
-0.0004238625,-9.973194e-05,4,1
-0.0003559572,-0.0001112386,4,1
-0.0002716832,-0.0001250141,4,1
-0.0001809267,-0.0001417068,4,1
-9.859748e-05,-0.0001600202,4,1
-2.955766e-05,-0.0001776853,4,1
3.380988e-05,-0.0001924333,4,1
9.409818e-05,-0.0002031296,4,1
0.0001394765,-0.0002104225,4,1
0.0001540623,-0.0002199844,4,1
0.0001341283,-0.0002397564,4,1
9.928428e-05,-0.0002780038,4,1
8.405014e-05,-0.0003326198,4,1
0.0001069013,-0.00039777,4,1
0.0001644345,-0.000459679,4,1
0.0002389846,-0.0005027883,4,1
0.0003098072,-0.0005147812,4,1
0.0003568061,-0.0004948471,4,1
0.0003671783,-0.0004446069,4,1
0.0003381686,-0.000370543,4,1
0.0002798251,-0.0002822175,4,1
0.0002130541,-0.0001882196,4,1
0.0001618415,-9.730096e-05,4,1
0.0001501728,-1.950961e-05,4,1
0.0001859892,3.705119e-05,4,1
0.0002470879,7.286763e-05,4,1
0.0002986247,9.896015e-05,4,1
0.0003177483,0.0001244044,4,1
0.000302028,0.0001563313,4,1
0.0002639427,0.0001957132,4,1
0.0002242366,0.0002363916,4,1
0.0001971717,0.0002720459,4,1
0.0001809652,0.0002986247,4,1
0.0001689724,0.0003172622,4,1
0.0001524417,0.0003240689,4,1
0.0001329939,0.0003172622,4,1
0.0001138702,0.0002955454,4,1
9.977047e-05,0.0002639427,4,1
9.31258e-05,0.0002281262,4,1
9.037068e-05,0.000192796,4,1
8.388807e-05,0.0001616794,4,1
6.83298e-05,0.0001404489,4,1
4.175109e-05,0.000135749,4,1
3.827799e-06,0.0001498487,4,1
-3.668853e-05,0.0001770756,4,1
-6.764301e-05,0.0002067336,4,1
-8.563225e-05,0.0002224539,4,1
-9.146661e-05,0.0002132162,4,1
-9.114248e-05,0.0001790204,4,1
-9.114248e-05,0.000135911,4,1
-9.389759e-05,0.0001020394,4,1
-0.0001024871,9.037068e-05,4,1
-0.000119666,0.0001000946,4,1
-0.0001418689,0.0001114392,4,1
-0.0001630995,0.0001013911,4,1
-0.0001783336,6.622294e-05,4,1
-0.0001877334,1.744129e-05,4,1
-0.0001969711,-2.826114e-05,4,1
-0.0002102605,-5.208474e-05,4,1
-0.0002211189,-4.317115e-05,4,1
-0.0002211189,-4.275467e-06,4,1
-0.0002070192,5.228533e-05,4,1
-0.0001830335,0.0001098185,4,1
-0.0001630995,0.0001534141,4,1
-0.0001522411,0.0001731861,4,1
-0.0001423551,0.0001696206,4,1
-0.0001242038,0.0001496866,4,1
-9.875954e-05,0.0001153287,4,1
-7.65566e-05,6.800567e-05,4,1
-6.375344e-05,1.501031e-05,4,1
-5.743289e-05,-3.976777e-05,4,1
-4.462973e-05,-9.179074e-05,4,1
-1.67545e-05,-0.0001396,4,1
2.603075e-05,-0.0001815749,4,1
7.319176e-05,-0.0002160948,4,1
0.000108522,-0.0002417012,4,1
0.0001287802,-0.0002603387,4,1
0.0001433661,-0.0002739521,4,1
0.0001634622,-0.0002754107,4,1
0.0001950649,-0.0002543422,4,1
0.0002362295,-0.0002024813,4,1
0.0002765838,-0.0001203142,4,1
0.0003008936,-1.25408e-05,4,1
0.000289549,0.0001137081,4,1
0.0002273159,0.0002475741,4,1
0.0001077117,0.0003705817,4,1
-6.180866e-05,0.0004650658,4,1
-0.000263742,0.0005245438,4,1
-0.0004758855,0.0005545259,4,1
-0.0006729569,0.0005589016,4,1
-0.0008259465,0.000532485,4,1
-0.0009118411,0.0004665244,4,1
-0.0009228616,0.0003600474,4,1
-0.0008628974,0.0002302331,4,1
-0.0007405381,0.0001062531,4,1
-0.0005663179,1.468618e-05,4,1
-0.0003575778,-3.895745e-05,4,1
-0.000137169,-6.44017e-05,4,1
8.323981e-05,-7.671866e-05,4,1
0.0002961937,-8.919769e-05,4,1
0.0004948858,-0.0001063766,4,1
0.0006726716,-0.0001258245,4,1
0.0008237166,-0.0001447861,4,1
0.0009423485,-0.0001630995,4,1
0.001026461,-0.0001784957,4,1
0.001071515,-0.0001878955,4,1
0.001074594,-0.0001880575,4,1
0.001034402,-0.0001789819,4,1
0.0009554758,-0.0001611547,4,1
0.0008502954,-0.000132145,4,1
0.000745439,-9.794922e-05,4,1
0.0006671614,-6.521203e-05,4,1
0.0006281036,-3.604027e-05,4,1
0.0006143281,-9.623623e-06,4,1
0.0005862907,1.257933e-05,4,1
0.0004994237,2.181705e-05,4,1
0.0003230965,1.112074e-05,4,1
6.962632e-05,-1.416145e-05,4,1
-0.0002032917,-3.879538e-05,4,1
-0.0004214316,-4.722278e-05,4,1
-0.000524343,-2.664048e-05,4,1
-0.0004823681,2.376183e-05,4,1
-0.000310741,9.31258e-05,4,1
-6.116039e-05,0.0001602208,4,1
0.0002025199,0.0002085163,4,1
0.0004162841,0.0002312055,4,1
0.0005287575,0.0002286124,4,1
0.0005188715,0.0002073819,4,1
0.0004007258,0.0001767515,4,1
0.0002231022,0.0001496866,4,1
4.191315e-05,0.0001316974,4,1
-9.794922e-05,0.000125863,4,1
-0.0001780095,0.0001320215,4,1
-0.000201509,0.0001435281,4,1
-0.0001807646,0.0001547106,4,1
-0.0001329553,0.0001553589,4,1
-8.336335e-05,0.0001373696,4,1
-5.727083e-05,0.0001007429,4,1
-6.002594e-05,5.682316e-05,4,1
-7.55842e-05,1.711715e-05,4,1
-8.579432e-05,-1.237873e-05,4,1
-7.914964e-05,-2.826114e-05,4,1
-5.565017e-05,-3.377136e-05,4,1
-2.031993e-05,-3.766092e-05,4,1
2.116879e-05,-5.305713e-05,4,1
6.444023e-05,-9.130454e-05,4,1
0.0001043083,-0.0001455964,4,1
0.0001363972,-0.0002010227,4,1
0.0001558451,-0.0002384598,4,1
0.0001602208,-0.0002499665,4,1
0.0001404489,-0.0002404046,4,1
8.875003e-05,-0.0002173914,4,1
-2.168618e-06,-0.0001919471,4,1
-0.000134738,-0.0001710407,4,1
-0.0002974516,-0.0001605064,4,1
-0.0004625961,-0.000159372,4,1
-0.0006008379,-0.0001630995,4,1
-0.0006911082,-0.0001652063,4,1
-0.000720442,-0.0001679614,4,1
-0.0006872186,-0.0001763888,4,1
-0.0005998655,-0.000194216,4,1
-0.00047702,-0.0002183637,4,1
-0.000350609,-0.0002436459,4,1
-0.000248832,-0.0002668213,4,1
-0.0001900023,-0.0002916173,4,1
-0.0001728234,-0.0003204649,4,1
-0.0001771992,-0.0003493125,4,1
-0.0001830335,-0.0003697327,4,1
-0.0001827094,-0.0003783222,4,1
-0.0001789819,-0.0003734602,4,1
-0.0001799543,-0.0003579019,4,1
-0.0001924333,-0.0003293785,4,1
-0.000223874,-0.0002883759,4,1
-0.0002746004,-0.0002418632,4,1
-0.0003337542,-0.0002018331,4,1
-0.0003835083,-0.000176875,4,1
-0.0004196489,-0.0001661787,4,1
-0.0004577342,-0.0001640719,4,1
-0.000519319,-0.000164396,4,1
-0.000616072,-0.0001605064,4,1
-0.0007298418,-0.0001493239,4,1
-0.000836967,-0.0001248521,4,1
-0.0009275614,-8.757704e-05,4,1
-0.001009729,-3.992984e-05,4,1
-0.001087844,1.047248e-05,4,1
-0.001153967,5.61749e-05,4,1
-0.001187514,9.474644e-05,4,1
-0.001159153,0.000128456,4,1
-0.001046355,0.000160545,4,1
-0.0008389117,0.0001961994,4,1
-0.000546708,0.0002360674,4,1
-0.0002000504,0.0002790148,4,1
0.0001668655,0.0003260137,4,1
0.0005164405,0.0003767402,4,1
0.0008216097,0.0004295735,4,1
0.001067139,0.0004814344,4,1
0.001254811,0.0005248679,4,1
0.001394836,0.0005551741,4,1
0.001498558,0.0005749461,4,1
0.001578132,0.0005848321,4,1
0.00164782,0.000586939,4,1
0.001714429,0.0005830494,4,1
0.00177099,0.0005789978,4,1
0.001806158,0.0005806184,4,1
0.001814424,0.0005898562,4,1
0.001796759,0.0006037938,4,1
0.001758997,0.0006107626,4,1
0.001715888,0.0006008766,4,1
0.001678613,0.0005738117,4,1
0.00163842,0.0005337815,4,1
0.001565167,0.000487917,4,1
0.00142028,0.0004454559,4,1
0.001178478,0.0004132049,4,1
0.0008430023,0.000393757,4,1
0.0004461041,0.0003848434,4,1
3.737532e-05,0.0003773884,4,1
-0.0003348887,0.0003585888,4,1
-0.0006400577,0.0003226103,4,1
-0.0008674352,0.0002736666,4,1
-0.001030635,0.0002221298,4,1
-0.001159153,0.0001743205,4,1
-0.001276002,0.0001325077,4,1
-0.001387503,9.588091e-05,4,1
-0.001483932,5.99024e-05,4,1
-0.001551027,2.133085e-05,4,1
-0.001578254,-2.291298e-05,4,1
-0.001565775,-7.007399e-05,4,1
-0.001525907,-0.0001162626,4,1
-0.001477773,-0.0001554824,4,1
-0.001426236,-0.0001880575,4,1
-0.001367569,-0.0002156086,4,1
-0.001298853,-0.0002374874,4,1
-0.001225924,-0.0002545043,4,1
-0.00115737,-0.0002716832,4,1
-0.001095623,-0.0002930758,4,1
-0.00102707,-0.0003212752,4,1
-0.0009367992,-0.0003522297,4,1
-0.0008134675,-0.0003822118,4,1
-0.0006596675,-0.0004049009,4,1
-0.0004898231,-0.000417542,4,1
-0.000330675,-0.0004232143,4,1
-0.0002084778,-0.0004272659,4,1
-0.0001428413,-0.0004305072,4,1
-0.0001366828,-0.0004288866,4,1
-0.0001759026,-0.0004180282,4,1
-0.0002331117,-0.000395339,4,1
-0.0002681178,-0.0003650328,4,1
-0.0002481838,-0.0003337542,4,1
-0.0001614788,-0.0003070135,4,1
-1.869928e-05,-0.0002840002,4,1
0.0001547106,-0.0002655248,4,1
0.0003287688,-0.0002489941,4,1
0.0004802999,-0.0002348944,4,1
0.000606711,-0.000221443,4,1
0.0007086502,-0.0002039399,4,1
0.0007815796,-0.0001831956,4,1
0.0008254994,-0.0001645581,4,1
0.0008588848,-0.0001451102,4,1
0.000906532,-0.00012469,4,1
0.0009789753,-0.0001065387,4,1
0.001059036,-9.405965e-05,4,1
0.001124348,-8.887356e-05,4,1
0.001156437,-8.82253e-05,4,1
0.001139582,-8.530812e-05,4,1
0.001082211,-7.866345e-05,4,1
0.001016088,-6.974985e-05,4,1
0.0009836752,-6.099833e-05,4,1
0.001008309,-4.949169e-05,4,1
0.001079942,-3.458168e-05,4,1
0.001165351,-1.659243e-05,4,1
0.001221263,-5.479652e-07,4,1
0.001209757,1.22552e-05,4,1
0.001112355,1.97102e-05,4,1
0.0009464002,1.419998e-05,4,1
0.0007457631,-6.544382e-06,4,1
0.0005459364,-3.587821e-05,4,1
0.0003608578,-6.229485e-05,4,1
0.0001864754,-7.590833e-05,4,1
1.193106e-05,-6.942573e-05,4,1
-0.0001556445,-4.511593e-05,4,1
-0.0002917793,-8.651231e-06,4,1
-0.0003681121,3.267542e-05,4,1
-0.0003801049,7.254349e-05,4,1
-0.0003403989,0.00010366,4,1
-0.0002652006,0.0001214872,4,1
-0.0001712027,0.0001257009,4,1
-7.574627e-05,0.0001182459,4,1
2.165498e-05,9.782569e-05,4,1
0.0001436902,5.730935e-05,4,1
0.0003132105,-2.978945e-06,4,1
0.0005187094,-6.893953e-05,4,1
0.0007146465,-0.0001214487,4,1
0.0008478644,-0.0001480274,4,1
0.0008833567,-0.0001459206,4,1
0.0008279303,-0.0001191798,4,1
0.0007190223,-7.55842e-05,4,1
0.0006013628,-2.501983e-05,4,1
0.0005000719,2.992031e-05,4,1
0.0004230909,9.344993e-05,4,1
0.0003649094,0.0001645966,4,1
0.0003164518,0.0002394708,4,1
0.0002636185,0.0003130485,4,1
0.0001986303,0.0003756057,4,1
0.0001269974,0.0004175806,4,1
5.374392e-05,0.0004310321,4,1
-3.798505e-05,0.0004174185,4,1
-0.0001712027,0.0003952156,4,1
-0.0003402368,0.0003877606,4,1
-0.0005097571,0.000406074,4,1
-0.0006442713,0.0004389733,4,1
-0.0007356761,0.0004564763,4,1
-0.0008118468,0.0004323286,4,1
-0.0009191341,0.0003636129,4,1
-0.00107342,0.0002701012,4,1
-0.001239051,0.0001827479,4,1
-0.001344231,0.0001240803,4,1
-0.00133548,0.0001051186,4,1
-0.001207124,0.0001240803,4,1
-0.000998546,0.0001560072,4,1
-0.0007630652,0.0001550348,4,1
-0.0005353634,8.210535e-05,4,1
-0.0003204649,-6.261898e-05,4,1
-0.0001104282,-0.0002391081,4,1
8.939829e-05,-0.0003955011,4,1
0.0002555152,-0.000487068,4,1
0.0003561579,-0.0004899852,4,1
0.0003728506,-0.0004078181,4,1
0.0003159656,-0.0002716832,4,1
0.0002216436,-0.0001282554,4,1
0.000120839,-1.67545e-05,4,1
9.986281e-06,4.72613e-05,4,1
-0.000134738,7.691926e-05,4,1
-0.0003190063,9.604298e-05,4,1
-0.0005133225,0.0001239182,4,1
-0.0006799257,0.000165569,4,1
-0.0008055263,0.0002120818,4,1
-0.000901631,0.0002454672,4,1
-0.0009709949,0.0002475741,4,1
-0.0009938462,0.0002107852,4,1
-0.0009544643,0.0001514693,4,1
-0.0008590078,0.0001002567,4,1
-0.000732759,8.259155e-05,4,1
-0.000606186,9.68533e-05,4,1
-0.0005058676,0.0001214872,4,1
-0.0004502792,0.0001260251,4,1
-0.0004403932,9.118101e-05,4,1
-0.0004664857,1.873781e-05,4,1
-0.0005055434,-6.667062e-05,4,1
-0.0005403875,-0.0001289037,4,1
-0.0005634008,-0.0001421931,4,1
-0.0005648594,-0.0001058904,4,1
-0.0005400634,-3.182657e-05,4,1
-0.0004865818,6.379197e-05,4,1
-0.0004061974,0.0001699448,4,1
-0.0003073376,0.0002790148,4,1
-0.0002058847,0.0003874365,4,1
-0.0001154523,0.0004815964,4,1
-4.47918e-05,0.000534754,4,1
1.396819e-06,0.0005200059,4,1
2.570662e-05,0.0004292493,4,1
3.867184e-05,0.0002743149,4,1
5.390598e-05,8.097089e-05,4,1
7.400208e-05,-0.0001230693,4,1
9.020862e-05,-0.0003071755,4,1
7.740546e-05,-0.0004512515,4,1
7.069105e-06,-0.0005497872,4,1
-0.0001318209,-0.0006133168,4,1
-0.0003120375,-0.0006595054,4,1
-0.0004797751,-0.0007009942,4,1
-0.0005875485,-0.0007369727,4,1
-0.0006144513,-0.0007507482,4,1
-0.0005732867,-0.0007254661,4,1
-0.0004860956,-0.0006543194,4,1
-0.000380267,-0.0005452494,4,1
-0.0002794623,-0.0004146248,4,1
-0.0001987538,-0.0002844864,4,1
-0.0001368449,-0.0001686097,4,1
-8.141856e-05,-7.671866e-05,4,1
-2.339918e-05,-1.707863e-05,4,1
3.883391e-05,9.106227e-07,4,1
0.0001039842,-2.242678e-05,4,1
0.0001707551,-7.056019e-05,4,1
0.0002347709,-0.0001190177,4,1
0.0002913317,-0.0001452723,4,1
0.00033671,-0.0001387897,4,1
0.0003679886,-0.0001084835,4,1
0.0003893813,-6.958779e-05,4,1
0.0004049396,-3.587821e-05,4,1
0.0004253598,-1.027188e-05,4,1
0.0004603659,7.393236e-06,4,1
0.0005055821,1.501031e-05,4,1
0.0005520949,9.500085e-06,4,1
0.0005880735,-6.382317e-06,4,1
0.000606711,-2.356124e-05,4,1
0.0006033076,-3.63644e-05,4,1
0.0005806184,-4.074016e-05,4,1
0.0005520949,-3.26369e-05,4,1
0.0005248679,-1.20546e-05,4,1
0.0004973168,1.792748e-05,4,1
0.000470576,5.131294e-05,4,1
0.000455666,8.340187e-05,4,1
0.0004632831,0.0001052807,4,1
0.0004940755,0.000115977,4,1
0.0005389676,0.0001125736,4,1
0.0005836976,9.782569e-05,4,1
0.0006238899,8.080883e-05,4,1
0.0006577615,7.124698e-05,4,1
0.0006751026,7.254349e-05,4,1
0.0006582477,8.437427e-05,4,1
0.0005986077,9.944634e-05,4,1
0.0005117406,0.0001130598,4,1
0.0004355699,0.0001214872,4,1
0.0004054258,0.0001237561,4,1
0.0004341113,0.0001205148,4,1
0.0005010443,0.0001116012,4,1
0.0005676532,9.798775e-05,4,1
0.0006063868,8.875003e-05,4,1
0.0006156246,9.26396e-05,4,1
0.000609304,0.000106091,4,1
0.0006023352,0.0001239182,4,1
0.0005958526,0.0001419075,4,1
0.0005793219,0.0001589243,4,1
0.0005407503,0.000170593,4,1
0.0004702519,0.0001642725,4,1
0.0003679886,0.000133318,4,1
0.0002487085,9.118101e-05,4,1
0.0001305629,5.325772e-05,4,1
3.056858e-05,3.056858e-05,4,1
-3.522994e-05,2.797553e-05,4,1
-6.083626e-05,4.72613e-05,4,1
-4.90055e-05,8.161915e-05,4,1
-1.092015e-05,0.0001200286,4,1
3.948217e-05,0.0001529279,4,1
8.664318e-05,0.0001773998,4,1
0.0001158149,0.0002000889,4,1
0.0001248906,0.0002237505,4,1
0.0001227837,0.0002430362,4,1
0.0001257009,0.0002478982,4,1
0.0001448246,0.0002290986,4,1
0.0001757791,0.0001817755,4,1
0.0002088404,0.0001175977,4,1
0.0002410915,6.03886e-05,4,1
0.0002736666,3.170304e-05,4,1
0.0003025142,4.158902e-05,4,1
0.0003122381,8.42122e-05,4,1
0.0002876042,0.0001386662,4,1
0.0002169437,0.0001885823,4,1
0.0001038221,0.0002231022,4,1
-3.21507e-05,0.0002422259,4,1
-0.0001621271,0.0002475741,4,1
-0.0002601766,0.0002467637,4,1
-0.0003156029,0.0002443328,4,1
-0.0003326198,0.0002433604,4,1
-0.0003220855,0.0002427121,4,1
-0.0002937241,0.000239957,4,1
-0.0002603387,0.0002323399,4,1
-0.0002318152,0.000220023,4,1
-0.0002113949,0.000207706,4,1
-0.0001935677,0.0002023578,4,1
-0.0001713648,0.0002090025,4,1
-0.0001391138,0.0002198609,4,1
-9.19528e-05,0.0002282883,4,1
-3.506788e-05,0.0002305572,4,1
1.582063e-05,0.0002279642,4,1
4.35338e-05,0.0002190506,4,1
4.045456e-05,0.0001999268,4,1
8.365628e-06,0.0001665414,4,1
-3.717473e-05,0.0001232699,4,1
-7.623246e-05,7.594687e-05,4,1
-9.730096e-05,3.089271e-05,4,1
-0.0001042698,-7.678839e-06,4,1
-0.00010978,-3.895745e-05,4,1
-0.0001323071,-6.359137e-05,4,1
-0.0001812508,-8.368748e-05,4,1
-0.0002496423,-0.0001021629,4,1
-0.0003149546,-0.0001208004,4,1
-0.0003622777,-0.0001425172,4,1
-0.0003867496,-0.0001721751,4,1
-0.0003948528,-0.0002109087,4,1
-0.0003963114,-0.0002525595,4,1
-0.0003969597,-0.0002862691,4,1
-0.0003997148,-0.0003050687,4,1
-0.0003995528,-0.0003079858,4,1
-0.0003940425,-0.0002985861,4,1
-0.0003838324,-0.0002836761,4,1
-0.0003711913,-0.0002707109,4,1
-0.0003562813,-0.000266011,4,1
-0.0003326198,-0.0002689281,4,1
-0.0002976137,-0.0002746004,4,1
-0.0002570974,-0.0002836761,4,1
-0.0002227395,-0.000303286,4,1
-0.0001995642,-0.0003520676,4,1
-0.0001818991,-0.0004387725,4,1
-0.00015451,-0.0005454115,4,1
-0.0001104282,-0.0006494574,4,1
-5.743289e-05,-0.0007410243,4,1
-1.221667e-05,-0.0008133054,4,1
1.501031e-05,-0.0008573871,4,1
2.197911e-05,-0.000864518,4,1
1.436204e-05,-0.0008278913,4,1
2.369211e-06,-0.0007499378,4,1
-1.156841e-05,-0.0006441093,4,1
-2.46957e-05,-0.0005288809,4,1
-3.21507e-05,-0.0004188385,4,1
-2.696461e-05,-0.0003215994,4,1
-8.651231e-06,-0.0002353806,4,1
2.457216e-05,-0.0001566169,4,1
7.270556e-05,-7.720486e-05,4,1
0.000130887,8.851824e-06,4,1
0.0001833962,0.0001026876,4,1
0.0002112714,0.000200251,4,1
0.0002072198,0.0002934386,4,1
0.0001770756,0.0003798194,4,1
0.0001299146,0.000458097,4,1
6.930219e-05,0.000537347,4,1
-5.57199e-06,0.0006187038,4,1
-0.0001005423,0.0007020054,4,1
-0.0002177155,0.0007883863,4,1
-0.000343154,0.0008754155,4,1
-0.0004441207,0.0009564483,4,1
-0.00048723,0.001028243,4,1
-0.0004587066,0.001091773,4,1
-0.000370381,0.001148982,4,1
-0.0002486699,0.001204571,4,1
-0.0001267968,0.001260969,4,1
-2.583016e-05,0.001312668,4,1
4.904402e-05,0.001349457,4,1
0.0001041462,0.001360316,4,1
0.0001490383,0.001346054,4,1
0.0001942546,0.001304889,4,1
0.0002388225,0.001221588,4,1
0.0002730183,0.001077349,4,1
0.0002838767,0.0008715259,4,1
0.0002637806,0.0006222692,4,1
0.0002133783,0.0003619922,4,1
0.0001414213,0.000128294,4,1
6.865393e-05,-5.2733e-05,4,1
2.278944e-05,-0.0001733096,4,1
2.197911e-05,-0.0002408908,4,1
6.46023e-05,-0.0002723315,4,1
0.0001291043,-0.0002883759,4,1
0.0001806411,-0.0003040963,4,1
0.0001898788,-0.0003279199,4,1
0.0001500107,-0.0003543365,4,1
7.708133e-05,-0.0003836704,4,1
-1.25408e-05,-0.0004173799,4,1
-0.0001102662,-0.0004570859,4,1
-0.0002100984,-0.0005014918,4,1
-0.0003062031,-0.0005460597,4,1
-0.0003872358,-0.0005820383,4,1
-0.0004481723,-0.0006031067,4,1
-0.000496954,-0.0006089411,4,1
-0.000551732,-0.000603593,4,1
-0.0006146134,-0.0005937069,4,1
-0.0006572366,-0.0005826865,4,1
-0.0006400577,-0.0005742591,4,1
-0.0005484907,-0.0005693972,4,1
-0.0004081422,-0.0005690731,4,1
-0.0002676316,-0.0005729626,4,1
-0.0001652063,-0.000576366,4,1
-0.0001152902,-0.0005753936,4,1
-0.0001107524,-0.0005685869,4,1
-0.0001258245,-0.0005595111,4,1
-0.0001287416,-0.0005484907,4,1
-8.773911e-05,-0.0005363359,4,1
2.278944e-05,-0.0005246671,4,1
0.0002090025,-0.0005154294,4,1
0.0004451317,-0.0005061917,4,1
0.0006854748,-0.0004930644,4,1
0.0008901635,-0.0004749131,4,1
0.00102954,-0.0004512515,4,1
0.001094366,-0.0004232143,4,1
0.001098094,-0.0003940425,4,1
0.001068435,-0.0003681121,4,1
0.001023219,-0.0003452609,4,1
0.0009590413,-0.0003241924,4,1
0.0008611537,-0.0003039342,4,1
0.0007285841,-0.0002864312,4,1
0.0005738117,-0.0002729798,4,1
0.0004151496,-0.0002569353,4,1
0.0002550291,-0.0002366771,4,1
8.761557e-05,-0.0002107467,4,1
-8.433573e-05,-0.0001818991,4,1
-0.0002386219,-0.0001524032,4,1
-0.0003557951,-0.0001250141,4,1
-0.0004264556,-0.0001000561,4,1
-0.0004494688,-7.639453e-05,4,1
-0.000434883,-5.22468e-05,4,1
-0.0004037664,-2.226472e-05,4,1
-0.0003809152,1.776542e-05,4,1
-0.0003841565,6.768154e-05,4,1
-0.0004084663,0.0001221355,4,1
-0.0004308313,0.0001765894,4,1
-0.0004319658,0.0002243987,4,1
-0.0003990665,0.0002566497,4,1
-0.0003326198,0.0002718839,4,1
-0.0002381357,0.0002735045,4,1
-0.0001173971,0.0002679943,4,1
2.894792e-05,0.000264753,4,1
0.0001910133,0.000264753,4,1
0.0003550234,0.0002678322,4,1
0.0005062304,0.0002718839,4,1
0.0006334517,0.0002730183,4,1
0.0007290703,0.0002689667,4,1
0.0007913035,0.0002631324,4,1
0.0008185305,0.0002602152,4,1
0.0008091307,0.0002608634,4,1
0.0007609973,0.0002641047,4,1
0.0006718613,0.0002676702,4,1
0.0005409124,0.0002668598,4,1
0.0003756057,0.0002607014,4,1
0.0001884202,0.0002547049,4,1
-3.789272e-06,0.000252436,4,1
-0.0001754164,0.0002558394,4,1
-0.0002992343,0.0002603772,4,1
-0.0003588744,0.0002577842,4,1
-0.0003606571,0.0002469258,4,1
-0.0003262992,0.0002321778,4,1
-0.0002849726,0.0002205092,4,1
-0.0002624455,0.0002135403,4,1
-0.0002713591,0.0002107852,4,1
-0.000303448,0.0002091646,4,1
-0.0003318095,0.0002090025,4,1
-0.0003175477,0.0002073819,4,1
-0.0002376495,0.0002000889,4,1
-0.0001091317,0.0001867996,4,1
2.133085e-05,0.0001707551,4,1
0.0001041462,0.000155683,4,1
0.000113384,0.000143204,4,1
4.72613e-05,0.000135749,4,1
-7.882551e-05,0.000128456,4,1
-0.0002321393,0.0001153287,4,1
-0.0003632501,9.782569e-05,4,1
-0.0004269418,8.323981e-05,4,1
-0.0004039285,7.448828e-05,4,1
-0.0003156029,6.573675e-05,4,1
-0.000216581,5.212327e-05,4,1
-0.0001551583,3.543054e-05,4,1
-0.0001433275,2.441009e-05,4,1
-0.0001640719,3.170304e-05,4,1
-0.0001977815,6.006447e-05,4,1
-0.0002335979,9.798775e-05,4,1
-0.0002630937,0.0001321835,4,1
-0.0002844864,0.0001540623,4,1
-0.0002985861,0.0001613553,4,1
-0.0003044204,0.0001501728,4,1
-0.0002934,0.0001214872,4,1
-0.0002532078,7.724339e-05,4,1
-0.000196647,1.97102e-05,4,1
-0.0001543479,-5.370539e-05,4,1
-0.0001585616,-0.0001421931,4,1
-0.000219012,-0.0002402425,4,1
-0.0003110651,-0.0003353749,4,1
-0.0003987424,-0.0004099249,4,1
-0.0004525481,-0.0004483344,4,1
-0.0004578962,-0.0004460655,4,1
-0.0004178661,-0.000412518,4,1
-0.0003486642,-0.0003668155,4,1
-0.0002627696,-0.0003251648,4,1
-0.0001671511,-0.0002953447,4,1
-7.218083e-05,-0.0002765452,4,1
1.663096e-05,-0.0002639041,4,1
8.858796e-05,-0.0002507768,4,1
0.0001265113,-0.0002311669,4,1
0.0001248906,-0.0002042641,4,1
0.0001069013,-0.0001707166,4,1
0.0001080358,-0.0001342519,4,1
0.0001550348,-0.0001010285,4,1
0.0002537325,-7.55842e-05,4,1
0.0003885709,-5.727083e-05,4,1
0.0005240576,-4.236082e-05,4,1
0.0006131936,-2.599222e-05,4,1
0.0006230795,-8.975362e-06,4,1
0.0005585775,6.90704e-06,4,1
0.0004624728,2.100672e-05,4,1
0.000386302,3.445814e-05,4,1
0.0003595612,5.52025e-05,4,1
0.0003743092,9.31258e-05,4,1
0.0003942432,0.0001540623,4,1
0.0003931088,0.0002290986,4,1
0.000368799,0.0003028383,4,1
0.0003448133,0.000359075,4,1
0.0003561579,0.0003940812,4,1
0.0004298976,0.0004101256,4,1
0.0005663567,0.0004083429,4,1
0.0007313393,0.0003955397,4,1
0.0008838429,0.0003819262,4,1
0.0009869165,0.0003767402,4,1
0.001022895,0.0003848434,4,1
0.0009982612,0.0004052637,4,1
0.0009366762,0.000428277,4,1
0.0008580745,0.0004454559,4,1
0.0007700729,0.0004501558,4,1
0.0006579236,0.0004425387,4,1
0.0004990995,0.0004316803,4,1
0.0002830664,0.0004271425,4,1
1.841368e-05,0.0004302217,4,1
-0.0002652006,0.0004388112,4,1
-0.0005282326,0.0004503179,4,1
-0.0007334072,0.000458097,4,1
-0.0008635456,0.0004572867,4,1
-0.000923996,0.0004467524,4,1
-0.0009374474,0.0004277907,4,1
-0.0009230236,0.0004018603,4,1
-0.0008936898,0.0003691231,4,1
-0.0008560906,0.0003307136,4,1
-0.000817357,0.0002842008,4,1
-0.00077992,0.0002231022,4,1
-0.0007416725,0.0001404489,4,1
-0.000698077,3.526847e-05,4,1
-0.0006517263,-8.725291e-05,4,1
-0.0005985689,-0.0002146363,4,1
-0.0005238568,-0.0003309991,4,1
-0.0004049009,-0.0004185144,4,1
-0.0002365151,-0.0004684305,4,1
-4.722278e-05,-0.000482206,4,1
0.0001193804,-0.0004713477,4,1
0.0002313675,-0.0004535205,4,1
0.0002793389,-0.0004395829,4,1
0.0002681563,-0.000432452,4,1
0.0002051129,-0.0004363416,4,1
0.0001023635,-0.0004642168,4,1
-2.971972e-05,-0.0005279084,4,1
-0.000176875,-0.0006206098,4,1
-0.0003144685,-0.0007159042,4,1
-0.0004164075,-0.0007855922,4,1
-0.0004715097,-0.0008142778,4,1
-0.0004907955,-0.0007992057,4,1
-0.0004916058,-0.0007466965,4,1
-0.000484475,-0.0006637191,4,1
-0.0004719959,-0.0005640491,4,1
-0.0004577342,-0.0004585445,4,1
-0.0004510895,-0.0003577399,4,1
-0.0004630823,-0.0002721694,4,1
-0.0004911196,-0.000209126,4,1
-0.000516888,-0.0001697442,4,1
-0.0005128364,-0.0001477033,4,1
-0.0004583824,-0.0001374932,4,1
-0.0003546606,-0.0001323071,4,1
-0.0002209568,-0.0001276072,4,1
-8.190475e-05,-0.0001175591,4,1
4.223728e-05,-0.0001003802,4,1
0.0001391524,-8.222889e-05,4,1
0.0002059233,-6.926366e-05,4,1
0.0002459534,-6.618442e-05,4,1
0.0002765838,-6.845333e-05,4,1
0.0003159656,-6.180866e-05,4,1
0.000373823,-2.534396e-05,4,1
0.0004475628,5.082674e-05,4,1
0.0005188715,0.0001584381,4,1
0.0005715428,0.0002788527,4,1
0.0005953664,0.0003955397,4,1
0.0005866149,0.0005000719,4,1
0.0005459364,0.000589532,4,1
0.0004798138,0.0006721854,4,1
0.0004041292,0.0007562974,4,1
0.0003355756,0.000837006,4,1
0.0002806354,0.0008891911,4,1
0.0002380122,0.0008872462,4,1
0.000200413,0.0008261476,4,1
0.0001628139,0.000728098,4,1
0.0001252147,0.0006303725,4,1
8.664318e-05,0.0005603603,4,1
4.936815e-05,0.0005295678,4,1
2.651694e-05,0.0005316747,4,1
3.056858e-05,0.0005482053,4,1
6.768154e-05,0.0005566327,4,1
0.0001304008,0.0005446399,4,1
0.0001970097,0.0005133613,4,1
0.0002487085,0.0004749518,4,1
0.0002791768,0.0004397836,4,1
0.0002918179,0.0004125566,4,1
0.000294573,0.0003877606,4,1
0.0002864697,0.0003572923,4,1
0.0002616738,0.0003148312,4,1
0.0002184023,0.0002571359,4,1
0.0001597346,0.0001876099,4,1
9.669123e-05,0.0001167873,4,1
4.142696e-05,5.277153e-05,4,1
6.582909e-06,-6.176923e-08,4,1
3.989864e-06,-4.074016e-05,4,1
3.948217e-05,-7.23429e-05,4,1
0.0001026876,-0.0001011905,4,1
0.0001645966,-0.0001391138,4,1
0.0001892305,-0.0001976194,4,1
0.0001592484,-0.0002843243,4,1
7.951231e-05,-0.0003945287,4,1
-3.522994e-05,-0.0005076503,4,1
-0.0001690959,-0.0006008379,4,1
-0.0003047445,-0.0006573986,4,1
-0.0004230522,-0.0006752257,4,1
-0.0004979264,-0.0006624226,4,1
-0.0005081365,-0.0006327647,4,1
-0.0004527101,-0.0006026206,4,1
-0.0003637363,-0.0005825245,4,1
-0.0002890242,-0.0005820383,4,1
-0.0002609869,-0.0006066722,4,1
-0.0002805968,-0.0006546435,4,1
-0.0003238683,-0.0007142835,4,1
-0.0003640605,-0.0007690616,4,1
-0.0003737844,-0.0008005023,4,1
-0.0003366714,-0.0007943438,4,1
-0.000253856,-0.0007567446,4,1
-0.0001478653,-0.000708125,4,1
-4.835724e-05,-0.0006672846,4,1
3.235129e-05,-0.0006358439,4,1
0.0001018773,-0.0006032689,4,1
0.0001749688,-0.0005603215,4,1
0.0002538946,-0.0005053814,4,1
0.0003158036,-0.0004410415,4,1
0.0003349273,-0.0003718396,4,1
0.0003122381,-0.0003070135,4,1
0.0002670219,-0.0002551526,4,1
0.0002245608,-0.0002169052,4,1
0.0002021958,-0.0001893541,4,1
0.0002057612,-0.0001660166,4,1
0.000235095,-0.0001423551,4,1
0.0002906835,-0.0001136696,4,1
0.0003700955,-7.33153e-05,4,1
0.0004684692,-1.788895e-05,4,1
0.0005723531,4.742337e-05,4,1
0.0006657028,0.0001235941,4,1
0.0007305289,0.0002093267,4,1
0.0007598628,0.0002991108,4,1
0.0007535422,0.0003832228,4,1
0.000715781,0.0004517764,4,1
0.0006443101,0.000500396,4,1
0.0005352402,0.000534916,4,1
0.0003921364,0.0005658705,4,1
0.0002427121,0.0006003904,4,1
0.0001312112,0.0006434998,4,1
7.740546e-05,0.0006887161,4,1
6.687121e-05,0.0007221015,4,1
6.168512e-05,0.0007279359,4,1
2.522042e-05,0.0007005468,4,1
-5.192267e-05,0.0006465791,4,1
-0.000144462,0.0005809425,4,1
-0.0002122053,0.0005227611,4,1
-0.0002206326,0.0004848378,4,1
-0.0001616409,0.0004694416,4,1
-4.819517e-05,0.0004663623,4,1
8.729144e-05,0.0004671726,4,1
0.0002190506,0.000463121,4,1
0.0003346032,0.0004525868,4,1
0.000423415,0.0004341113,4,1
0.0004718725,0.0004081808,4,1
0.0004707381,0.0003759298,4,1
0.0004269804,0.0003405996,4,1
0.0003647473,0.0003075383,4,1
0.0003130485,0.0002775562,4,1
0.0002918179,0.0002466017,4,1
0.0002947351,0.00021273,4,1
0.0003021901,0.0001762653,4,1
0.0002923041,0.0001425557,4,1
0.0002431983,0.0001150046,4,1
0.0001404489,9.377406e-05,4,1
-1.027188e-05,7.708133e-05,4,1
-0.0001857886,6.379197e-05,4,1
-0.000358064,4.936815e-05,4,1
-0.0005092709,2.878586e-05,4,1
-0.0006249856,2.369211e-06,4,1
-0.000700508,-2.501983e-05,4,1
-0.0007390795,-4.884343e-05,4,1
-0.0007535033,-6.537409e-05,4,1
-0.0007666306,-7.704279e-05,4,1
-0.0008001782,-8.336335e-05,4,1
-0.0008554424,-8.903562e-05,4,1
-0.000909248,-9.470791e-05,4,1
-0.0009311269,-0.0001044318,4,1
-0.0009050344,-0.0001175591,4,1
-0.0008298361,-0.0001349001,4,1
-0.000720442,-0.0001575893,4,1
-0.0006055377,-0.0001828714,4,1
-0.0005228845,-0.0002083157,4,1
-0.0005045711,-0.0002292221,4,1
-0.0005577285,-0.0002418632,4,1
-0.0006522125,-0.000246401,4,1
-0.0007371347,-0.0002470493,4,1
-0.00076501,-0.0002473734,4,1
-0.0007078009,-0.0002493182,4,1
-0.0005543251,-0.0002541802,4,1
-0.0003272716,-0.0002582318,4,1
-7.785312e-05,-0.0002580697,4,1
0.0001331559,-0.0002499665,4,1
0.0002666978,-0.0002353806,4,1
0.0003209897,-0.0002204706,4,1
0.0003221241,-0.0002122053,4,1
0.0003005694,-0.000213988,4,1
0.0002764217,-0.0002220912,4,1
0.0002555152,-0.0002263049,4,1
0.0002337985,-0.000219012,4,1
0.0002067336,-0.0001919471,4,1
0.0001786963,-0.0001426792,4,1
0.0001660552,-7.801519e-05,4,1
0.0001817755,-8.489166e-06,4,1
0.0002256952,5.552663e-05,4,1
0.0002887387,0.0001002567,4,1
0.0003585888,0.0001145184,4,1
0.0004253598,9.652917e-05,4,1
0.000468145,5.504044e-05,4,1
0.0004715484,4.638125e-06,4,1
0.0004405939,-3.814712e-05,4,1
0.0003919743,-6.537409e-05,4,1
0.0003370341,-8.02841e-05,4,1
0.0002819319,-9.017008e-05,4,1
0.0002224539,-9.778715e-05,4,1
0.0001644345,-0.0001036215,4,1
0.0001167873,-0.0001021629,4,1
8.907416e-05,-9.19528e-05,4,1
8.259155e-05,-7.752899e-05,4,1
9.620504e-05,-7.039812e-05,4,1
0.0001297526,-7.752899e-05,4,1
0.0001861513,-9.924574e-05,4,1
0.0002558394,-0.0001276072,4,1
0.0003221241,-0.00015451,4,1
0.0003660439,-0.0001731475,4,1
0.0003793332,-0.0001784957,4,1
0.0003626405,-0.0001671511,4,1
0.0003232586,-0.0001391138,4,1
0.0002665357,-9.762509e-05,4,1
0.0001997648,-4.641245e-05,4,1
0.0001263492,6.90704e-06,4,1
5.066468e-05,5.487838e-05,4,1
-1.562004e-05,9.247754e-05,4,1
-5.483985e-05,0.0001198666,4,1
-4.965376e-05,0.0001433661,4,1
-1.010982e-05,0.0001686482,4,1
2.81376e-05,0.0001984683,4,1
3.024445e-05,0.0002279642,4,1
-1.25408e-05,0.0002464396,4,1
-8.239095e-05,0.0002488706,4,1
-0.0001522411,0.0002383363,4,1
-0.0002058847,0.0002174299,4,1
-0.0002525595,0.0001864754,4,1
-0.0003194925,0.0001459591,4,1
-0.0004233763,0.0001005808,4,1
-0.0005480045,5.876794e-05,4,1
-0.0006565883,3.170304e-05,4,1
-0.0007191455,2.910999e-05,4,1
-0.0007282211,5.423012e-05,4,1
-0.0006912703,9.912221e-05,4,1
-0.0006215822,0.0001508211,4,1
-0.0005330946,0.000195227,4,1
-0.0004400691,0.0002289366,4,1
-0.0003501228,0.0002535705,4,1
-0.0002658489,0.0002735045,4,1
-0.0001869231,0.0002932765,4,1
-0.0001182074,0.0003091589,4,1
-6.164659e-05,0.0003138588,4,1
-1.99958e-05,0.0003049452,4,1
7.393236e-06,0.0002879283,4,1
2.81376e-05,0.0002679943,4,1
3.753739e-05,0.0002491947,4,1
2.927205e-05,0.0002346088,4,1
2.207145e-06,0.0002268297,4,1
-4.300908e-05,0.0002195368,4,1
-9.600444e-05,0.0002025199,4,1
-0.0001396,0.0001694586,4,1
-0.0001540238,0.0001214872,4,1
-0.0001318209,6.298164e-05,4,1
-7.639453e-05,4.47606e-06,4,1
-9.461558e-06,-4.511593e-05,4,1
4.077869e-05,-7.688073e-05,4,1
6.46023e-05,-8.692878e-05,4,1
8.04847e-05,-7.493595e-05,4,1
0.0001099806,-4.673658e-05,4,1
0.0001616794,-1.25408e-05,4,1
0.0002240746,1.452411e-05,4,1
0.0002759355,2.684107e-05,4,1
0.0003064038,2.295151e-05,4,1
0.0003188828,3.503668e-06,4,1
0.0003313618,-3.231277e-05,4,1
0.0003558337,-8.060823e-05,4,1
0.0003880847,-0.0001344139,4,1
0.0004075326,-0.0001846542,4,1
0.0003880847,-0.0002241981,4,1
0.0003145071,-0.0002481838,4,1
0.0001926339,-0.0002549905,4,1
5.017848e-05,-0.0002451045,4,1
-7.590833e-05,-0.0002241981,4,1
-0.0001567789,-0.0002010227,4,1
-0.0001796301,-0.0001856265,4,1
-0.0001493239,-0.0001828714,4,1
-8.903562e-05,-0.0001882196,4,1
-3.053005e-05,-0.0001908126,4,1
-3.789272e-06,-0.0001789819,4,1
-2.113026e-05,-0.0001462447,4,1
-7.914964e-05,-9.746302e-05,4,1
-0.0001525652,-4.738484e-05,4,1
-0.0002120432,-1.189254e-05,4,1
-0.0002374874,-1.358292e-06,4,1
-0.0002248464,-1.399939e-05,4,1
-0.0001801163,-3.798505e-05,4,1
-0.000112373,-5.921561e-05,4,1
-2.955766e-05,-7.412562e-05,4,1
5.957827e-05,-9.697683e-05,4,1
0.0001417454,-0.0001413827,4,1
0.0002114335,-0.0002034537,4,1
0.0002710735,-0.0002627696,4,1
0.0003239069,-0.0002948586,4,1
0.0003731747,-0.000283514,4,1
0.000411098,-0.0002306807,4,1
0.0004268184,-0.0001543479,4,1
0.0004143393,-7.363943e-05,4,1
0.000371392,-7.100305e-07,4,1
0.000299597,6.395404e-05,4,1
0.0002138645,0.0001198666,4,1
0.000143204,0.0001670276,4,1
0.0001180839,0.0002057612,4,1
0.000145635,0.0002347709,4,1
0.0002117576,0.0002487085,4,1
0.0002876042,0.0002396328,4,1
0.0003477304,0.0002072198,4,1
0.0003819262,0.0001597346,4,1
0.0003914881,0.0001166253,4,1
0.0003744712,9.31258e-05,4,1
0.0003295791,9.879808e-05,4,1
0.0002470879,0.0001325077,4,1
0.0001227837,0.0001871237,4,1
-3.814712e-05,0.0002561635,4,1
-0.0002122053,0.0003320101,4,1
-0.0003726499,0.0004031568,4,1
-0.0005057055,0.0004592314,4,1
-0.0006149375,0.0004898618,4,1
-0.0006961322,0.0004895377,4,1
-0.0007351899,0.0004668485,4,1
-0.0007274108,0.0004347596,4,1
-0.0006761982,0.0004093153,4,1
-0.0005870623,0.000403643,4,1
-0.0004603272,0.0004148255,4,1
-0.0002987481,0.0004179048,4,1
-0.000114804,0.000383871,4,1
7.140904e-05,0.0002968419,4,1
0.0002475741,0.0001628139,4,1
0.0004195254,1.1769e-05,4,1
0.0006050903,-0.0001164247,4,1
0.000822258,-0.0001937298,4,1
0.00106406,-0.0002198223,4,1
0.001298245,-0.0002144742,4,1
0.001473438,-0.0002031296,4,1
0.00155366,-0.0002053985,4,1
0.001533402,-0.0002263049,4,1
0.00143908,-0.0002588801,4,1
0.001312506,-0.000290969,4,1
0.001185285,-0.0003139823,4,1
0.001063087,-0.0003269475,4,1
0.0009373245,-0.0003368335,4,1
0.0007981102,-0.000350447,4,1
0.0006407447,-0.0003726499,4,1
0.0004726828,-0.0003971218,4,1
0.000316776,-0.0004138145,4,1
0.000195227,-0.0004144627,4,1
0.0001072255,-0.0003979321,4,1
3.380988e-05,-0.0003671397,4,1
-4.041603e-05,-0.0003271096,4,1
-0.0001261486,-0.0002836761,4,1
-0.0002222533,-0.0002412149,4,1
-0.000313334,-0.0002042641,4,1
-0.000372974,-0.0001736337,4,1
-0.0003833462,-0.000152079,4,1
-0.0003541745,-0.0001404103,4,1
-0.0003144685,-0.0001334415,4,1
-0.0002919414,-0.0001193418,4,1
-0.0003053928,-9.405965e-05,4,1
-0.000355471,-5.678463e-05,4,1
-0.0004253211,-1.659243e-05,4,1
-0.0004959816,1.679302e-05,4,1
-0.000559025,3.656499e-05,4,1
-0.0006220684,4.369587e-05,4,1
-0.0006977529,4.013043e-05,4,1
-0.0007886715,3.445814e-05,4,1
-0.0008829935,3.834771e-05,4,1
-0.0009630537,5.536457e-05,4,1
-0.001019452,8.161915e-05,4,1
-0.001054783,0.0001075496,4,1
-0.001075851,0.0001294284,4,1
-0.001082496,0.0001449867,4,1
-0.001072124,0.0001493625,4,1
-0.001040683,0.0001401247,4,1
-0.00099336,0.0001172735,4,1
-0.0009449024,7.821578e-05,4,1
-0.0009142721,2.311357e-05,4,1
-0.0009030896,-3.879538e-05,4,1
-0.0008875313,-9.486997e-05,4,1
-0.0008408565,-0.0001426792,4,1
-0.0007518827,-0.0001812508,4,1
-0.000628551,-0.0002068571,4,1
-0.0004903093,-0.0002151224,4,1
-0.0003570916,-0.0001989159,4,1
-0.0002386219,-0.0001546721,4,1
-0.0001337657,-8.595638e-05,4,1
-3.68506e-05,7.485573e-07,4,1
6.573675e-05,9.523264e-05,4,1
0.0001876099,0.0001861513,4,1
0.0003269861,0.0002636185,4,1
0.0004662003,0.0003179104,4,1
0.0005726772,0.0003449753,4,1
0.0006208107,0.0003488649,4,1
0.0006010387,0.0003324963,4,1
0.000537509,0.0003008936,4,1
0.0004762483,0.0002563256,4,1
0.0004621486,0.0002099749,4,1
0.0005154681,0.0001767515,4,1
0.0006243761,0.0001678379,4,1
0.000750463,0.0001856651,4,1
0.0008462437,0.0002239125,4,1
0.0008762258,0.0002681563,4,1
0.000834737,0.0003065659,4,1
0.0007350668,0.0003256896,4,1
0.000591801,0.000319369,4,1
0.0004166082,0.0002874421,4,1
0.0002195368,0.0002334744,4,1
2.311357e-05,0.0001633001,4,1
-0.0001477033,9.053275e-05,4,1
-0.0002746004,2.554455e-05,4,1
-0.0003434782,-2.46957e-05,4,1
-0.0003457471,-5.386745e-05,4,1
-0.0002883759,-6.375344e-05,4,1
-0.0002050744,-6.342931e-05,4,1
-0.0001326312,-6.035007e-05,4,1
-9.065628e-05,-5.548811e-05,4,1
-9.227693e-05,-4.80331e-05,4,1
-0.0001433275,-3.506788e-05,4,1
-0.0002285739,-9.461558e-06,4,1
-0.0003254889,3.656499e-05,4,1
-0.0004123559,9.912221e-05,4,1
-0.0004715097,0.0001657311,4,1
-0.0004976023,0.000220185,4,1
-0.0004916058,0.0002529222,4,1
-0.0004595169,0.0002600531,4,1
-0.0004071698,0.0002357433,4,1
-0.0003416954,0.0001806411,4,1
-0.0002639041,0.0001025256,4,1
-0.0001713648,1.9224e-05,4,1
-7.007399e-05,-5.338126e-05,4,1
2.829966e-05,-0.0001041077,4,1
0.0001137081,-0.0001280934,4,1
0.0001825859,-0.0001255003,4,1
0.0002372019,-0.0001007043,4,1
0.0002817699,-6.602235e-05,4,1
0.0003140208,-3.911951e-05,4,1
0.0003276344,-3.377136e-05,4,1
0.0003145071,-5.516398e-05,4,1
0.000282256,-9.746302e-05,4,1
0.0002558394,-0.0001515928,4,1
0.0002681563,-0.0002058847,4,1
0.0003401134,-0.0002507768,4,1
0.0004618245,-0.0002788141,4,1
0.0005880735,-0.0002891863,4,1
0.0006660269,-0.0002814071,4,1
0.0006524134,-0.0002546664,4,1
0.0005357263,-0.0002130156,4,1
0.0003412479,-0.0001665028,4,1
0.0001174356,-0.0001269589,4,1
-8.530812e-05,-0.0001044318,4,1
-0.0002300324,-9.875954e-05,4,1
-0.0003023136,-0.0001052422,4,1
-0.000310741,-0.0001186936,4,1
-0.0002773555,-0.0001337657,4,1
-0.0002290601,-0.0001413827,4,1
-0.0001872472,-0.0001313347,4,1
-0.0001618029,-9.778715e-05,4,1
-0.0001460826,-4.722278e-05,4,1
-0.0001295519,3.665733e-06,4,1
-9.908367e-05,3.024445e-05,4,1
-5.370539e-05,1.59827e-05,4,1
-8.651231e-06,-3.960571e-05,4,1
2.441009e-05,-0.0001141558,4,1
4.320967e-05,-0.0001715269,4,1
4.953022e-05,-0.0001781716,4,1
4.677511e-05,-0.0001255003,4,1
3.850978e-05,-2.971972e-05,4,1
2.359977e-05,7.967438e-05,4,1
7.485573e-07,0.000177886,4,1
-4.009191e-05,0.0002496809,4,1
-0.0001029732,0.0002872801,4,1
-0.0001775233,0.0002900352,4,1
-0.0002493182,0.0002610255,4,1
-0.0003062031,0.0002117576,4,1
-0.0003358611,0.0001616794,4,1
-0.000330675,0.0001260251,4,1
-0.0002903207,0.0001161391,4,1
-0.0002267911,0.0001305629,4,1
-0.0001566169,0.0001589243,4,1
-9.875954e-05,0.0001900409,4,1
-6.051213e-05,0.0002083542,4,1
-3.798505e-05,0.0002047888,4,1
-2.42095e-05,0.0001759412,4,1
-5.085794e-06,0.0001257009,4,1
3.818565e-05,6.476436e-05,4,1
0.0001148425,9.824215e-06,4,1
0.0002137024,-2.7937e-05,4,1
0.0003078624,-4.544006e-05,4,1
0.0003662059,-4.511593e-05,4,1
0.0003634508,-2.809907e-05,4,1
0.0002833905,-5.734056e-06,4,1
0.0001266733,9.500085e-06,4,1
-7.947377e-05,1.193106e-05,4,1
-0.000286107,3.179537e-06,4,1
-0.0004390967,-1.156841e-05,4,1
-0.0005102433,-3.020592e-05,4,1
-0.0005027883,-4.884343e-05,4,1
-0.0004376381,-6.164659e-05,4,1
-0.00033813,-6.731888e-05,4,1
-0.0002245222,-6.845333e-05,4,1
-0.0001060525,-6.521203e-05,4,1
1.9224e-05,-5.727083e-05,4,1
0.0001545486,-4.819517e-05,4,1
0.0003033245,-4.025397e-05,4,1
0.0004563143,-3.522994e-05,4,1
0.0005950422,-3.328516e-05,4,1
0.0007052467,-3.522994e-05,4,1
0.0007882243,-3.798505e-05,4,1
0.000859533,-3.26369e-05,4,1
0.0009308419,-1.432352e-05,4,1
0.0009963163,1.59827e-05,4,1
0.001043639,4.871989e-05,4,1
0.001060008,7.351589e-05,4,1
0.001036995,8.42122e-05,4,1
0.0009784892,8.340187e-05,4,1
0.0008985908,7.57848e-05,4,1
0.0008071859,6.330578e-05,4,1
0.0006995744,4.985435e-05,4,1
0.0005634395,4.45062e-05,4,1
0.0003942432,5.52025e-05,4,1
0.0002043026,8.259155e-05,4,1
1.857574e-05,0.0001200286,4,1
-0.0001327933,0.0001584381,4,1
-0.0002274394,0.0001884202,4,1
-0.0002609869,0.0002015475,4,1
-0.0002543422,0.0001947408,4,1
-0.0002358668,0.0001717275,4,1
-0.0002345703,0.0001443384,4,1
-0.0002752487,0.0001271595,4,1
-0.0003632501,0.0001297526,4,1
-0.0004792889,0.0001475797,4,1
-0.0005854416,0.0001701068,4,1
-0.0006494574,0.0001906891,4,1
-0.0006625847,0.0002033302,4,1
-0.0006394094,0.0002080301,4,1
-0.0006018102,0.000202682,4,1
-0.000561456,0.0001908512,4,1
-0.0005172121,0.0001808031,4,1
-0.000469727,0.0001777239,4,1
-0.0004287245,0.000177886,4,1
-0.0004042526,0.0001759412,4,1
-0.0003925839,0.000168,4,1
-0.0003916115,0.0001521176,4,1
-0.0004112214,0.0001338042,4,1
-0.0004608134,0.0001187321,4,1
-0.0005277464,0.0001054428,4,1
-0.0005752315,8.631905e-05,4,1
-0.0005697213,4.855783e-05,4,1
-0.0005026262,-8.813297e-06,4,1
-0.0003906392,-7.461182e-05,4,1
-0.0002645523,-0.0001368449,4,1
-0.0001498101,-0.0001827094,4,1
-5.905355e-05,-0.0002028055,4,1
1.257933e-05,-0.0001968091,4,1
7.935024e-05,-0.0001724993,4,1
0.0001561692,-0.0001418689,4,1
0.0002506533,-0.0001177212,4,1
0.0003631267,-0.0001067007,4,1
0.0004827309,-0.0001083214,4,1
0.0005973112,-0.0001118868,4,1
0.0006917953,-0.0001071869,4,1
0.0007571077,-9.017008e-05,4,1
0.0007921138,-6.472583e-05,4,1
0.0008052412,-3.960571e-05,4,1
0.0008021619,-2.388537e-05,4,1
0.0007773659,-2.177852e-05,4,1
0.000715781,-3.150244e-05,4,1
0.0006107626,-5.143648e-05,4,1
0.0004673347,-7.866345e-05,4,1
0.000307052,-0.0001107524,4,1
0.0001613553,-0.0001464067,4,1
5.325772e-05,-0.0001814128,4,1
-6.868513e-06,-0.000213988,4,1
-1.594417e-05,-0.0002454286,4,1
2.149292e-05,-0.0002744383,4,1
9.896015e-05,-0.0003029619,4,1
0.0002007372,-0.0003337542,4,1
0.0003038107,-0.0003634122,4,1
0.0003833848,-0.0003924218,4,1
0.0004256839,-0.0004152731,4,1
0.0004318424,-0.0004264556,4,1
0.0004203358,-0.0004245108,4,1
0.0004081808,-0.0004167317,4,1
0.0003958639,-0.0004045768,4,1
0.000373985,-0.000387884,4,1
0.0003430306,-0.00036795,4,1
0.0003127243,-0.0003465574,4,1
0.0002793389,-0.0003201407,4,1
0.0002281262,-0.0002854588,4,1
0.0001393144,-0.0002472114,4,1
1.209313e-05,-0.0002086398,4,1
-0.0001397621,-0.0001679614,4,1
-0.0002963172,-0.0001209625,4,1
-0.0004387725,-6.634648e-05,4,1
-0.0005523803,-8.165035e-06,4,1
-0.0006220684,4.402e-05,4,1
-0.0006420024,8.275361e-05,4,1
-0.0006290372,0.0001096565,4,1
-0.0006044033,0.0001334801,4,1
-0.0005737729,0.0001589243,4,1
-0.0005339049,0.0001882582,4,1
-0.0004839888,0.0002164575,4,1
-0.0004266177,0.0002394708,4,1
-0.0003676259,0.000257298,4,1
-0.0003102548,0.0002713977,4,1
-0.0002629317,0.0002882525,4,1
-0.0002344082,0.000314345,4,1
-0.0002277635,0.0003498373,4,1
-0.0002326255,0.0003856538,4,1
-0.0002300324,0.0004089912,4,1
-0.0002100984,0.0004132049,4,1
-0.0001786577,0.0003992672,4,1
-0.0001548341,0.0003736609,4,1
-0.000159372,0.0003477304,4,1
-0.0002008607,0.0003290929,4,1
-0.0002668213,0.000316776,4,1
-0.0003251648,0.0003046211,4,1
-0.0003476919,0.0002887387,4,1
-0.0003254889,0.0002681563,4,1
-0.0002715212,0.0002420638,4,1
-0.0002133397,0.0002125679,4,1
-0.0001771992,0.0001788584,4,1
-0.0001755785,0.0001363972,4,1
-0.0002031296,8.405014e-05,4,1
-0.0002404046,3.121684e-05,4,1
-0.0002640662,-6.868513e-06,4,1
-0.0002601766,-2.064406e-05,4,1
-0.000226467,-1.059602e-05,4,1
-0.000181737,1.257933e-05,4,1
-0.0001509446,2.959619e-05,4,1
-0.0001577513,2.376183e-05,4,1
-0.000209126,-5.89612e-06,4,1
-0.0002903207,-4.722278e-05,4,1
-0.0003734602,-7.947377e-05,4,1
-0.0004314796,-8.741498e-05,4,1
-0.0004595169,-6.667062e-05,4,1
-0.0004731304,-2.550602e-05,4,1
-0.0004859335,2.084466e-05,4,1
-0.0004954954,5.552663e-05,4,1
-0.0004869059,6.914012e-05,4,1
-0.0004460655,6.638502e-05,4,1
-0.0003674638,5.860588e-05,4,1
-0.0002558008,5.260946e-05,4,1
-0.0001308485,5.228533e-05,4,1
-1.886135e-05,5.244739e-05,4,1
6.83298e-05,4.35338e-05,4,1
0.0001294284,1.744129e-05,4,1
0.0001752929,-2.485776e-05,4,1
0.0002211574,-7.218083e-05,4,1
0.0002798251,-0.0001078352,4,1
0.0003579406,-0.0001214487,4,1
0.0004477248,-0.0001086455,4,1
0.0005336195,-6.893953e-05,4,1
0.0006000663,-9.623623e-06,4,1
0.000636531,6.492643e-05,4,1
0.0006394482,0.0001475797,4,1
0.0006180556,0.0002326641,4,1
0.0005856425,0.0003101313,4,1
0.000544802,0.0003702575,4,1
0.0004965065,0.0004070464,4,1
0.0004446456,0.0004198496,4,1
0.000388895,0.0004106118,4,1
0.0003303894,0.000388895,4,1
0.0002668598,0.0003649094,4,1
0.0001966855,0.0003427064,4,1
0.0001247285,0.0003115899,4,1
5.439218e-05,0.0002535705,4,1
-1.399939e-05,0.0001645966,4,1
-7.963584e-05,5.649903e-05,4,1
-0.0001336036,-4.576419e-05,4,1
-0.0001624512,-0.0001229073,4,1
-0.0001608306,-0.0001702304,4,1
-0.0001352242,-0.0001940539,4,1
-0.0001016767,-0.0002050744,4,1
-8.417367e-05,-0.0002144742,4,1
-0.0001032974,-0.0002282497,4,1
-0.0001528894,-0.000248832,4,1
-0.0002131776,-0.0002690902,4,1
-0.0002592042,-0.0002825416,4,1
-0.000271197,-0.0002840002,4,1
-0.0002465631,-0.000271197,4,1
-0.000196647,-0.0002418632,4,1
-0.0001383035,-0.0002002124,4,1
-8.222889e-05,-0.0001559686,4,1
-2.988179e-05,-0.0001201522,4,1
2.165498e-05,-0.0001032974,4,1
7.983644e-05,-0.0001034594,4,1
0.0001477418,-0.0001125351,4,1
0.0002195368,-0.0001199901,4,1
0.0002900352,-0.0001203142,4,1
0.000354051,-0.0001139937,4,1
0.0004025085,-0.0001039456,4,1
0.0004268184,-9.033215e-05,4,1
0.0004300596,-7.104638e-05,4,1
0.0004206599,-4.398147e-05,4,1
0.0004088291,-1.318906e-05,4,1
0.0004086671,1.695509e-05,4,1
0.0004302217,3.786152e-05,4,1
0.0004717105,4.320967e-05,4,1
0.0005264886,3.397195e-05,4,1
0.0005827253,9.66215e-06,4,1
0.0006229175,-3.166451e-05,4,1
0.0006256726,-8.871149e-05,4,1
0.0005835356,-0.0001532135,4,1
0.0005041235,-0.0002136638,4,1
0.0004125566,-0.0002634179,4,1
0.0003402755,-0.0002948586,4,1
0.000304459,-0.0003050687,4,1
0.0002991108,-0.0002932379,4,1
0.000304297,-0.0002582318,4,1
0.0002966799,-0.0002058847,4,1
0.0002649151,-0.0001452723,4,1
0.0002141886,-8.595638e-05,4,1
0.0001540623,-3.522994e-05,4,1
9.085688e-05,1.558884e-06,4,1
2.959619e-05,1.987227e-05,4,1
-2.745081e-05,1.630683e-05,4,1
-8.709085e-05,-8.489166e-06,4,1
-0.0001580754,-5.59743e-05,4,1
-0.000251263,-0.0001180453,4,1
-0.0003713534,-0.0001883817,4,1
-0.0005138087,-0.0002598524,4,1
-0.0006573986,-0.0003173856,4,1
-0.0007708443,-0.0003450988,4,1
-0.0008306464,-0.000335537,4,1
-0.0008335636,-0.0002946965,4,1
-0.0007945059,-0.0002391081,4,1
-0.0007372968,-0.0001783336,4,1
-0.0006784671,-0.0001191798,4,1
-0.0006283889,-6.099833e-05,4,1
-0.0005883588,-8.975362e-06,4,1
-0.0005535148,3.283749e-05,4,1
-0.0005154294,6.055066e-05,4,1
-0.0004624341,7.011252e-05,4,1
-0.0003848048,6.670914e-05,4,1
-0.0002872415,6.444023e-05,4,1
-0.0001831956,7.416415e-05,4,1
-9.227693e-05,8.712937e-05,4,1
-2.599222e-05,9.199134e-05,4,1
1.614476e-05,8.323981e-05,4,1
4.580272e-05,6.055066e-05,4,1
7.319176e-05,2.522042e-05,4,1
0.0001057669,-1.124428e-05,4,1
0.0001448246,-3.652646e-05,4,1
0.0001914995,-4.025397e-05,4,1
0.0002487085,-2.323711e-05,4,1
0.0003198552,1.193106e-05,4,1
0.0004081808,5.649903e-05,4,1
0.0005057442,0.0001049566,4,1
0.0005905044,0.0001592484,4,1
0.0006344241,0.0002206712,4,1
0.0006225934,0.0002874421,4,1
0.0005610085,0.0003553475,4,1
0.0004756001,0.0004206599,4,1
0.0004042913,0.0004798138,4,1
0.0003778746,0.0005297299,4,1
0.000411098,0.000564574,4,1
0.0004898618,0.0005760806,4,1
0.0005799701,0.0005601982,4,1
0.0006360448,0.0005193577,4,1
0.0006237278,0.000463121,4,1
0.0005297299,0.0003963501,4,1
0.0003754436,0.0003214759,4,1
0.0002068957,0.0002419018,4,1
7.221937e-05,0.0001675138,4,1
-4.437533e-06,0.0001112771,4,1
-2.680255e-05,7.951231e-05,4,1
-1.707863e-05,7.20573e-05,4,1
1.558884e-06,8.518459e-05,4,1
6.744974e-06,0.0001172735,4,1
-1.902341e-05,0.0001615174,4,1
-8.498399e-05,0.0002112714,4,1
-0.000186761,0.0002587566,4,1
-0.0003096065,0.0002937627,4,1
-0.000435045,0.0003114278,4,1
-0.0005457356,0.0003085106,4,1
-0.0006322784,0.0002884145,4,1
-0.0006932151,0.0002594049,4,1
-0.0007324349,0.0002310434,4,1
-0.0007593377,0.0002043026,4,1
-0.0007838095,0.0001765894,4,1
-0.000819626,0.0001415833,4,1
-0.0008653284,0.0001007429,4,1
-0.0008974173,6.314371e-05,4,1
-0.0008912588,3.867184e-05,4,1
-0.0008356704,3.170304e-05,4,1
-0.0007591756,3.737532e-05,4,1
-0.0007095836,4.839576e-05,4,1
-0.0007184973,6.03886e-05,4,1
-0.0007757063,7.043665e-05,4,1
-0.0008324291,7.67572e-05,4,1
-0.0008334015,7.481241e-05,4,1
-0.0007450759,6.119892e-05,4,1
-0.0005632387,3.60788e-05,4,1
-0.0003123616,3.665733e-06,4,1
-1.805102e-05,-2.89094e-05,4,1
0.0002968419,-5.500191e-05,4,1
0.0006183797,-7.493595e-05,4,1
0.0009447795,-8.82253e-05,4,1
0.00127199,-9.730096e-05,4,1
0.001582994,-0.0001075111,4,1
0.001851861,-0.0001263107,4,1
0.002053309,-0.0001549962,4,1
0.002163514,-0.0001864369,4,1
0.002168538,-0.0002094502,4,1
0.002065302,-0.00021415,4,1
0.001864016,-0.0002036158,4,1
0.001590611,-0.0001853024,4,1
0.00128301,-0.0001640719,4,1
0.0009828649,-0.0001361966,4,1
0.0007063812,-9.486997e-05,4,1
0.0004538833,-3.863332e-05,4,1
0.0002242366,2.133085e-05,4,1
3.348575e-05,7.189524e-05,4,1
-9.811128e-05,0.0001004187,4,1
-0.0001626133,9.652917e-05,4,1
-0.0001653684,6.233338e-05,4,1
-0.0001293899,3.503668e-06,4,1
-8.984595e-05,-7.104638e-05,4,1
-7.315322e-05,-0.0001475412,4,1
-7.704279e-05,-0.0002162569,4,1
-7.493595e-05,-0.0002695764,4,1
-3.976777e-05,-0.00030831,4,1
2.635488e-05,-0.0003373197,4,1
9.26396e-05,-0.0003575778,4,1
0.0001273216,-0.0003682741,4,1
0.0001154908,-0.000370381,4,1
6.314371e-05,-0.0003660052,4,1
-1.788895e-05,-0.0003562813,4,1
-0.0001212866,-0.0003436402,4,1
-0.0002447804,-0.0003284061,4,1
-0.0003873979,-0.0003138202,4,1
-0.0005460597,-0.0003040963,4,1
-0.0007108802,-0.0003013411,4,1
-0.000866949,-0.000300855,4,1
-0.001001949,-0.0002948586,4,1
-0.001108913,-0.0002793003,4,1
-0.001178438,-0.0002548284,4,1
-0.001203235,-0.0002227395,4,1
-0.001192214,-0.0001859507,4,1
-0.001158018,-0.0001454344,4,1
-0.001107778,-0.000102325,4,1
-0.001042952,-5.59743e-05,4,1
-0.0009727777,-8.327101e-06,4,1
-0.0009079515,3.737532e-05,4,1
-0.0008478253,7.643307e-05,4,1
-0.00077992,0.0001072255,4,1
-0.0006993735,0.0001344524,4,1
-0.0006154237,0.0001613553,4,1
-0.0005387668,0.0001859892,4,1
-0.0004802613,0.0002062474,4,1
-0.0004361795,0.0002196988,4,1
-0.0003839945,0.0002278021,4,1
-0.0002995585,0.0002333123,4,1
-0.0001815749,0.0002378501,4,1
-5.500191e-05,0.0002427121,4,1
4.596478e-05,0.0002477361,4,1
0.0001056048,0.0002496809,4,1
0.0001362352,0.0002436845,4,1
0.0001628139,0.000225209,4,1
0.0002018716,0.0001955511,4,1
0.0002466017,0.0001620036,4,1
0.0002762596,0.000133318,4,1
0.00027707,0.0001141943,4,1
0.0002517878,0.0001064152,4,1
0.0002206712,0.000106091,4,1
0.0001970097,0.0001099806,4,1
0.0001799928,0.000113384,4,1
0.0001615174,0.0001158149,4,1
0.000138342,0.0001185701,4,1
0.0001064152,0.0001188942,4,1
6.476436e-05,0.0001153287,4,1
1.403791e-05,0.0001103047,4,1
-4.025397e-05,0.0001072255,4,1
-8.579432e-05,0.0001052807,4,1
-0.0001120489,0.0001020394,4,1
-0.0001151281,9.442231e-05,4,1
-9.697683e-05,8.453633e-05,4,1
-6.537409e-05,7.20573e-05,4,1
-3.117831e-05,5.828175e-05,4,1
-6.706447e-06,4.126489e-05,4,1
-8.720959e-07,2.100672e-05,4,1
-1.464765e-05,-3.858999e-07,4,1
-3.717473e-05,-1.869928e-05,4,1
-5.013995e-05,-3.296103e-05,4,1
-3.668853e-05,-4.236082e-05,4,1
1.22552e-05,-4.738484e-05,4,1
9.247754e-05,-4.884343e-05,4,1
0.0001799928,-4.673658e-05,4,1
0.0002420638,-4.252288e-05,4,1
0.0002568118,-3.976777e-05,4,1
0.0002263435,-4.074016e-05,4,1
0.0001723757,-4.657452e-05,4,1
0.0001200286,-5.208474e-05,4,1
7.67572e-05,-5.030202e-05,4,1
3.332369e-05,-3.312309e-05,4,1
-2.955766e-05,-3.303076e-06,4,1
-0.0001164247,2.910999e-05,4,1
-0.0002086398,5.017848e-05,4,1
-0.0002778417,4.920609e-05,4,1
-0.0003100927,2.39239e-05,4,1
-0.0003063652,-1.886135e-05,4,1
-0.0002734659,-6.602235e-05,4,1
-0.0002133397,-0.0001131834,4,1
-0.0001251762,-0.0001580754,4,1
-8.651231e-06,-0.0001953505,4,1
0.0001315353,-0.0002227395,4,1
0.0002853353,-0.0002366771,4,1
0.0004409181,-0.0002394322,4,1
0.000589532,-0.0002378116,4,1
0.0007295565,-0.0002344082,4,1
0.0008533746,-0.0002342462,4,1
0.0009496415,-0.0002342462,4,1
0.001007499,-0.000231491,4,1
0.001019978,-0.0002212809,4,1
0.0009948577,-0.000201671,4,1
0.0009519104,-0.0001763888,4,1
0.0009118802,-0.0001535376,4,1
0.0008874084,-0.0001384655,4,1
0.0008862739,-0.0001310105,4,1
0.0009173905,-0.000127121,4,1
0.0009817304,-0.0001182074,4,1
0.001058225,-9.859748e-05,4,1
0.001107655,-6.375344e-05,4,1
0.001097445,-1.399939e-05,4,1
0.001022733,4.580272e-05,4,1
0.0008959978,0.0001062531,4,1
0.0007396046,0.0001564933,4,1
0.000572191,0.000190365,4,1
0.0004065602,0.0002062474,4,1
0.0002307193,0.0002135403,4,1
1.338965e-05,0.0002221298,4,1
-0.0002558008,0.0002420638,4,1
-0.0005497872,0.000274801,4,1
-0.0008214086,0.0003136967,4,1
-0.001024801,0.0003498373,4,1
-0.001133384,0.0003775505,4,1
-0.001150239,0.0003971604,4,1
-0.001102268,0.0004117463,4,1
-0.00102399,0.0004271425,4,1
-0.0009434438,0.0004428628,4,1
-0.0008721352,0.000453235,4,1
-0.0008092538,0.0004514523,4,1
-0.0007345417,0.0004341113,4,1
-0.0006227166,0.0004062361,4,1
-0.000457248,0.0003743092,4,1
-0.000248832,0.0003423823,4,1
-3.198864e-05,0.0003047831,4,1
0.0001542244,0.0002529222,4,1
0.0002832284,0.000185503,4,1
0.0003475684,0.0001125736,4,1
0.000361506,5.098881e-05,4,1
0.0003524304,1.355172e-05,4,1
0.0003422202,2.855407e-06,4,1
0.0003321722,1.59827e-05,4,1
0.0003051073,4.661304e-05,4,1
0.0002477361,8.939829e-05,4,1
0.0001624898,0.0001346145,4,1
5.698522e-05,0.0001739964,4,1
-5.727083e-05,0.0001997648,4,1
-0.0001592099,0.0002055991,4,1
-0.000223874,0.0001918236,4,1
-0.0002292221,0.0001637863,4,1
-0.0001655305,0.0001318594,4,1
-4.414354e-05,0.0001054428,4,1
9.588091e-05,8.923623e-05,4,1
0.0002023578,7.740546e-05,4,1
0.000234933,6.071273e-05,4,1
0.000187772,3.60788e-05,4,1
8.340187e-05,4.80019e-06,4,1
-4.300908e-05,-3.231277e-05,4,1
-0.0001549962,-6.845333e-05,4,1
-0.0002279256,-9.827335e-05,4,1
-0.0002480217,-0.0001193418,4,1
-0.0002185258,-0.0001303623,4,1
-0.000156941,-0.0001311726,4,1
-9.098041e-05,-0.000127283,4,1
-5.078821e-05,-0.0001274451,4,1
-4.689865e-05,-0.0001326312,4,1
-6.278104e-05,-0.0001407345,4,1
-7.444975e-05,-0.0001506204,4,1
-6.650855e-05,-0.0001574272,4,1
-3.231277e-05,-0.000161965,4,1
2.181705e-05,-0.0001684476,4,1
8.340187e-05,-0.0001835197,4,1
0.000138342,-0.0002094502,4,1
0.0001819376,-0.0002431597,4,1
0.0002172679,-0.0002796244,4,1
0.0002525981,-0.0003102548,4,1
0.0002957075,-0.0003275957,4,1
0.0003462718,-0.0003288923,4,1
0.0003991052,-0.0003152788,4,1
0.00044578,-0.0002966413,4,1
0.0004733311,-0.0002805968,4,1
0.0004645796,-0.0002677937,4,1
0.0004081808,-0.0002582318,4,1
0.0003072141,-0.0002543422,4,1
0.0001762653,-0.0002616352,4,1
3.672706e-05,-0.0002854588,4,1
-8.919769e-05,-0.0003293785,4,1
-0.000191623,-0.0003849669,4,1
-0.0002757348,-0.0004366657,4,1
-0.0003501228,-0.0004698891,4,1
-0.0004157593,-0.0004760476,4,1
-0.0004645409,-0.0004588687,4,1
-0.0005006815,-0.0004264556,4,1
-0.0005382806,-0.000390315,4,1
-0.0005940311,-0.0003566054,4,1
-0.000675712,-0.0003219235,4,1
-0.0007744097,-0.0002827037,4,1
-0.000861925,-0.0002295462,4,1
-0.0009087619,-0.0001601823,4,1
-0.0008979035,-7.979791e-05,4,1
-0.0008285395,1.234753e-06,4,1
-0.0007048837,7.367795e-05,4,1
-0.0005321222,0.0001354248,4,1
-0.0003188442,0.0001898788,4,1
-8.871149e-05,0.0002407673,4,1
0.0001163011,0.0002923041,4,1
0.0002537325,0.0003456236,4,1
0.0003052694,0.0003989431,4,1
0.0002877662,0.0004543695,4,1
0.0002360674,0.000509958,4,1
0.0001837203,0.0005611706,4,1
0.0001490383,0.0005986077,4,1
0.0001316974,0.0006175694,4,1
0.0001182459,0.0006151384,4,1
9.296373e-05,0.0005903424,4,1
5.19612e-05,0.0005496639,4,1
4.638125e-06,0.0005013684,4,1
-3.555408e-05,0.0004525868,4,1
-6.974985e-05,0.0003995914,4,1
-0.0001173971,0.0003337929,4,1
-0.0001995642,0.0002516257,4,1
-0.0003180339,0.0001574657,4,1
-0.0004518998,6.314371e-05,4,1
-0.0005668041,-1.853722e-05,4,1
-0.0006334129,-8.02841e-05,4,1
-0.0006411921,-0.0001167488,4,1
-0.000593869,-0.0001305243,4,1
-0.0005040849,-0.0001276072,4,1
-0.0003882082,-0.0001182074,4,1
-0.0002601766,-0.0001110765,4,1
-0.0001311726,-0.0001091317,4,1
-1.545797e-05,-0.0001117248,4,1
7.481241e-05,-0.0001185315,4,1
0.0001344524,-0.0001267968,4,1
0.000165569,-0.0001342519,4,1
0.0001833962,-0.0001408965,4,1
0.0002070577,-0.0001509446,4,1
0.0002563256,-0.0001677994,4,1
0.0003346032,-0.000191623,4,1
0.0004247115,-0.000223874,4,1
0.0004971547,-0.0002640662,4,1
0.0005271368,-0.0003081479,4,1
0.0005117406,-0.000350447,4,1
0.0004639314,-0.0003814014,4,1
0.0004028327,-0.0003924218,4,1
0.0003427064,-0.0003784843,4,1
0.000294573,-0.0003376438,4,1
0.0002676702,-0.0002757348,4,1
0.0002705873,-0.0001998883,4,1
0.000304297,-0.0001144799,4,1
0.000353889,-2.323711e-05,4,1
0.0003900295,6.476436e-05,4,1
0.0003919743,0.0001378558,4,1
0.000356482,0.000190365,4,1
0.0002942489,0.0002286124,4,1
0.0002245608,0.000262322,4,1
0.0001620036,0.0002991108,4,1
0.0001140322,0.0003381686,4,1
7.789165e-05,0.0003728506,4,1
4.466826e-05,0.000401212,4,1
3.179537e-06,0.0004239012,4,1
-5.013995e-05,0.0004420525,4,1
-0.0001054042,0.0004533971,4,1
-0.0001473791,0.0004571246,4,1
-0.0001639098,0.0004488593,4,1
-0.0001527273,0.0004217943,4,1
-0.0001208004,0.0003754436,4,1
-7.882551e-05,0.0003187208,4,1
-3.458168e-05,0.0002628082,4,1
1.144487e-05,0.0002164575,4,1
5.925414e-05,0.0001782101,4,1
0.0001007429,0.0001498487,4,1
0.0001257009,0.0001325077,4,1
0.0001295905,0.0001214872,4,1
0.000120839,0.0001094944,4,1
0.0001114392,9.101894e-05,4,1
0.0001101427,6.265751e-05,4,1
0.0001286181,3.008238e-05,4,1
0.0001720516,-8.720959e-07,4,1
0.0002407673,-3.134038e-05,4,1
0.0003284447,-6.116039e-05,4,1
0.0004162841,-8.806324e-05,4,1
0.000482893,-0.0001081593,4,1
0.0005130371,-0.0001178833,4,1
0.0005094717,-0.0001175591,4,1
0.0004890515,-0.0001126972,4,1
0.0004683071,-0.0001112386,4,1
0.0004509661,-0.0001188556,4,1
0.0004281149,-0.0001329553,4,1
0.0003971604,-0.0001483515,4,1
0.0003592371,-0.0001666649,4,1
0.0003171001,-0.000189192,4,1
0.0002720459,-0.0002123673,4,1
0.0002245608,-0.000221605,4,1
0.0001726999,-0.0002055606,4,1
0.0001167873,-0.000159372,4,1
6.930219e-05,-9.130454e-05,4,1
5.115087e-05,-1.62683e-05,4,1
7.6271e-05,5.212327e-05,4,1
0.0001367214,0.0001054428,4,1
0.0002090025,0.0001370455,4,1
0.0002613496,0.0001490383,4,1
0.0002624841,0.0001449867,4,1
0.0001921477,0.0001305629,4,1
5.309566e-05,0.0001067393,4,1
-0.0001336036,7.513654e-05,4,1
-0.0003368335,3.494434e-05,4,1
-0.0005270981,-8.975362e-06,4,1
-0.0006907841,-5.046408e-05,4,1
-0.0008210845,-7.817725e-05,4,1
-0.0009077895,-8.757704e-05,4,1
-0.0009447403,-8.465986e-05,4,1
-0.0009296683,-8.239095e-05,4,1
-0.0008706765,-8.887356e-05,4,1
-0.0007860785,-0.0001029732,4,1
-0.0007001839,-0.0001195039,4,1
-0.0006334129,-0.0001316588,4,1
-0.0005797693,-0.0001361966,4,1
-0.0005104054,-0.0001342519,4,1
-0.0004006872,-0.0001292278,4,1
-0.0002408908,-0.0001276072,4,1
-4.236082e-05,-0.0001310105,4,1
0.0001623277,-0.0001386276,4,1
0.0003362238,-0.0001433275,4,1
0.0004540453,-0.0001379794,4,1
0.0005133613,-0.0001208004,4,1
0.0005261644,-9.827335e-05,4,1
0.0005046097,-7.866345e-05,4,1
0.0004563143,-6.537409e-05,4,1
0.0003854917,-5.824322e-05,4,1
0.0003025142,-5.64605e-05,4,1
0.0002135403,-6.326724e-05,4,1
0.0001253768,-8.093236e-05,4,1
4.418206e-05,-0.0001058904,4,1
-1.610624e-05,-0.0001319829,4,1
-4.738484e-05,-0.0001546721,4,1
-5.32192e-05,-0.0001723372,4,1
-4.560212e-05,-0.0001791439,4,1
-3.782299e-05,-0.0001661787,4,1
-3.733679e-05,-0.0001308485,4,1
-4.527799e-05,-7.33153e-05,4,1
-5.565017e-05,-3.465141e-06,4,1
-6.342931e-05,6.427817e-05,4,1
-7.315322e-05,0.0001166253,4,1
-8.919769e-05,0.0001493625,4,1
-0.0001057284,0.0001667035,4,1
-0.0001031353,0.0001769136,4,1
-5.872941e-05,0.0001918236,4,1
3.802358e-05,0.0002221298,4,1
0.0001858272,0.0002712356,4,1
0.000371392,0.0003295791,4,1
0.0005537156,0.0003809539,4,1
0.0006760749,0.0004102877,4,1
0.0006968193,0.0004123946,4,1
0.0006135177,0.000393757,4,1
0.0004637693,0.0003634508,4,1
0.0003036487,0.0003313618,4,1
0.0001743205,0.0003018659,4,1
9.31258e-05,0.0002751252,4,1
5.082674e-05,0.0002516257,4,1
2.149292e-05,0.0002334744,4,1
-3.117831e-05,0.0002218057,4,1
-0.0001353863,0.0002158093,4,1
-0.0003026377,0.0002132162,4,1
-0.0005167259,0.0002106232,4,1
-0.0007356761,0.000210137,4,1
-0.0009111929,0.0002111094,4,1
-0.001009404,0.0002158093,4,1
-0.001025125,0.0002278021,4,1
-0.0009684019,0.0002457913,4,1
-0.0008573871,0.0002658874,4,1
-0.0007134732,0.0002812837,4,1
-0.0005552975,0.0002890628,4,1
-0.0003967976,0.000284525,4,1
-0.0002391081,0.000264753,4,1
-7.979791e-05,0.0002289366,4,1
7.643307e-05,0.0001783722,4,1
0.0002260194,0.0001222976,4,1
0.0003634508,6.573675e-05,4,1
0.000482893,8.689758e-06,4,1
0.0005786736,-4.90055e-05,4,1
0.0006475514,-0.0001078352,4,1
0.000688554,-0.0001605064,4,1
0.0006986021,-0.0002000504,4,1
0.0006773715,-0.0002230636,4,1
0.0006277795,-0.0002316531,4,1
0.0005504743,-0.0002337599,4,1
0.0004511282,-0.0002392702,4,1
0.0003410858,-0.0002501286,4,1
0.0002221298,-0.0002652006,4,1
9.960841e-05,-0.0002809209,4,1
-1.918548e-05,-0.0002950206,4,1
-0.0001225832,-0.0003026377,4,1
-0.0002008607,-0.0003024756,4,1
-0.0002473734,-0.0002966413,4,1
-0.0002721694,-0.0002911311,4,1
-0.000293562,-0.0002880518,4,1
-0.0003275957,-0.0002872415,4,1
-0.0003724878,-0.000285945,4,1
-0.0004237005,-0.0002802727,4,1
-0.0004705373,-0.0002695764,4,1
-0.0004972781,-0.0002579077,4,1
-0.0004893369,-0.0002493182,4,1
-0.0004429862,-0.0002433218,4,1
-0.0003674638,-0.000233922,4,1
-0.0002791382,-0.0002170672,4,1
-0.0002011848,-0.0001972953,4,1
-0.0001558065,-0.0001822232,4,1
-0.0001532135,-0.0001755785,4,1
-0.0001825473,-0.0001776853,4,1
-0.0002251705,-0.0001815749,4,1
-0.0002590421,-0.0001789819,4,1
-0.0002705488,-0.0001716889,4,1
-0.0002541802,-0.0001650443,4,1
-0.0002146363,-0.0001655305,4,1
-0.0001663408,-0.0001741199,4,1
-0.0001229073,-0.0001911368,4,1
-8.692878e-05,-0.0002107467,4,1
-5.111234e-05,-0.0002222533,4,1
-1.156841e-05,-0.0002182017,4,1
3.024445e-05,-0.0001979435,4,1
6.41161e-05,-0.0001661787,4,1
8.307774e-05,-0.0001302002,4,1
7.837785e-05,-9.713889e-05,4,1
3.640293e-05,-6.764301e-05,4,1
-5.32192e-05,-4.300908e-05,4,1
-0.0001786577,-1.950961e-05,4,1
-0.0003042584,1.063454e-05,4,1
-0.0003862634,5.341979e-05,4,1
-0.0003909633,0.0001077117,4,1
-0.0003052308,0.0001636242,4,1
-0.0001365208,0.0002107852,4,1
9.150514e-05,0.0002453052,4,1
0.000341734,0.0002655633,4,1
0.0005789978,0.0002731804,4,1
0.0007817416,0.0002699391,4,1
0.0009404037,0.0002613496,4,1
0.001051581,0.0002555152,4,1
0.001118028,0.0002577842,4,1
0.001158706,0.0002644289,4,1
0.00119436,0.0002736666,4,1
0.001234067,0.0002874421,4,1
0.001270693,0.0003051073,4,1
0.0012869,0.0003229345,4,1
0.001259511,0.0003409237,4,1
0.00117313,0.0003593992,4,1
0.001030836,0.000378685,4,1
0.0008579124,0.0003960259,4,1
0.0006896885,0.0004067223,4,1
0.0005590637,0.0004075326,4,1
0.0004814344,0.0004005638,4,1
0.0004478869,0.0003843572,4,1
0.0004329769,0.0003595612,4,1
0.0003999155,0.0003269861,4,1
0.0003188828,0.000289387,4,1
0.0001809652,0.0002501671,4,1
-2.492749e-06,0.0002111094,4,1
-0.0002052365,0.0001712413,4,1
-0.0004049009,0.0001316974,4,1
-0.0005894933,9.490851e-05,4,1
-0.0007606342,6.395404e-05,4,1
-0.0009243201,3.769945e-05,4,1
-0.001078282,1.387585e-05,4,1
-0.001206962,-9.299493e-06,4,1
-0.001286212,-3.134038e-05,4,1
-0.00130015,-4.932962e-05,4,1
-0.001250882,-6.180866e-05,4,1
-0.001163691,-6.926366e-05,4,1
-0.001067424,-7.526008e-05,4,1
-0.000981043,-8.611845e-05,4,1
-0.0009079515,-0.0001063766,4,1
-0.0008340498,-0.0001365208,4,1
-0.0007434553,-0.0001731475,4,1
-0.0006282268,-0.0002100984,4,1
-0.0004967919,-0.0002417012,4,1
-0.0003596847,-0.0002653627,4,1
-0.0002248464,-0.0002757348,4,1
-9.519411e-05,-0.0002721694,4,1
2.473423e-05,-0.0002541802,4,1
0.0001255389,-0.0002217671,4,1
0.0001955511,-0.0001783336,4,1
0.00022764,-0.0001303623,4,1
0.0002211574,-7.995997e-05,4,1
0.0001889064,-2.809907e-05,4,1
0.0001488763,2.230325e-05,4,1
0.000110953,6.087479e-05,4,1
7.870197e-05,7.90261e-05,4,1
5.439218e-05,7.270556e-05,4,1
4.191315e-05,4.693717e-05,4,1
4.920609e-05,1.338965e-05,4,1
7.6271e-05,-1.740276e-05,4,1
0.0001062531,-4.155049e-05,4,1
0.0001193804,-5.354332e-05,4,1
0.0001043083,-4.835724e-05,4,1
6.525056e-05,-1.983374e-05,4,1
1.387585e-05,2.829966e-05,4,1
-3.782299e-05,8.113296e-05,4,1
-7.833932e-05,0.0001163011,4,1
-9.357346e-05,0.0001221355,4,1
-6.861539e-05,0.0001038221,4,1
9.013889e-06,7.30297e-05,4,1
0.000130887,3.624086e-05,4,1
0.0002689667,-3.465141e-06,4,1
0.0003859779,-4.219875e-05,4,1
0.0004579349,-7.056019e-05,4,1
0.000473007,-8.644259e-05,4,1
0.0004273046,-9.162867e-05,4,1
0.000319369,-9.405965e-05,4,1
0.0001564933,-0.0001036215,4,1
-2.680255e-05,-0.0001274451,4,1
-0.0001786577,-0.0001648822,4,1
-0.0002608248,-0.0002125294,4,1
-0.0002656868,-0.000268766,4,1
-0.0002102605,-0.000328082,4,1
-0.0001188556,-0.0003797808,4,1
-9.461558e-06,-0.0004155972,4,1
0.0001039842,-0.0004290486,4,1
0.0002093267,-0.0004188385,4,1
0.000299597,-0.0003861013,4,1
0.0003710679,-0.0003361852,4,1
0.0004290873,-0.0002729798,4,1
0.0004822447,-0.0001994021,4,1
0.0005345919,-0.0001199901,4,1
0.0005804563,-3.604027e-05,4,1
0.0006076833,4.904402e-05,4,1
0.0006156246,0.0001334801,4,1
0.0006133557,0.0002133783,4,1
0.0006143281,0.0002863077,4,1
0.0006170832,0.0003482167,4,1
0.0006096281,0.0003900295,4,1
0.0005773771,0.0004068843,4,1
0.0005180612,0.0003966742,4,1
0.0004384871,0.0003634508,4,1
0.0003542131,0.0003124002,4,1
0.0002756114,0.0002556773,4,1
0.0001947408,0.0002017096,4,1
0.00010366,0.0001615174,4,1
9.106227e-07,0.0001412592,4,1
-0.0001029732,0.0001402868,4,1
-0.0001883817,0.0001540623,4,1
-0.0002340841,0.0001739964,4,1
-0.0002287359,0.0001911753,4,1
-0.0001724993,0.00019782,4,1
-8.07703e-05,0.0001926339,4,1
1.906194e-05,0.0001761032,4,1
9.361199e-05,0.0001521176,4,1
0.000113546,0.0001268354,4,1
6.670914e-05,0.000101067,4,1
-3.441962e-05,7.853991e-05,4,1
-0.0001640719,6.217132e-05,4,1
-0.0002929138,5.406805e-05,4,1
-0.0003990665,5.066468e-05,4,1
-0.0004698891,4.758544e-05,4,1
-0.0005014918,3.948217e-05,4,1
-0.0005011677,1.954813e-05,4,1
-0.0004865818,-1.432352e-05,4,1
-0.0004703753,-6.083626e-05,4,1
-0.0004588687,-0.0001136696,4,1
-0.0004488206,-0.0001640719,4,1
-0.0004321279,-0.0002028055,4,1
-0.0004023079,-0.0002285739,4,1
-0.0003572537,-0.0002426735,4,1
-0.0003039342,-0.0002499665,4,1
-0.0002561249,-0.0002541802,4,1
-0.0002259808,-0.0002561249,4,1
-0.0002154466,-0.0002551526,4,1
-0.0002246843,-0.0002498044,4,1
-0.0002465631,-0.0002436459,4,1
-0.0002733039,-0.0002368392,4,1
-0.0002977757,-0.0002277635,4,1
-0.0003186821,-0.000213988,4,1
-0.0003463953,-0.0001937298,4,1
-0.0003818876,-0.0001665028,4,1
-0.0004193247,-0.0001332795,4,1
-0.0004496309,-9.875954e-05,4,1
-0.00047232,-6.326724e-05,4,1
-0.0004883645,-2.404744e-05,4,1
-0.0005055434,1.760335e-05,4,1
-0.000529205,5.601284e-05,4,1
-0.0005595111,8.74535e-05,4,1
-0.0005847933,0.0001075496,4,1
-0.0005932208,0.0001171115,4,1
-0.000576528,0.0001216493,4,1
-0.0005332566,0.0001255389,4,1
-0.0004716718,0.000128456,4,1
-0.0004042526,0.0001281319,4,1
-0.0003371576,0.0001222976,4,1
-0.000266173,0.000111115,4,1
-0.0001771992,9.928428e-05,4,1
-6.083626e-05,9.247754e-05,4,1
7.157111e-05,9.782569e-05,4,1
0.0002036544,0.0001214872,4,1
0.0003256896,0.000168162,4,1
0.0004360561,0.000232502,4,1
0.0005378332,0.0002981384,4,1
0.0006344241,0.0003478926,4,1
0.0007316634,0.0003726885,4,1
0.0008242028,0.0003704196,4,1
0.0008972943,0.0003467581,4,1
0.0009399176,0.0003114278,4,1
0.0009475346,0.0002741528,4,1
0.0009311661,0.0002383363,4,1
0.0009058838,0.0002025199,4,1
0.0008809257,0.0001650828,4,1
0.0008553194,0.0001279698,4,1
0.0008139926,9.701536e-05,4,1
0.0007426839,8.388807e-05,4,1
0.0006350724,9.458438e-05,4,1
0.0004952099,0.0001278078,4,1
0.0003384927,0.0001663793,4,1
0.0001835583,0.0001973338,4,1
4.547859e-05,0.0002153231,4,1
-7.169464e-05,0.0002221298,4,1
-0.0001707166,0.0002205092,4,1
-0.0002559629,0.0002085163,4,1
-0.0003313232,0.0001863134,4,1
-0.000400039,0.0001566554,4,1
-0.00047232,0.000120839,4,1
-0.0005531906,7.951231e-05,4,1
-0.000640868,3.737532e-05,4,1
-0.0007287074,-7.100305e-07,4,1
-0.0008089297,-3.020592e-05,4,1
-0.0008688938,-4.819517e-05,4,1
-0.0008876934,-6.132246e-05,4,1
-0.0008533355,-8.271508e-05,4,1
-0.0007721409,-0.0001209625,4,1
-0.0006655019,-0.0001739578,4,1
-0.0005480045,-0.0002308428,4,1
-0.0004180282,-0.0002734659,4,1
-0.0002703867,-0.000288538,4,1
-0.0001084835,-0.000271197,4,1
5.730935e-05,-0.0002287359,4,1
0.0002124059,-0.0001710407,4,1
0.0003373583,-0.0001120489,4,1
0.0004226047,-6.796714e-05,4,1
0.0004775448,-4.398147e-05,4,1
0.0005214646,-3.928157e-05,4,1
0.00057446,-4.770897e-05,4,1
0.0006478756,-6.261898e-05,4,1
0.0007311772,-7.590833e-05,4,1
0.0007985964,-8.320128e-05,4,1
0.0008329543,-8.709085e-05,4,1
0.0008319819,-9.049421e-05,4,1
0.0008018378,-9.422172e-05,4,1
0.0007533802,-9.681477e-05,4,1
0.0007013571,-9.746302e-05,4,1
0.000658896,-9.29252e-05,4,1
0.0006300483,-8.271508e-05,4,1
0.0006106006,-6.974985e-05,4,1
0.0005898562,-5.905355e-05,4,1
0.000562305,-5.889148e-05,4,1
0.0005328091,-7.266703e-05,4,1
0.0005167646,-9.713889e-05,4,1
0.0005208163,-0.0001263107,4,1
0.0005319988,-0.0001533756,4,1
0.0005209784,-0.00016942,4,1
0.0004662003,-0.0001689338,4,1
0.000366368,-0.0001514308,4,1
0.0002312055,-0.000119666,4,1
7.999851e-05,-7.23429e-05,4,1
-6.375344e-05,-1.432352e-05,4,1
-0.0001741199,4.547859e-05,4,1
-0.0002386219,9.669123e-05,4,1
-0.0002588801,0.0001286181,4,1
-0.0002431597,0.0001380179,4,1
-0.0002000504,0.0001279698,4,1
-0.0001402483,0.0001044704,4,1
-6.861539e-05,7.724339e-05,4,1
3.503668e-06,5.56887e-05,4,1
5.552663e-05,4.45062e-05,4,1
6.362991e-05,4.239934e-05,4,1
1.727922e-05,4.969229e-05,4,1
-7.137051e-05,6.638502e-05,4,1
-0.0001715269,8.79397e-05,4,1
-0.0002527216,0.0001078737,4,1
-0.0003050687,0.0001193804,4,1
-0.0003447747,0.0001203528,4,1
-0.0003869116,0.0001098185,4,1
-0.0004335865,9.296373e-05,4,1
-0.0004700511,7.513654e-05,4,1
-0.0004711856,6.395404e-05,4,1
-0.0004215936,6.444023e-05,4,1
-0.0003285682,7.837785e-05,4,1
-0.0002180396,0.0001005808,4,1
-0.0001144799,0.0001248906,4,1
-3.814712e-05,0.0001449867,4,1
7.555301e-06,0.0001568175,4,1
2.927205e-05,0.0001561692,4,1
3.996837e-05,0.0001466074,4,1
5.860588e-05,0.0001338042,4,1
9.604298e-05,0.0001216493,4,1
0.0001470936,0.0001091703,4,1
0.0002018716,9.490851e-05,4,1
0.0002509774,7.546067e-05,4,1
0.0002876042,4.612685e-05,4,1
0.0003046211,9.824215e-06,4,1
0.0002986247,-2.534396e-05,4,1
0.0002701012,-5.548811e-05,4,1
0.0002148369,-7.833932e-05,4,1
0.000130725,-9.535618e-05,4,1
1.792748e-05,-0.0001089697,4,1
-0.000112211,-0.0001156143,4,1
-0.0002436459,-0.0001112386,4,1
-0.0003566054,-9.892161e-05,4,1
-0.0004379622,-8.514606e-05,4,1
-0.0004909576,-7.574627e-05,4,1
-0.0005324463,-7.201877e-05,4,1
-0.0005810658,-6.715681e-05,4,1
-0.0006452437,-5.872941e-05,4,1
-0.0007168766,-4.689865e-05,4,1
-0.000775058,-3.587821e-05,4,1
-0.0008000161,-2.939559e-05,4,1
-0.0007852681,-2.712668e-05,4,1
-0.0007358382,-2.339918e-05,4,1
-0.0006687432,-1.643037e-05,4,1
-0.0006000275,-8.165035e-06,4,1
-0.0005437909,1.396819e-06,4,1
-0.0005034366,1.12828e-05,4,1
-0.0004732924,1.695509e-05,4,1
-0.0004386105,1.241726e-05,4,1
-0.0003899909,-1.358292e-06,4,1
-0.000325651,-1.805102e-05,4,1
-0.0002580697,-3.101625e-05,4,1
-0.0002039399,-3.458168e-05,4,1
-0.0001781716,-2.7937e-05,4,1
-0.0001780095,-1.497178e-05,4,1
-0.000189192,-1.358292e-06,4,1
-0.0001971332,5.124321e-06,4,1
-0.0001998883,-1.844488e-06,4,1
-0.0001987538,-2.550602e-05,4,1
-0.000191623,-5.986387e-05,4,1
-0.0001726613,-9.179074e-05,4,1
-0.0001378173,-0.0001141558,4,1
-9.000802e-05,-0.0001250141,4,1
-3.992984e-05,-0.0001277692,4,1
5.934648e-06,-0.000132145,4,1
4.904402e-05,-0.0001425172,4,1
9.344993e-05,-0.000156941,4,1
0.0001419075,-0.0001754164,4,1
0.0001934442,-0.0001955125,4,1
0.0002417397,-0.0002118811,4,1
0.000279663,-0.0002188499,4,1
0.0003021901,-0.0002138259,4,1
0.0003062417,-0.0001985918,4,1
0.0002900352,-0.0001750923,4,1
0.0002517878,-0.0001436516,4,1
0.000190365,-0.0001044318,4,1
0.0001167873,-5.986387e-05,4,1
4.628891e-05,-1.740276e-05,4,1
-1.221667e-05,1.436204e-05,4,1
-6.683268e-05,3.786152e-05,4,1
-0.0001300382,5.471631e-05,4,1
-0.0002005366,6.816773e-05,4,1
-0.000248832,8.210535e-05,4,1
-0.000243808,9.879808e-05,4,1
-0.0001703924,0.0001171115,4,1
-3.928157e-05,0.0001346145,4,1
0.0001172735,0.0001493625,4,1
0.0002613496,0.000158114,4,1
0.0003655576,0.0001587623,4,1
0.0004247115,0.0001547106,4,1
0.000450642,0.0001527658,4,1
0.0004660382,0.0001571416,4,1
0.0004825689,0.0001684862,4,1
0.000495372,0.0001889064,4,1
0.000490348,0.0002193747,4,1
0.00046069,0.0002545429,4,1
0.0004157979,0.0002877662,4,1
0.0003832228,0.0003089969,4,1
0.0003898674,0.0003125623,4,1
0.0004370285,0.0003025142,4,1
0.0005057442,0.000289387,4,1
0.0005725152,0.0002817699,4,1
0.0006295622,0.0002807975,4,1
0.0006794783,0.0002853353,4,1
0.0007313393,0.000289549,4,1
0.0007895208,0.0002874421,4,1
0.000859533,0.0002765838,4,1
0.0009274385,0.0002590807,4,1
0.0009630929,0.0002342847,4,1
0.0009240351,0.0002008992,4,1
0.0007742866,0.000160545,4,1
0.0004990995,0.0001154908,4,1
0.0001261871,7.140904e-05,4,1
-0.0002726556,3.121684e-05,4,1
-0.0006018102,-3.627206e-06,4,1
-0.0007954782,-3.004385e-05,4,1
-0.0008384255,-4.625038e-05,4,1
-0.0007533412,-5.548811e-05,4,1
-0.0005760419,-5.808115e-05,4,1
-0.0003473677,-5.240886e-05,4,1
-0.0001031353,-3.733679e-05,4,1
0.0001328318,-1.399939e-05,4,1
0.0003467581,7.23117e-06,4,1
0.0005316747,1.54965e-05,4,1
0.0006833679,2.207145e-06,4,1
0.0007994067,-3.668853e-05,4,1
0.0008893532,-9.422172e-05,4,1
0.0009687652,-0.0001567789,4,1
0.001046557,-0.0002102605,4,1
0.001125645,-0.000243808,4,1
0.001195495,-0.0002496423,4,1
0.001232446,-0.0002300324,4,1
0.00121397,-0.000194216,4,1
0.001140879,-0.0001559686,4,1
0.001042667,-0.0001237176,4,1
0.0009499656,-9.762509e-05,4,1
0.0008736328,-8.093236e-05,4,1
0.0007981102,-7.590833e-05,4,1
0.0006929298,-7.963584e-05,4,1
0.0005344298,-9.049421e-05,4,1
0.0003224483,-0.0001083214,4,1
8.323981e-05,-0.0001300382,4,1
-0.0001442999,-0.0001509446,4,1
-0.0003418575,-0.0001658546,4,1
-0.0005149432,-0.0001710407,4,1
-0.0006787913,-0.0001679614,4,1
-0.0008398842,-0.0001590478,4,1
-0.0009914152,-0.0001465688,4,1
-0.001121067,-0.0001318209,4,1
-0.001218793,-0.0001130213,4,1
-0.001283133,-9.146661e-05,4,1
-0.001316842,-6.764301e-05,4,1
-0.001328349,-4.398147e-05,4,1
-0.001324946,-2.453363e-05,4,1
-0.001303391,-1.043395e-05,4,1
-0.00126093,-1.682422e-06,4,1
-0.001194321,9.986281e-06,4,1
-0.001099675,2.943412e-05,4,1
-0.000981205,5.714729e-05,4,1
-0.0008560906,8.875003e-05,4,1
-0.0007426449,0.0001211631,4,1
-0.0006523746,0.0001545486,4,1
-0.0005877105,0.000185341,4,1
-0.0005554595,0.0002055991,4,1
-0.0005611319,0.0002070577,4,1
-0.0006013241,0.0001890685,4,1
-0.0006693914,0.0001603829,4,1
-0.000747669,0.0001338042,4,1
-0.0008061745,0.0001193804,4,1
-0.0008168708,0.0001182459,4,1
-0.0007679272,0.0001273216,4,1
-0.0006692294,0.0001376938,4,1
-0.000544277,0.0001399627,4,1
-0.0004228902,0.0001346145,4,1
-0.0003298647,0.00013818,4,1
-0.0002818933,0.0001652449,4,1
-0.0002767073,0.0002227781,4,1
-0.0002979378,0.0003039728,4,1
-0.0003264613,0.0003869503,4,1
-0.0003438023,0.0004474007,4,1
-0.000335537,0.0004668485,4,1
-0.0002948586,0.0004375147,4,1
-0.0002191741,0.0003645853,4,1
-0.0001161005,0.0002676702,4,1
-3.951337e-06,0.0001728619,4,1
9.669123e-05,0.0001009049,4,1
0.0001726999,6.071273e-05,4,1
0.0002148369,3.948217e-05,4,1
0.0002193747,1.59827e-05,4,1
0.0001949028,-2.971972e-05,4,1
0.0001590864,-0.0001037836,4,1
0.0001247285,-0.0001984297,4,1
0.0001041462,-0.0002985861,4,1
9.798775e-05,-0.000387884,4,1
9.717743e-05,-0.0004535205,4,1
8.810177e-05,-0.0004909576,4,1
6.589881e-05,-0.0005066779,4,1
3.218923e-05,-0.0005107295,4,1
-6.220252e-06,-0.0005061917,4,1
-3.847125e-05,-0.000492092,4,1
-5.516398e-05,-0.0004627582,4,1
-5.192267e-05,-0.0004159214,4,1
-3.247483e-05,-0.0003566054,4,1
-4.923729e-06,-0.0002968033,4,1
2.311357e-05,-0.0002425115,4,1
5.228533e-05,-0.000199078,4,1
7.805372e-05,-0.0001724993,4,1
9.652917e-05,-0.0001611547,4,1
0.0001038221,-0.0001650443,4,1
0.0001046324,-0.0001806025,4,1
0.0001049566,-0.0001985918,4,1
0.0001132219,-0.0002032917,4,1
0.0001376938,-0.0001862748,4,1
0.0001845306,-0.0001511067,4,1
0.0002480603,-0.0001162626,4,1
0.0003218,-9.778715e-05,4,1
0.0003989431,-9.827335e-05,4,1
0.0004710622,-0.00010978,4,1
0.0005269747,-0.0001245279,4,1
0.0005490156,-0.0001300382,4,1
0.0005323229,-0.0001219349,4,1
0.000487755,-0.0001000561,4,1
0.0004341113,-6.618442e-05,4,1
0.0003903536,-2.745081e-05,4,1
0.0003653956,7.23117e-06,4,1
0.000359075,3.688912e-05,4,1
0.0003666921,6.217132e-05,4,1
0.0003877606,8.259155e-05,4,1
0.0004243874,9.814982e-05,4,1
0.0004707381,0.0001116012,4,1
0.0005208163,0.0001240803,4,1
0.0005704083,0.000133318,4,1
0.0006209727,0.0001410971,4,1
0.0006731578,0.0001501728,4,1
0.000725667,0.0001587623,4,1
0.0007721797,0.0001683241,4,1
0.0008013516,0.0001827479,4,1
0.000804755,0.0002049509,4,1
0.0007822278,0.0002368777,4,1
0.0007452769,0.0002775562,4,1
0.0007067053,0.0003261758,4,1
0.0006746164,0.0003775505,4,1
0.0006477135,0.0004224426,4,1
0.0006185417,0.0004529109,4,1
0.0005846701,0.000470576,4,1
0.0005404262,0.0004817585,4,1
0.0004744656,0.0004898618,4,1
0.0003722023,0.0004901859,4,1
0.0002240746,0.0004757621,4,1
3.478228e-05,0.0004472386,4,1
-0.0001703924,0.0004119083,4,1
-0.0003579019,0.0003817642,4,1
-0.0005018159,0.0003650715,4,1
-0.0005870623,0.0003650715,4,1
-0.0006163961,0.0003744712,4,1
-0.0005997034,0.0003827366,4,1
-0.0005471942,0.0003744712,4,1
-0.00047702,0.0003448133,4,1
-0.0004071698,0.0003000832,4,1
-0.0003486642,0.0002568118,4,1
-0.0002968033,0.0002253711,4,1
-0.0002423494,0.0002106232,4,1
-0.0001812508,0.0002182402,4,1
-0.0001219349,0.0002475741,4,1
-7.590833e-05,0.0002884145,4,1
-5.305713e-05,0.0003273102,4,1
-5.013995e-05,0.0003488649,4,1
-5.435365e-05,0.0003404375,4,1
-5.062615e-05,0.0002979764,4,1
-3.053005e-05,0.0002278021,4,1
1.396819e-06,0.0001380179,4,1
3.55926e-05,4.077869e-05,4,1
6.006447e-05,-5.791909e-05,4,1
6.800567e-05,-0.0001509446,4,1
5.390598e-05,-0.0002344082,4,1
2.408596e-05,-0.0003042584,4,1
-8.165035e-06,-0.0003587123,4,1
-3.506788e-05,-0.0003980942,4,1
-6.683268e-05,-0.0004240246,4,1
-0.0001214487,-0.0004390967,4,1
-0.0002070192,-0.0004471999,4,1
-0.000313334,-0.0004462276,4,1
-0.0004198109,-0.0004327761,4,1
-0.0005035987,-0.0004066836,4,1
-0.0005505976,-0.0003707051,4,1
-0.0005557837,-0.0003311612,4,1
-0.0005227224,-0.0002974516,4,1
-0.0004668098,-0.0002789762,4,1
-0.0004073319,-0.0002771934,4,1
-0.0003638984,-0.0002916173,4,1
-0.0003410472,-0.0003185201,4,1
-0.0003334301,-0.0003489884,4,1
-0.0003348887,-0.0003757291,4,1
-0.0003426678,-0.0003914495,4,1
-0.0003433161,-0.0003886944,4,1
-0.0003164132,-0.0003685983,4,1
-0.0002442942,-0.0003378059,4,1
-0.0001336036,-0.0003057169,4,1
-2.015787e-05,-0.0002814071,4,1
6.330578e-05,-0.0002655248,4,1
0.0001056048,-0.0002499665,4,1
0.0001158149,-0.0002282497,4,1
0.0001128978,-0.0001929195,4,1
0.0001214872,-0.0001477033,4,1
0.0001642725,-0.0001078352,4,1
0.0002477361,-8.984595e-05,4,1
0.0003678266,-0.0001075111,4,1
0.0005046097,-0.0001606685,4,1
0.0006279415,-0.0002303566,4,1
0.0007105949,-0.0002912931,4,1
0.0007365254,-0.000325651,4,1
0.0007118915,-0.0003321336,4,1
0.0006616511,-0.0003178718,4,1
0.00060428,-0.0002942103,4,1
0.0005444778,-0.0002708729,4,1
0.000482893,-0.0002553146,4,1
0.0004211461,-0.0002460769,4,1
0.0003665301,-0.0002418632,4,1
0.0003224483,-0.000246401,4,1
0.0002769079,-0.0002601766,4,1
0.0002109473,-0.000276059,4,1
0.0001075496,-0.0002802727,4,1
-3.441962e-05,-0.0002575835,4,1
-0.0001971332,-0.0001935677,4,1
-0.0003496366,-8.514606e-05,4,1
-0.0004684305,5.552663e-05,4,1
-0.0005494631,0.0001981441,4,1
-0.0006039171,0.0003161277,4,1
-0.0006384369,0.0003997535,4,1
-0.0006499436,0.0004576108,4,1
-0.0006298475,0.0005013684,4,1
-0.0005726385,0.0005337815,4,1
-0.0004878783,0.0005542018,4,1
-0.0003933943,0.000564736,4,1
-0.0003037722,0.0005699221,4,1
-0.0002196603,0.0005741358,4,1
-0.0001358725,0.0005809425,4,1
-4.835724e-05,0.0005965008,4,1
4.02925e-05,0.0006180556,4,1
0.0001187321,0.0006381517,4,1
0.0001756171,0.0006519272,4,1
0.0002078681,0.0006582477,4,1
0.0002271538,0.0006608408,4,1
0.0002525981,0.0006671614,4,1
0.0002898731,0.0006866092,4,1
0.0003370341,0.0007285841,4,1
0.0003872744,0.0007877381,4,1
0.0004222805,0.0008481885,4,1
0.0004214702,0.0008901635,4,1
0.0003803056,0.0008998874,4,1
0.0003101313,0.0008750914,4,1
0.0002308813,0.0008193408,4,1
0.0001574657,0.0007433321,4,1
9.571884e-05,0.0006671614,4,1
4.77475e-05,0.0006070351,4,1
1.371378e-05,0.0005627912,4,1
-5.89612e-06,0.0005183853,4,1
-1.934754e-05,0.0004499937,4,1
-4.268495e-05,0.0003404375,4,1
-9.260107e-05,0.000192796,4,1
-0.0001746061,2.684107e-05,4,1
-0.0002770314,-0.0001326312,4,1
-0.0003755671,-0.0002653627,4,1
-0.0004441207,-0.0003595226,4,1
-0.000467134,-0.0004144627,4,1
-0.000449955,-0.0004431483,4,1
-0.0004084663,-0.000467296,4,1
-0.0003574158,-0.0005047331,4,1
-0.000310741,-0.0005593491,4,1
-0.0002802727,-0.0006227166,4,1
-0.0002794623,-0.0006839773,4,1
-0.0003253268,-0.0007295177,4,1
-0.0004379622,-0.0007560964,4,1
-0.0006219063,-0.0007680892,4,1
-0.0008601423,-0.0007703581,4,1
-0.001102754,-0.0007635514,4,1
-0.001282646,-0.0007471828,4,1
-0.001354928,-0.0007181731,4,1
-0.001307605,-0.0006787913,4,1
-0.001156398,-0.0006390853,4,1
-0.0009317751,-0.0006052136,4,1
-0.0006687432,-0.0005786349,4,1
-0.0003958252,-0.0005621043,4,1
-0.0001392759,-0.0005533527,4,1
7.740546e-05,-0.0005502735,4,1
0.0002380122,-0.0005439529,4,1
0.000349027,-0.0005238568,4,1
0.0004373526,-0.0004831784,4,1
0.0005292437,-0.0004230522,4,1
0.0006370172,-0.0003478539,4,1
0.0007577559,-0.000268766,4,1
0.0008827084,-0.000191785,4,1
0.0009979371,-0.0001242038,4,1
0.001094366,-6.974985e-05,4,1
0.001165027,-3.166451e-05,4,1
0.001212188,-1.027188e-05,4,1
0.001242494,-8.720959e-07,4,1
0.001260483,8.689758e-06,4,1
0.001264049,2.684107e-05,4,1
0.001246221,5.552663e-05,4,1
0.001197278,9.020862e-05,4,1
0.0011143,0.0001260251,4,1
0.001003771,0.0001584381,4,1
0.000886598,0.000185503,4,1
0.0007960034,0.0002065715,4,1
0.0007532181,0.0002237505,4,1
0.0007525698,0.0002401191,4,1
0.0007532181,0.0002566497,4,1
0.000696009,0.0002718839,4,1
0.0005444778,0.0002804733,4,1
0.0003000832,0.0002811216,4,1
-5.57199e-06,0.0002807975,4,1
-0.0003219235,0.0002854973,4,1
-0.0005971103,0.0002953834,4,1
-0.000782513,0.0003075383,4,1
-0.0008572251,0.000316938,4,1
-0.0008368049,0.0003190449,4,1
-0.0007632272,0.0003125623,4,1
-0.0006791154,0.0003000832,4,1
-0.0006026206,0.0002882525,4,1
-0.0005308256,0.000282256,4,1
-0.0004533584,0.0002866318,4,1
-0.0003643846,0.0002971661,4,1
-0.0002671454,0.0003012177,4,1
-0.0001713648,0.0002854973,4,1
-8.352541e-05,0.000247412,4,1
-2.330684e-06,0.0001916615,4,1
7.740546e-05,0.0001305629,4,1
0.0001620036,7.465034e-05,4,1
0.000250005,2.878586e-05,4,1
0.0003302274,-5.734056e-06,4,1
0.0003880847,-3.166451e-05,4,1
0.0004157979,-4.949169e-05,4,1
0.0004166082,-5.889148e-05,4,1
0.0003997535,-6.48879e-05,4,1
0.0003668542,-7.201877e-05,4,1
0.0003156415,-7.639453e-05,4,1
0.0002535705,-7.201877e-05,4,1
0.0002046267,-5.743289e-05,4,1
0.0001939304,-3.717473e-05,4,1
0.000237526,-1.67545e-05,4,1
0.0003232586,-1.682422e-06,4,1
0.0003997535,9.013889e-06,4,1
0.0003968363,2.01964e-05,4,1
0.0002645909,3.526847e-05,4,1
8.041497e-06,4.953022e-05,4,1
-0.0003144685,5.293359e-05,4,1
-0.0006233649,3.705119e-05,4,1
-0.0008522011,-2.81688e-06,4,1
-0.0009640261,-6.407757e-05,4,1
-0.0009515471,-0.0001353863,4,1
-0.0008377773,-0.0001997262,4,1
-0.0006655019,-0.0002444563,4,1
-0.000482206,-0.0002652006,4,1
-0.0003186821,-0.0002617972,4,1
-0.000184168,-0.0002408908,4,1
-7.931171e-05,-0.0002100984,4,1
-6.544382e-06,-0.0001775233,4,1
3.380988e-05,-0.0001464067,4,1
4.256141e-05,-0.0001178833,4,1
1.841368e-05,-8.838737e-05,4,1
-4.414354e-05,-5.824322e-05,4,1
-0.0001360346,-2.615429e-05,4,1
-0.0002373254,6.258778e-06,4,1
-0.0003288923,3.93201e-05,4,1
-0.0003992286,7.011252e-05,4,1
-0.0004520619,9.620504e-05,4,1
-0.0005042469,0.0001177597,4,1
-0.0005650214,0.0001347766,4,1
-0.0006241752,0.0001445005,4,1
-0.0006719845,0.0001414213,4,1
-0.0007019666,0.0001257009,4,1
-0.0007162283,0.0001018773,4,1
-0.0007219006,8.275361e-05,4,1
-0.0007222248,8.291568e-05,4,1
-0.0007099077,0.0001098185,4,1
-0.0006714982,0.0001595726,4,1
-0.0006000275,0.0002239125,4,1
-0.0004930644,0.000287118,4,1
-0.0003483401,0.0003255275,4,1
-0.0001684476,0.0003256896,4,1
2.878586e-05,0.000292142,4,1
0.0002111094,0.0002402811,4,1
0.0003443271,0.0001846927,4,1
0.0004054258,0.0001321835,4,1
0.0003965121,8.194328e-05,4,1
0.0003396272,3.867184e-05,4,1
0.0002645909,6.258778e-06,4,1
0.0001893926,-1.124428e-05,4,1
0.0001158149,-1.108221e-05,4,1
4.547859e-05,3.503668e-06,4,1
-1.043395e-05,2.133085e-05,4,1
-3.976777e-05,3.510641e-05,4,1
-4.090223e-05,3.915804e-05,4,1
-3.117831e-05,3.235129e-05,4,1
-3.26369e-05,1.744129e-05,4,1
-5.030202e-05,-2.006553e-06,4,1
-6.715681e-05,-2.550602e-05,4,1
-5.791909e-05,-5.759496e-05,4,1
9.106227e-07,-9.811128e-05,4,1
0.0001169494,-0.000144462,4,1
0.00027707,-0.000184168,4,1
0.0004525868,-0.0002071812,4,1
0.0006125454,-0.0002104225,4,1
0.0007387943,-0.0001976194,4,1
0.0008240407,-0.0001741199,4,1
0.0008682846,-0.0001428413,4,1
0.000866664,-0.0001067007,4,1
0.0008050791,-6.958779e-05,4,1
0.0006666752,-3.458168e-05,4,1
0.0004503179,-4.113403e-06,4,1
0.0001809652,2.262738e-05,4,1
-0.0001005423,4.888196e-05,4,1
-0.000355471,7.805372e-05,4,1
-0.0005554595,0.0001103047,4,1
-0.0006847876,0.0001422316,4,1
-0.0007394037,0.0001647587,4,1
-0.0007249799,0.0001684862,4,1
-0.00065594,0.0001529279,4,1
-0.0005478425,0.000130725,4,1
-0.000417542,0.0001164632,4,1
-0.0002864312,0.0001182459,4,1
-0.0001757406,0.0001351007,4,1
-9.875954e-05,0.0001600588,4,1
-5.22468e-05,0.0001775618,4,1
-2.291298e-05,0.0001791825,4,1
3.017472e-06,0.0001621656,4,1
3.850978e-05,0.000130887,4,1
9.247754e-05,9.182927e-05,4,1
0.0001699448,5.115087e-05,4,1
0.000264753,2.01964e-05,4,1
0.0003571303,-1.358292e-06,4,1
0.000423415,-2.242678e-05,4,1
0.0004587452,-5.257093e-05,4,1
0.0004869446,-9.422172e-05,4,1
0.0005405883,-0.0001397621,4,1
0.0006332897,-0.0001806025,4,1
0.0007507871,-0.000208964,4,1
0.0008640709,-0.0002245222,4,1
0.0009381349,-0.0002285739,4,1
0.0009476967,-0.0002295462,4,1
0.0008887049,-0.0002366771,4,1
0.0007807693,-0.000253856,4,1
0.0006493342,-0.0002807589,4,1
0.0005170888,-0.0003089583,4,1
0.0004076947,-0.0003340784,4,1
0.0003354135,-0.0003535262,4,1
0.0002991108,-0.0003676259,4,1
0.0002876042,-0.0003690845,4,1
0.0002877662,-0.0003462333,4,1
0.0002906835,-0.0002948586,4,1
0.0002983005,-0.0002224154,4,1
0.0003133726,-0.0001421931,4,1
0.0003358997,-6.796714e-05,4,1
0.0003629646,-1.059602e-05,4,1
0.0003926226,3.056858e-05,4,1
0.0004208219,6.314371e-05,4,1
0.000440756,9.409818e-05,4,1
0.0004417284,0.0001239182,4,1
0.0004229288,0.0001462832,4,1
0.0003869503,0.0001598967,4,1
0.0003375204,0.0001701068,4,1
0.0002571359,0.0001851789,4,1
0.0001185701,0.000207706,4,1
-9.114248e-05,0.0002303951,4,1
-0.0003535262,0.0002420638,4,1
-0.0006241752,0.000237526,4,1
-0.0008499322,0.000217592,4,1
-0.0009936841,0.0001845306,4,1
-0.001044411,0.0001464453,4,1
-0.001021559,0.0001130598,4,1
-0.0009481438,9.037068e-05,4,1
-0.000844584,8.226741e-05,4,1
-0.0007212523,9.150514e-05,4,1
-0.0005776625,0.0001197045,4,1
-0.0004128421,0.0001662173,4,1
-0.0002306807,0.0002243987,4,1
-4.47918e-05,0.000279663,4,1
0.0001253768,0.0003195311,4,1
0.0002710735,0.0003346032,4,1
0.0003978086,0.0003287688,4,1
0.0005232473,0.0003122381,4,1
0.0006579236,0.0002942489,4,1
0.0007963275,0.0002803113,4,1
0.0009177146,0.0002752873,4,1
0.0009964785,0.0002803113,4,1
0.001012523,0.0002958695,4,1
0.0009494794,0.0003172622,4,1
0.000804917,0.0003331446,4,1
0.0005942319,0.0003344411,4,1
0.0003464339,0.0003146691,4,1
9.101894e-05,0.0002775562,4,1
-0.0001475412,0.0002336365,4,1
-0.0003574158,0.0001914995,4,1
-0.0005368221,0.0001540623,4,1
-0.0006851118,0.0001182459,4,1
-0.0008030953,7.967438e-05,4,1
-0.0008910968,3.283749e-05,4,1
-0.0009453886,-1.950961e-05,4,1
-0.0009675916,-6.861539e-05,4,1
-0.0009615952,-0.000102325,4,1
-0.0009308027,-0.0001193418,4,1
-0.0008765109,-0.0001274451,4,1
-0.0008100641,-0.0001384655,4,1
-0.000742969,-0.0001549962,4,1
-0.0006792775,-0.000174282,4,1
-0.0006176926,-0.0001878955,4,1
-0.0005651835,-0.000191623,4,1
-0.0005295291,-0.0001840059,4,1
-0.0005058676,-0.0001682856,4,1
-0.0004773441,-0.0001481895,4,1
-0.0004285624,-0.0001280934,4,1
-0.0003575778,-0.0001109144,4,1
-0.0002797865,-8.984595e-05,4,1
-0.0002201465,-6.0188e-05,4,1
-0.000194216,-3.21507e-05,4,1
-0.0001995642,-2.064406e-05,4,1
-0.0002212809,-3.766092e-05,4,1
-0.0002426735,-8.579432e-05,4,1
-0.0002553146,-0.0001498101,4,1
-0.0002624455,-0.0002143121,4,1
-0.0002726556,-0.0002721694,4,1
-0.0002844864,-0.000320789,4,1
-0.0002820554,-0.0003579019,4,1
-0.0002509389,-0.000380267,4,1
-0.0001940539,-0.0003843186,4,1
-0.0001233935,-0.0003741085,4,1
-4.673658e-05,-0.0003535262,4,1
3.008238e-05,-0.0003240303,4,1
9.814982e-05,-0.0002840002,4,1
0.000145635,-0.0002391081,4,1
0.0001707551,-0.0002018331,4,1
0.0001835583,-0.0001833576,4,1
0.0001921477,-0.000179306,4,1
0.0001936063,-0.0001750923,4,1
0.0001788584,-0.0001632615,4,1
0.0001467694,-0.0001475412,4,1
0.0001072255,-0.0001357104,4,1
7.983644e-05,-0.0001329553,4,1
8.405014e-05,-0.0001363587,4,1
0.0001286181,-0.0001426792,4,1
0.0002023578,-0.0001501342,4,1
0.0002803113,-0.0001549962,4,1
0.0003363859,-0.0001485136,4,1
0.0003589129,-0.0001209625,4,1
0.0003556717,-6.845333e-05,4,1
0.0003461098,7.069105e-06,4,1
0.0003446512,9.037068e-05,4,1
0.0003555096,0.0001610312,4,1
0.0003752816,0.0001997648,4,1
0.0003948915,0.00019782,4,1
0.0004057499,0.0001654069,4,1
0.0004049396,0.0001276457,4,1
0.0003945674,0.0001075496,4,1
0.000378847,0.0001154908,4,1
0.0003525924,0.000150659,4,1
0.00030689,0.0002021958,4,1
0.0002376881,0.0002556773,4,1
0.0001590864,0.0002955454,4,1
9.717743e-05,0.0003127243,4,1
7.270556e-05,0.0003107795,4,1
8.712937e-05,0.0003023522,4,1
0.0001192183,0.0002976523,4,1
0.0001402868,0.0002997591,4,1
0.0001321835,0.0003013798,4,1
9.977047e-05,0.0002944109,4,1
6.41161e-05,0.0002744769,4,1
3.899597e-05,0.0002443328,4,1
2.748934e-05,0.0002099749,4,1
2.035846e-05,0.0001782101,4,1
8.203562e-06,0.0001516314,4,1
-1.108221e-05,0.0001325077,4,1
-3.911951e-05,0.0001197045,4,1
-7.218083e-05,0.0001096565,4,1
-0.0001015147,9.652917e-05,4,1
-0.0001201522,7.643307e-05,4,1
-0.0001323071,5.034055e-05,4,1
-0.0001496481,2.214118e-05,4,1
-0.0001776853,-1.844488e-06,4,1
-0.0002172293,-2.518189e-05,4,1
-0.0002603387,-5.937768e-05,4,1
-0.0002963172,-0.0001130213,4,1
-0.0003125237,-0.0001840059,4,1
-0.000303286,-0.0002585559,4,1
-0.0002663351,-0.0003144685,4,1
-0.0001995642,-0.0003350507,4,1
-0.0001126972,-0.0003173856,4,1
-2.372331e-05,-0.0002718453,4,1
5.066468e-05,-0.0002152845,4,1
0.0001041462,-0.0001614788,4,1
0.0001419075,-0.0001125351,4,1
0.0001723757,-6.359137e-05,4,1
0.0001970097,-1.027188e-05,4,1
0.0002085163,4.612685e-05,4,1
0.000190365,9.701536e-05,4,1
0.000133318,0.0001325077,4,1
5.390598e-05,0.0001496866,4,1
-1.659243e-05,0.0001503349,4,1
-5.030202e-05,0.0001342904,4,1
-3.490581e-05,0.0001000946,4,1
2.165498e-05,4.888196e-05,4,1
9.507057e-05,-1.20546e-05,4,1
0.000163138,-7.250496e-05,4,1
0.0002046267,-0.0001169109,4,1
0.0001961994,-0.0001376552,4,1
0.0001279698,-0.0001339277,4,1
2.068259e-05,-0.0001141558,4,1
-8.40116e-05,-8.611845e-05,4,1
-0.0001493239,-5.59743e-05,4,1
-0.0001603444,-3.21507e-05,4,1
-0.000122259,-1.67545e-05,4,1
-3.749886e-05,-7.030578e-06,4,1
9.053275e-05,1.720949e-06,4,1
0.0002438466,1.403791e-05,4,1
0.0003932708,3.299956e-05,4,1
0.0005180612,5.795762e-05,4,1
0.0006080075,8.259155e-05,4,1
0.0006601926,0.000101067,4,1
0.0006798024,0.0001090082,4,1
0.000681261,0.0001116012,4,1
0.0006776956,0.0001112771,4,1
0.0006665131,0.0001177597,4,1
0.0006417171,0.0001305629,4,1
0.0005934216,0.0001449867,4,1
0.0005214646,0.00015309,4,1
0.0004311941,0.0001485521,4,1
0.0003350894,0.0001279698,4,1
0.0002467637,9.847395e-05,4,1
0.0001733481,7.270556e-05,4,1
0.0001143563,6.541262e-05,4,1
6.703327e-05,8.502253e-05,4,1
2.133085e-05,0.0001265113,4,1
-3.117831e-05,0.000170593,4,1
-8.579432e-05,0.0001947408,4,1
-0.0001253383,0.0001884202,4,1
-0.0001318209,0.0001620036,4,1
-0.0001050801,0.0001346145,4,1
-6.099833e-05,0.0001271595,4,1
-2.129233e-05,0.0001493625,4,1
-7.840905e-06,0.0001970097,4,1
-3.409549e-05,0.0002568118,4,1
-9.827335e-05,0.0003135347,4,1
-0.0001835197,0.00035162,4,1
-0.0002697385,0.000363937,4,1
-0.0003360231,0.0003542131,4,1
-0.0003734602,0.0003344411,4,1
-0.000382698,0.0003198552,4,1
-0.0003728119,0.000316938,4,1
-0.0003564434,0.000321638,4,1
-0.0003420196,0.000324393,4,1
-0.0003301888,0.0003179104,4,1
-0.0003193304,0.0002955454,4,1
-0.0003105789,0.0002511395,4,1
-0.0003057169,0.0001858272,4,1
-0.0003013411,0.0001112771,4,1
-0.0002929138,3.899597e-05,4,1
-0.0002783279,-2.356124e-05,4,1
-0.000261149,-7.526008e-05,4,1
-0.0002483458,-0.0001157764,4,1
-0.0002468872,-0.0001441378,4,1
-0.0002622834,-0.0001606685,4,1
-0.0003097686,-0.0001716889,4,1
-0.0004060354,-0.0001869231,4,1
-0.0005549733,-0.0002105846,4,1
-0.0007308142,-0.0002415391,4,1
-0.0008910968,-0.0002718453,4,1
-0.0009944944,-0.0002948586,4,1
-0.001011349,-0.0003076617,4,1
-0.0009424714,-0.0003134961,4,1
-0.000819626,-0.0003146305,4,1
-0.0006821946,-0.0003156029,4,1
-0.000556594,-0.0003186821,4,1
-0.0004582204,-0.0003264613,4,1
-0.0003846427,-0.0003363473,4,1
-0.0003126857,-0.0003426678,4,1
-0.0002178775,-0.0003413713,4,1
-8.287715e-05,-0.000333106,4,1
9.733949e-05,-0.0003196545,4,1
0.0003180725,-0.0003011791,4,1
0.0005545259,-0.0002794623,4,1
0.0007611593,-0.0002566112,4,1
0.0008966461,-0.0002332737,4,1
0.0009421865,-0.0002125294,4,1
0.0009071803,-0.0001956746,4,1
0.0008206373,-0.0001844921,4,1
0.0007185361,-0.0001763888,4,1
0.0006397723,-0.0001689338,4,1
0.0006099523,-0.0001579134,4,1
0.000631507,-0.0001417068,4,1
0.0006809369,-0.0001204763,4,1
0.0007259911,-9.503204e-05,4,1
0.0007366874,-6.618442e-05,4,1
0.0006939021,-3.652646e-05,4,1
0.0006008766,-1.075808e-05,4,1
0.0004874308,6.258778e-06,4,1
0.0003906778,1.241726e-05,4,1
0.000329255,1.144487e-05,4,1
0.0002976523,1.241726e-05,4,1
0.000282094,2.424803e-05,4,1
0.0002668598,4.77475e-05,4,1
0.0002380122,7.6271e-05,4,1
0.000192796,0.0001018773,4,1
0.0001325077,0.0001216493,4,1
5.763349e-05,0.0001336421,4,1
-2.7937e-05,0.0001430419,4,1
-0.0001170729,0.0001514693,4,1
-0.000201509,0.0001594105,4,1
-0.0002708729,0.0001663793,4,1
-0.0003139823,0.0001699448,4,1
-0.0003250027,0.0001739964,4,1
-0.0003062031,0.0001843686,4,1
-0.0002608248,0.0001979821,4,1
-0.0001925954,0.0002109473,4,1
-0.0001088076,0.0002221298,4,1
-2.46957e-05,0.0002282883,4,1
4.288554e-05,0.0002282883,4,1
7.853991e-05,0.0002229401,4,1
7.740546e-05,0.0002125679,4,1
4.466826e-05,0.0001970097,4,1
-9.785688e-06,0.0001785342,4,1
-6.91016e-05,0.0001589243,4,1
-0.0001219349,0.0001404489,4,1
-0.0001655305,0.0001242423,4,1
-0.0001972953,0.0001128978,4,1
-0.0002175534,0.0001075496,4,1
-0.0002246843,0.0001041462,4,1
-0.0002194982,9.766362e-05,4,1
-0.0002058847,8.79397e-05,4,1
-0.0001927574,8.064677e-05,4,1
-0.0001880575,7.935024e-05,4,1
-0.0001985918,8.631905e-05,4,1
-0.0002327876,9.750156e-05,4,1
-0.0002971275,0.0001057669,4,1
-0.00038286,0.0001051186,4,1
-0.0004677822,9.26396e-05,4,1
-0.0005275843,7.011252e-05,4,1
-0.0005431426,3.850978e-05,4,1
-0.0005055434,-1.196227e-06,4,1
-0.0004172179,-4.300908e-05,4,1
-0.0002908069,-7.947377e-05,4,1
-0.000149486,-0.0001125351,4,1
-2.356124e-05,-0.000147055,4,1
6.362991e-05,-0.0001854645,4,1
0.0001083599,-0.0002271153,4,1
0.0001252147,-0.0002695764,4,1
0.0001318594,-0.0003143064,4,1
0.0001342904,-0.0003582261,4,1
0.0001305629,-0.0003924218,4,1
0.0001172735,-0.0004071698,4,1
9.814982e-05,-0.0003943667,4,1
7.740546e-05,-0.0003507711,4,1
5.341979e-05,-0.0002799486,4,1
2.359977e-05,-0.0001912988,4,1
-1.043395e-05,-9.730096e-05,4,1
-4.495386e-05,-1.25408e-05,4,1
-8.109443e-05,5.374392e-05,4,1
-0.0001216107,9.231547e-05,4,1
-0.0001658546,8.631905e-05,4,1
-0.000209126,3.60788e-05,4,1
-0.0002454286,-3.604027e-05,4,1
-0.0002713591,-9.827335e-05,4,1
-0.0002891863,-0.0001334415,4,1
-0.0002980999,-0.0001396,4,1
-0.0002929138,-0.0001264727,4,1
-0.0002700626,-0.0001101041,4,1
-0.0002277635,-9.973194e-05,4,1
-0.0001724993,-9.519411e-05,4,1
-0.0001263107,-8.984595e-05,4,1
-0.0001149661,-8.044617e-05,4,1
-0.000147055,-6.586029e-05,4,1
-0.0002130156,-4.884343e-05,4,1
-0.0002840002,-3.198864e-05,4,1
-0.0003259751,-2.09682e-05,4,1
-0.0003160891,-1.788895e-05,4,1
-0.0002449425,-1.837515e-05,4,1
-0.0001165867,-1.545797e-05,4,1
5.228533e-05,-1.844488e-06,4,1
0.0002357433,2.878586e-05,4,1
0.0003987811,7.918817e-05,4,1
0.0005115786,0.0001448246,4,1
0.0005626292,0.000220185,4,1
0.0005631154,0.0002981384,4,1
0.0005394538,0.0003749574,4,1
0.0005097958,0.0004485351,4,1
0.0004697657,0.0005180612,4,1
0.0004140152,0.0005830494,4,1
0.0003563199,0.0006423654,4,1
0.0003235827,0.0006877437,4,1
0.000341734,0.0007067053,4,1
0.0004232529,0.0006963331,4,1
0.0005457744,0.0006653786,4,1
0.0006767232,0.000631669,4,1
0.0007942207,0.0006157866,4,1
0.0008864359,0.000626807,4,1
0.0009428347,0.0006528996,4,1
0.0009520725,0.0006669993,4,1
0.0009139871,0.0006397723,4,1
0.000842192,0.0005608465,4,1
0.0007566215,0.0004444835,4,1
0.0006684579,0.0003237448,4,1
0.0005700842,0.00022764,4,1
0.0004564763,0.0001662173,4,1
0.0003281205,0.0001370455,4,1
0.0002017096,0.0001302388,4,1
0.0001000946,0.0001342904,4,1
4.547859e-05,0.0001389903,4,1
4.45062e-05,0.0001336421,4,1
8.923623e-05,0.0001120874,4,1
0.0001726999,7.140904e-05,4,1
0.0002934386,1.209313e-05,4,1
0.0004334631,-6.261898e-05,4,1
0.0005527431,-0.000142031,4,1
0.0005916389,-0.0002109087,4,1
0.0005080132,-0.000261311,4,1
0.0003117519,-0.0002979378,4,1
6.573675e-05,-0.0003290543,4,1
-0.0001468929,-0.0003579019,4,1
-0.0002626076,-0.0003873979,4,1
-0.0002726556,-0.0004149489,4,1
-0.0002170672,-0.000437314,4,1
-0.0001543479,-0.0004562756,4,1
-0.0001337657,-0.0004776682,4,1
-0.0001759026,-0.0005040849,4,1
-0.0002796244,-0.0005361738,4,1
-0.0004233763,-0.000571342,4,1
-0.0005676145,-0.0006018102,4,1
-0.0006839773,-0.0006209339,4,1
-0.0007593377,-0.0006282268,4,1
-0.0007975851,-0.0006306578,4,1
-0.000812333,-0.0006358439,4,1
-0.000814602,-0.0006353577,4,1
-0.0008053642,-0.0006121824,4,1
-0.0007836475,-0.0005530285,4,1
-0.0007510723,-0.0004651892,4,1
-0.0007133111,-0.0003728119,4,1
-0.000678305,-0.0002930758,4,1
-0.0006489712,-0.0002326255,4,1
-0.0006219063,-0.0001968091,4,1
-0.000589007,-0.0001874093,4,1
-0.0005360117,-0.0002037779,4,1
-0.000459841,-0.0002397564,4,1
-0.0003861013,-0.0002890242,4,1
-0.0003574158,-0.0003423437,4,1
-0.0003989045,-0.0003839945,4,1
-0.0004951713,-0.0004042526,4,1
-0.0006005137,-0.0003998769,4,1
-0.0006713362,-0.0003737844,4,1
-0.000688191,-0.0003321336,4,1
-0.0006437852,-0.0002793003,4,1
-0.0005488148,-0.0002199844,4,1
-0.0004188385,-0.0001621271,4,1
-0.0002705488,-0.0001081593,4,1
-0.0001115627,-5.921561e-05,4,1
6.119892e-05,-2.210265e-05,4,1
0.0002553532,2.207145e-06,4,1
0.000478031,1.582063e-05,4,1
0.0007123777,2.359977e-05,4,1
0.00092128,3.105477e-05,4,1
0.001060818,4.596478e-05,4,1
0.001098094,7.092284e-05,4,1
0.001025812,0.0001004187,4,1
0.0008689329,0.0001216493,4,1
0.0006747784,0.0001269974,4,1
0.0004934272,0.0001201907,4,1
0.0003582647,0.0001128978,4,1
0.000282256,0.0001203528,4,1
0.0002550291,0.0001503349,4,1
0.0002521119,0.0001979821,4,1
0.0002440086,0.0002547049,4,1
0.0002112714,0.0003133726,4,1
0.0001470936,0.0003715541,4,1
5.277153e-05,0.000428439,4,1
-6.116039e-05,0.0004793275,4,1
-0.0001780095,0.0005167646,4,1
-0.0002812451,0.0005357263,4,1
-0.0003551469,0.0005460985,4,1
-0.0003906392,0.0005631154,4,1
-0.0003839945,0.0005940699,4,1
-0.0003402368,0.0006334517,4,1
-0.0002695764,0.0006663511,4,1
-0.0001853024,0.0006770474,4,1
-0.0001011905,0.0006592202,4,1
-2.631635e-05,0.000614166,4,1
2.846173e-05,0.0005485295,4,1
6.217132e-05,0.0004734932,4,1
7.465034e-05,0.0003999155,4,1
6.200925e-05,0.000334117,4,1
1.565857e-05,0.0002816078,4,1
-7.18567e-05,0.0002446569,4,1
-0.0001977815,0.0002164575,4,1
-0.0003486642,0.0001884202,4,1
-0.0004953333,0.0001560072,4,1
-0.0006050515,0.0001232699,4,1
-0.0006546435,9.53947e-05,4,1
-0.0006439472,7.691926e-05,4,1
-0.0005869002,6.703327e-05,4,1
-0.0005024642,5.423012e-05,4,1
-0.0004136524,2.748934e-05,4,1
-0.0003413713,-2.145439e-05,4,1
-0.0002968033,-8.854943e-05,4,1
-0.0002734659,-0.0001588858,4,1
-0.0002502906,-0.0002220912,4,1
-0.0002055606,-0.0002746004,4,1
-0.0001374932,-0.000313334,4,1
-6.650855e-05,-0.0003394265,4,1
-1.707863e-05,-0.0003553089,4,1
-5.89612e-06,-0.0003658432,4,1
-2.712668e-05,-0.0003692465,4,1
-6.148453e-05,-0.0003622777,4,1
-9.29252e-05,-0.0003415334,4,1
-0.0001115627,-0.0003070135,4,1
-0.0001146419,-0.0002652006,4,1
-0.0001028112,-0.0002246843,4,1
-8.465986e-05,-0.000189192,4,1
-8.44978e-05,-0.0001574272,4,1
-0.0001311726,-0.0001212866,4,1
-0.0002258187,-7.65566e-05,4,1
-0.0003369955,-2.210265e-05,4,1
-0.0004186764,3.543054e-05,4,1
-0.0004340726,8.453633e-05,4,1
-0.0003732982,0.0001132219,4,1
-0.0002467252,0.0001179218,4,1
-6.974985e-05,0.0001117633,4,1
0.0001500107,0.0001119254,4,1
0.0004054258,0.000128294,4,1
0.0006830437,0.0001564933,4,1
0.0009629308,0.0001809652,4,1
0.001215267,0.0001830721,4,1
0.001408935,0.0001490383,4,1
0.001519464,7.853991e-05,4,1
0.001537291,-1.092015e-05,4,1
0.001471006,-9.535618e-05,4,1
0.001347837,-0.0001509446,4,1
0.001205705,-0.0001639098,4,1
0.001084966,-0.0001349001,4,1
0.001013819,-7.720486e-05,4,1
0.0009896717,-7.840905e-06,4,1
0.0009859442,5.714729e-05,4,1
0.0009737893,0.0001062531,4,1
0.0009433209,0.0001388282,4,1
0.0009105837,0.0001616794,4,1
0.000896484,0.0001799928,4,1
0.0009036149,0.0001976579,4,1
0.0009169042,0.0002158093,4,1
0.0009131767,0.0002320158,4,1
0.0008755776,0.0002436845,4,1
0.0007922759,0.0002535705,4,1
0.0006475514,0.0002624841,4,1
0.0004365423,0.0002666978,4,1
0.0001812893,0.0002595669,4,1
-8.012204e-05,0.0002402811,4,1
-0.0003130099,0.0002093267,4,1
-0.0004961436,0.0001748067,4,1
-0.0006227166,0.0001448246,4,1
-0.0006992114,0.0001260251,4,1
-0.0007421587,0.0001248906,4,1
-0.000772465,0.0001410971,4,1
-0.0008035815,0.0001726999,4,1
-0.0008483115,0.0002146748,4,1
-0.0009150825,0.0002602152,4,1
-0.00101459,0.000304297,4,1
-0.001150401,0.0003431926,4,1
-0.001300798,0.0003725265,4,1
-0.001423805,0.0003851676,4,1
-0.001465132,0.0003756057,4,1
-0.001380048,0.0003451374,4,1
-0.001154129,0.0003008936,4,1
-0.000817357,0.0002490327,4,1
-0.0004392588,0.0001961994,4,1
-9.454585e-05,0.0001461212,4,1
0.0001715654,9.863601e-05,4,1
0.0003527545,5.034055e-05,4,1
0.000470576,7.485573e-07,4,1
0.0005504743,-4.85193e-05,4,1
0.0006102764,-9.681477e-05,4,1
0.0006520892,-0.0001425172,4,1
0.0006699165,-0.0001838438,4,1
0.0006561409,-0.0002193361,4,1
0.000599256,-0.0002496423,4,1
0.0005029891,-0.0002718453,4,1
0.0003897054,-0.0002818933,4,1
0.0002817699,-0.00027849,4,1
0.000192958,-0.0002682799,4,1
0.0001300767,-0.0002605007,4,1
8.956036e-05,-0.000261149,4,1
6.379197e-05,-0.0002705488,4,1
4.223728e-05,-0.0002864312,4,1
2.327564e-05,-0.0003015032,4,1
7.555301e-06,-0.0003152788,4,1
1.720949e-06,-0.000325813,4,1
1.873781e-05,-0.0003314853,4,1
6.865393e-05,-0.0003316474,4,1
0.0001412592,-0.0003301888,4,1
0.0002130541,-0.0003305129,4,1
0.0002634565,-0.0003324577,4,1
0.0002814457,-0.0003366714,4,1
0.0002726942,-0.0003412093,4,1
0.0002435224,-0.0003473677,4,1
0.0001966855,-0.0003538503,4,1
0.0001291043,-0.0003577399,4,1
4.02925e-05,-0.0003553089,4,1
-6.423963e-05,-0.0003473677,4,1
-0.0001715269,-0.0003397507,4,1
-0.0002676316,-0.0003334301,4,1
-0.0003472056,-0.0003254889,4,1
-0.0004190006,-0.000313334,4,1
-0.0004909576,-0.0002951827,4,1
-0.000568911,-0.0002707109,4,1
-0.0006510781,-0.000241377,4,1
-0.0007269246,-0.0002094502,4,1
-0.0007787855,-0.0001770371,4,1
-0.0007946679,-0.0001459206,4,1
-0.0007732753,-0.0001162626,4,1
-0.0007251419,-8.952183e-05,4,1
-0.0006700397,-6.81292e-05,4,1
-0.0006266062,-5.257093e-05,4,1
-0.0006024585,-4.236082e-05,4,1
-0.0005935449,-3.701266e-05,4,1
-0.0005852795,-3.085418e-05,4,1
-0.0005619422,-1.691656e-05,4,1
-0.0005165638,7.717366e-06,4,1
-0.0004530343,4.385793e-05,4,1
-0.0003836704,8.534666e-05,4,1
-0.0003180339,0.0001281319,4,1
-0.0002596904,0.0001689724,4,1
-0.0002112329,0.0002070577,4,1
-0.0001737958,0.000239957,4,1
-0.0001386276,0.0002579462,4,1
-9.486997e-05,0.0002540567,4,1
-4.236082e-05,0.0002266676,4,1
9.824215e-06,0.00018291,4,1
5.844381e-05,0.0001342904,4,1
0.0001056048,9.053275e-05,4,1
0.0001568175,5.131294e-05,4,1
0.0002067336,1.954813e-05,4,1
0.0002407673,4.244267e-07,4,1
0.0002467637,1.234753e-06,4,1
0.000220023,2.651694e-05,4,1
0.0001697827,6.881599e-05,4,1
0.0001141943,0.000115977,4,1
7.432621e-05,0.0001548727,4,1
6.265751e-05,0.0001718896,4,1
7.756752e-05,0.0001633001,4,1
0.0001054428,0.0001409351,4,1
0.000130725,0.0001166253,4,1
0.0001404489,9.798775e-05,4,1
0.0001323456,8.923623e-05,4,1
0.0001114392,8.761557e-05,4,1
8.939829e-05,8.42122e-05,4,1
7.67572e-05,6.800567e-05,4,1
7.351589e-05,3.802358e-05,4,1
6.995045e-05,2.531276e-06,4,1
5.763349e-05,-1.869928e-05,4,1
2.651694e-05,-1.156841e-05,4,1
-2.712668e-05,2.327564e-05,4,1
-9.260107e-05,7.20573e-05,4,1
-0.0001549962,0.000118408,4,1
-0.0002028055,0.0001551968,4,1
-0.0002305186,0.0001827479,4,1
-0.000238784,0.0002007372,4,1
-0.0002272773,0.0002072198,4,1
-0.0001984297,0.0001989545,4,1
-0.0001551583,0.0001783722,4,1
-0.0001036215,0.0001488763,4,1
-4.884343e-05,0.0001182459,4,1
1.396819e-06,9.701536e-05,4,1
4.499239e-05,9.53947e-05,4,1
8.323981e-05,0.0001177597,4,1
0.0001198666,0.0001594105,4,1
0.0001574657,0.000202682,4,1
0.0001830721,0.0002308813,4,1
0.0001843686,0.0002368777,4,1
0.0001613553,0.0002253711,4,1
0.0001221355,0.0002125679,4,1
7.724339e-05,0.000210299,4,1
2.76514e-05,0.0002227781,4,1
-2.307504e-05,0.0002482223,4,1
-5.775702e-05,0.0002803113,4,1
-5.856735e-05,0.000311914,4,1
-2.080613e-05,0.0003397893,4,1
4.709924e-05,0.0003640991,4,1
0.0001367214,0.0003900295,4,1
0.0002383363,0.0004247115,4,1
0.0003537269,0.0004743035,4,1
0.0004846757,0.0005297299,4,1
0.0006237278,0.0005661946,4,1
0.0007600249,0.0005517708,4,1
0.000876712,0.0004752759,4,1
0.0009606619,0.0003589129,4,1
0.001007337,0.0002431983,4,1
0.001019492,0.0001577899,4,1
0.001006851,0.0001104668,4,1
0.0009726548,8.761557e-05,4,1
0.0009154457,6.751948e-05,4,1
0.0008389507,3.332369e-05,4,1
0.0007441425,-2.129233e-05,4,1
0.0006334517,-9.308726e-05,4,1
0.0005120648,-0.0001724993,4,1
0.0003882468,-0.0002478596,4,1
0.0002666978,-0.0003130099,4,1
0.0001508211,-0.0003637363,4,1
4.45062e-05,-0.0004011734,4,1
-4.187462e-05,-0.0004298589,4,1
-0.0001003802,-0.0004543308,4,1
-0.0001363587,-0.000479613,4,1
-0.0001647201,-0.0005086227,4,1
-0.0001961608,-0.0005379565,4,1
-0.0002386219,-0.0005619422,4,1
-0.0002977757,-0.0005697213,4,1
-0.0003695707,-0.0005538389,4,1
-0.0004434724,-0.0005138087,4,1
-0.0005014918,-0.0004528722,4,1
-0.0005373082,-0.0003783222,4,1
-0.0005535148,-0.0002989102,4,1
-0.0005535148,-0.0002254946,4,1
-0.0005332566,-0.0001656925,4,1
-0.0004857715,-0.0001227452,4,1
-0.0004143007,-9.179074e-05,4,1
-0.0003313232,-7.056019e-05,4,1
-0.0002509389,-5.338126e-05,4,1
-0.0001783336,-3.928157e-05,4,1
-0.0001115627,-3.134038e-05,4,1
-5.111234e-05,-3.182657e-05,4,1
3.827799e-06,-3.458168e-05,4,1
4.77475e-05,-3.069211e-05,4,1
7.789165e-05,-2.015787e-05,4,1
9.588091e-05,-1.416145e-05,4,1
0.0001185701,-1.918548e-05,4,1
0.0001592484,-3.717473e-05,4,1
0.0002169437,-5.937768e-05,4,1
0.0002842008,-7.542214e-05,4,1
0.0003553475,-7.995997e-05,4,1
0.0004179048,-7.428769e-05,4,1
0.0004577728,-6.035007e-05,4,1
0.0004657141,-4.219875e-05,4,1
0.0004428628,-2.388537e-05,4,1
0.0003966742,-7.840905e-06,4,1
0.0003362238,3.989864e-06,4,1
0.0002701012,4.80019e-06,4,1
0.0002034923,-1.156841e-05,4,1
0.0001329939,-4.365734e-05,4,1
5.455425e-05,-8.611845e-05,4,1
-3.279896e-05,-0.0001279313,4,1
-0.0001292278,-0.0001562927,4,1
-0.0002358668,-0.00016942,4,1
-0.0003452609,-0.0001705545,4,1
-0.0004452552,-0.0001609926,4,1
-0.0005202913,-0.0001405724,4,1
-0.0005588629,-0.0001102662,4,1
-0.0005559457,-7.315322e-05,4,1
-0.000516888,-3.166451e-05,4,1
-0.0004457413,9.824215e-06,4,1
-0.0003467195,4.77475e-05,4,1
-0.0002365151,7.837785e-05,4,1
-0.0001355484,0.0001023635,4,1
-6.148453e-05,0.0001154908,4,1
-2.777494e-05,0.0001185701,4,1
-3.830919e-05,0.0001164632,4,1
-7.639453e-05,0.000113384,4,1
-0.0001165867,0.0001094944,4,1
-0.0001396,0.0001002567,4,1
-0.0001433275,8.405014e-05,4,1
-0.0001332795,6.557468e-05,4,1
-0.0001138316,5.61749e-05,4,1
-7.882551e-05,6.184718e-05,4,1
-1.934754e-05,7.643307e-05,4,1
5.714729e-05,8.761557e-05,4,1
0.0001286181,8.291568e-05,4,1
0.0001736723,5.795762e-05,4,1
0.0001871237,2.262738e-05,4,1
0.0001782101,-8.975362e-06,4,1
0.0001689724,-2.291298e-05,4,1
0.0001749688,-1.918548e-05,4,1
0.0002020337,-3.789272e-06,4,1
0.0002496809,1.468618e-05,4,1
0.0003051073,3.494434e-05,4,1
0.0003503235,5.811968e-05,4,1
0.0003709058,8.242948e-05,4,1
0.0003621543,0.0001077117,4,1
0.000334117,0.000135911,4,1
0.0002983005,0.0001743205,4,1
0.000259729,0.0002234263,4,1
0.0002164575,0.0002762596,4,1
0.0001618415,0.0003209897,4,1
8.46984e-05,0.0003543751,4,1
-2.064406e-05,0.0003804677,4,1
-0.0001486757,0.0003969983,4,1
-0.0002818933,0.0003950536,4,1
-0.0003946908,0.0003684748,4,1
-0.0004692408,0.0003237448,4,1
-0.0005018159,0.0002759355,4,1
-0.0004941989,0.0002355812,4,1
-0.0004541688,0.0002033302,4,1
-0.0003929081,0.0001769136,4,1
-0.0003241924,0.0001539003,4,1
-0.0002579077,0.0001342904,4,1
-0.0001969711,0.0001205148,4,1
-0.0001410586,0.0001094944,4,1
-8.887356e-05,9.620504e-05,4,1
-3.928157e-05,7.594687e-05,4,1
1.072688e-06,4.564065e-05,4,1
2.603075e-05,5.448452e-06,4,1
2.262738e-05,-3.701266e-05,4,1
-2.46957e-05,-7.574627e-05,4,1
-0.0001209625,-0.0001020008,4,1
-0.0002486699,-0.0001114006,4,1
-0.0003796187,-0.0001054042,4,1
-0.0004901472,-9.098041e-05,4,1
-0.0005635628,-7.266703e-05,4,1
-0.0005916001,-5.613637e-05,4,1
-0.0005693972,-4.219875e-05,4,1
-0.0004930644,-2.955766e-05,4,1
-0.0003742705,-1.67545e-05,4,1
-0.0002399184,-5.409925e-06,4,1
-0.0001161005,-3.627206e-06,4,1
-1.934754e-05,-1.950961e-05,4,1
4.402e-05,-5.64605e-05,4,1
6.849186e-05,-0.0001070249,4,1
5.341979e-05,-0.0001583996,4,1
-6.176923e-08,-0.0001969711,4,1
-9.179074e-05,-0.0002126914,4,1
-0.0002071812,-0.0002021572,4,1
-0.0003136581,-0.0001679614,4,1
-0.0003833462,-0.0001237176,4,1
-0.000395177,-7.931171e-05,4,1
-0.0003428299,-4.398147e-05,4,1
-0.0002379736,-2.145439e-05,4,1
-9.29252e-05,-9.947754e-06,4,1
7.983644e-05,-1.844488e-06,4,1
0.0002582704,8.203562e-06,4,1
0.0004166082,2.327564e-05,4,1
0.0005334574,3.786152e-05,4,1
0.0005984457,4.709924e-05,4,1
0.0006195141,4.839576e-05,4,1
0.0006274553,4.483033e-05,4,1
0.000659058,3.915804e-05,4,1
0.0007400909,2.910999e-05,4,1
0.0008739569,8.365628e-06,4,1
0.001029702,-2.615429e-05,4,1
0.00115822,-7.574627e-05,4,1
0.001218508,-0.0001295519,4,1
0.00119274,-0.0001760647,4,1
0.001093069,-0.0002028055,4,1
