EMG1,EMG2,class,user
5.772582e-06,-5.062615e-05,4,1
6.638502e-05,-7.250496e-05,4,1
0.000111115,-9.746302e-05,4,1
0.0001522796,-0.0001136696,4,1
0.0001957132,-0.0001076731,4,1
0.00024255,-8.417367e-05,4,1
0.0002880904,-5.840528e-05,4,1
0.0003256896,-4.85193e-05,4,1
0.0003472443,-6.310517e-05,4,1
0.0003483787,-0.0001011905,4,1
0.000324393,-0.0001488377,4,1
0.0002757735,-0.0001885437,4,1
0.000210299,-0.0002079916,4,1
0.0001406109,-0.0001998883,4,1
8.226741e-05,-0.0001689338,4,1
4.580272e-05,-0.0001300382,4,1
3.429608e-05,-9.584238e-05,4,1
4.904402e-05,-6.91016e-05,4,1
8.599492e-05,-4.706071e-05,4,1
0.0001446626,-2.907146e-05,4,1
0.0002237505,-1.383732e-05,4,1
0.0003226103,2.04508e-06,4,1
0.0004388112,1.533444e-05,4,1
0.0005712186,1.987227e-05,4,1
0.0007050846,1.54965e-05,4,1
0.0008120479,4.47606e-06,4,1
0.0008718501,-1.20546e-05,4,1
0.0008801154,-3.21507e-05,4,1
0.0008410576,-5.078821e-05,4,1
0.0007631041,-6.229485e-05,4,1
0.000661327,-6.472583e-05,4,1
0.0005571189,-6.051213e-05,4,1
0.0004697657,-5.240886e-05,4,1
0.0004114222,-4.608832e-05,4,1
0.0003822504,-4.85193e-05,4,1
0.0003644232,-6.407757e-05,4,1
0.000329255,-8.352541e-05,4,1
0.0002581083,-9.341139e-05,4,1
0.000153252,-8.417367e-05,4,1
2.359977e-05,-5.240886e-05,4,1
-0.0001164247,-1.520357e-06,4,1
-0.0002489941,5.244739e-05,4,1
-0.0003579019,9.912221e-05,4,1
-0.0004340726,0.0001320215,4,1
-0.0004776682,0.0001511452,4,1
-0.0004987367,0.0001561692,4,1
-0.0005042469,0.0001493625,4,1
-0.0004959816,0.0001396385,4,1
-0.0004728062,0.0001386662,4,1
-0.0004358554,0.0001517934,4,1
-0.0003930701,0.0001741585,4,1
-0.000355471,0.0001992786,4,1
-0.0003326198,0.0002122438,4,1
-0.0003318095,0.000192958,4,1
-0.0003472056,0.0001304008,4,1
-0.0003624398,3.299956e-05,4,1
-0.0003575778,-7.428769e-05,4,1
-0.0003243544,-0.0001699062,4,1
-0.0002799486,-0.0002405667,4,1
-0.0002532078,-0.000281083,4,1
-0.0002629317,-0.0002919414,4,1
-0.0003105789,-0.0002828657,4,1
-0.0003809152,-0.0002656868,4,1
-0.0004561135,-0.0002421874,4,1
-0.0005188328,-0.0002094502,4,1
-0.0005611319,-0.0001703924,4,1
-0.0005825245,-0.0001256624,4,1
-0.0005804176,-7.218083e-05,4,1
-0.0005523803,-1.448558e-05,4,1
-0.0004971161,4.02925e-05,4,1
-0.0004118697,8.356394e-05,4,1
-0.0002987481,0.0001067393,4,1
-0.0001645581,0.000108522,4,1
-2.161646e-05,9.458438e-05,4,1
0.0001193804,8.210535e-05,4,1
0.0002590807,8.453633e-05,4,1
0.0004013741,0.0001046324,4,1
0.0005368608,0.0001409351,4,1
0.0006451205,0.0001869616,4,1
0.0007122156,0.0002381743,4,1
0.0007365254,0.0002992729,4,1
0.0007175637,0.0003781987,4,1
0.0006577615,0.000477869,4,1
0.0005640878,0.0005934216,4,1
0.0004525868,0.0007089743,4,1
0.0003313618,0.0007982723,4,1
0.0001992786,0.0008326302,4,1
7.043665e-05,0.0008002172,4,1
-3.117831e-05,0.0007152948,4,1
-8.692878e-05,0.0006188659,4,1
-0.0001024871,0.0005532294,4,1
-0.0001052422,0.0005355643,4,1
-0.0001217728,0.000547233,4,1
-0.0001618029,0.000544964,4,1
-0.0002117191,0.0004884033,4,1
-0.0002494803,0.0003593992,4,1
-0.0002616352,0.0001759412,4,1
-0.0002476975,-1.99958e-05,4,1
-0.000213988,-0.0001804405,4,1
-0.0001639098,-0.0002737901,4,1
-0.0001075111,-0.0002934,4,1
-6.375344e-05,-0.0002558008,4,1
-5.727083e-05,-0.0001908126,4,1
-9.568031e-05,-0.0001256624,4,1
-0.0001658546,-7.363943e-05,4,1
-0.0002394322,-4.673658e-05,4,1
-0.0002827037,-4.819517e-05,4,1
-0.0002700626,-7.282909e-05,4,1
-0.0001985918,-0.0001099421,4,1
-8.725291e-05,-0.0001423551,4,1
3.60788e-05,-0.0001582375,4,1
0.0001534141,-0.0001559686,4,1
0.000249843,-0.0001475412,4,1
0.0003182346,-0.0001460826,4,1
0.0003530786,-0.0001590478,4,1
0.000349027,-0.0001854645,4,1
0.0003091589,-0.0002212809,4,1
0.0002508154,-0.0002614731,4,1
0.0002034923,-0.000303448,4,1
0.0001900409,-0.0003483401,4,1
0.0002128921,-0.0003995528,4,1
0.0002538946,-0.000454817,4,1
0.0002842008,-0.0005079744,4,1
0.0002869559,-0.0005525423,4,1
0.0002618358,-0.0005841451,4,1
0.000225047,-0.0006014861,4,1
0.0001976579,-0.0006053757,4,1
0.0001905271,-0.0005966241,4,1
0.0001989545,-0.0005729626,4,1
0.0002081922,-0.0005283947,4,1
0.0001996027,-0.0004554653,4,1
0.0001641104,-0.0003559572,4,1
0.0001077117,-0.0002475355,4,1
4.515445e-05,-0.0001506204,4,1
-1.480971e-05,-8.628052e-05,4,1
-7.120844e-05,-6.423963e-05,4,1
-0.0001240417,-8.012204e-05,4,1
-0.0001765509,-0.0001130213,4,1
-0.0002378116,-0.0001383035,4,1
-0.0003144685,-0.0001413827,4,1
-0.0004079801,-0.0001185315,4,1
-0.0005110537,-7.947377e-05,4,1
-0.0006084549,-3.830919e-05,4,1
-0.000680574,-5.89612e-06,4,1
-0.0007008321,1.841368e-05,4,1
-0.0006580469,3.235129e-05,4,1
-0.0005693972,3.478228e-05,4,1
-0.0004676201,2.100672e-05,4,1
-0.0003848048,-6.868513e-06,4,1
-0.0003363473,-4.317115e-05,4,1
-0.0003147926,-8.206682e-05,4,1
-0.0003005308,-0.0001169109,4,1
-0.0002750866,-0.0001478653,4,1
-0.0002251705,-0.000169258,4,1
-0.0001334415,-0.0001770371,4,1
1.695509e-05,-0.0001712027,4,1
0.0002161334,-0.0001558065,4,1
0.0004242253,-0.0001413827,4,1
0.000596987,-0.0001383035,4,1
0.0007081639,-0.0001543479,4,1
0.0007582422,-0.0001895161,4,1
0.0007666696,-0.0002321393,4,1
0.0007567836,-0.0002658489,4,1
0.0007496527,-0.0002820554,4,1
0.0007561353,-0.0002780038,4,1
0.0007749349,-0.0002543422,4,1
0.0008008654,-0.000211557,4,1
0.000829551,-0.0001506204,4,1
0.0008600192,-7.65566e-05,4,1
0.0008929186,4.962256e-06,4,1
0.0009233868,8.956036e-05,4,1
0.0009408899,0.0001697827,4,1
0.0009267902,0.0002393087,4,1
0.0008702294,0.0002910076,4,1
0.0007673178,0.0003185587,4,1
0.0006180556,0.0003154794,4,1
0.0004255218,0.0002757735,4,1
0.0001932822,0.0002073819,4,1
-6.553616e-05,0.0001326697,4,1
-0.0003262992,8.210535e-05,4,1
-0.0005625904,7.724339e-05,4,1
-0.0007481552,0.0001245665,4,1
-0.0008672731,0.0002119197,4,1
-0.0009162169,0.000316938,4,1
-0.0009030896,0.000418553,4,1
-0.000846853,0.0005063924,4,1
-0.0007661444,0.0005747841,4,1
-0.0006847876,0.0006174073,4,1
-0.0006225546,0.000629238,4,1
-0.0005881967,0.0006109247,4,1
-0.000574097,0.0005734875,4,1
-0.0005656697,0.0005336195,4,1
-0.0005520562,0.000500234,4,1
-0.0005306636,0.0004743035,4,1
-0.0005023021,0.0004527488,4,1
-0.0004681064,0.0004323286,4,1
-0.0004313175,0.0004132049,4,1
-0.0003958252,0.0004008879,4,1
-0.0003695707,0.0003971604,4,1
-0.0003559572,0.0003958639,4,1
-0.0003467195,0.0003871123,4,1
-0.0003203028,0.0003618301,4,1
-0.000258718,0.0003224483,4,1
-0.0001695821,0.0002837146,4,1
-8.141856e-05,0.0002576221,4,1
-2.42095e-05,0.0002443328,4,1
-1.189254e-05,0.000232502,4,1
-3.522994e-05,0.0002115956,4,1
-6.780507e-05,0.0001833962,4,1
-8.190475e-05,0.0001564933,4,1
-6.667062e-05,0.0001365593,4,1
-2.356124e-05,0.0001276457,4,1
3.364782e-05,0.0001331559,4,1
8.680524e-05,0.0001503349,4,1
0.0001304008,0.000170431,4,1
0.0001720516,0.0001851789,4,1
0.0002137024,0.0001866375,4,1
0.0002555152,0.0001594105,4,1
0.0002965178,9.63671e-05,4,1
0.0003388169,8.851824e-06,4,1
0.0003819262,-8.02841e-05,4,1
0.0004195254,-0.0001473791,4,1
0.0004451317,-0.0001778474,4,1
0.0004480489,-0.0001724993,4,1
0.000418553,-0.0001483515,4,1
0.000356482,-0.0001245279,4,1
0.0002741528,-0.0001044318,4,1
0.000187772,-7.947377e-05,4,1
0.0001083599,-4.349527e-05,4,1
4.175109e-05,2.369211e-06,4,1
-1.448558e-05,4.839576e-05,4,1
-5.257093e-05,7.756752e-05,4,1
-5.856735e-05,7.789165e-05,4,1
-3.571614e-05,4.223728e-05,4,1
-1.237873e-05,-2.826114e-05,4,1
-2.129233e-05,-0.0001214487,4,1
-7.201877e-05,-0.0002109087,4,1
-0.0001457585,-0.0002694143,4,1
-0.0002133397,-0.000281083,4,1
-0.0002528836,-0.0002567732,4,1
-0.000253856,-0.0002225774,4,1
-0.000221443,-0.0001982676,4,1
-0.00016942,-0.0001977815,4,1
-0.0001112386,-0.0002277635,4,1
-5.629844e-05,-0.0002862691,4,1
-1.448558e-05,-0.0003671397,4,1
2.531276e-06,-0.0004569239,4,1
-1.497178e-05,-0.0005371462,4,1
-7.072225e-05,-0.0005966241,4,1
-0.0001502963,-0.0006353577,4,1
-0.0002253326,-0.0006603158,4,1
-0.0002647144,-0.0006747396,4,1
-0.0002596904,-0.0006672846,4,1
-0.0002232257,-0.0006228787,4,1
-0.0001818991,-0.0005384427,4,1
-0.0001548341,-0.000434883,4,1
-0.0001413827,-0.0003428299,4,1
-0.0001209625,-0.0002789762,4,1
-7.931171e-05,-0.0002392702,4,1
-2.226472e-05,-0.000206695,4,1
3.510641e-05,-0.0001648822,4,1
8.84259e-05,-0.0001018388,4,1
0.0001495245,-1.464765e-05,4,1
0.0002344468,8.534666e-05,4,1
0.0003534027,0.0001806411,4,1
0.0005036374,0.0002558394,4,1
0.0006725095,0.0003010556,4,1
0.0008439748,0.0003148312,4,1
0.001002637,0.0002976523,4,1
0.001129534,0.0002564877,4,1
0.001215429,0.0002044647,4,1
0.001255783,0.0001576278,4,1
0.001243628,0.0001227837,4,1
0.001174913,9.31258e-05,4,1
0.001053201,5.99024e-05,4,1
0.0008912979,1.938607e-05,4,1
0.000710757,-1.740276e-05,4,1
0.0005376711,-3.539201e-05,4,1
0.0003869503,-2.09682e-05,4,1
0.000252436,3.202716e-05,4,1
0.0001226217,0.000121001,4,1
-7.840905e-06,0.0002360674,4,1
-0.0001358725,0.0003662059,4,1
-0.0002549905,0.0005023408,4,1
-0.0003548227,0.000634262,4,1
-0.0004342347,0.0007490044,4,1
-0.0004990608,0.0008310095,4,1
-0.0005535148,0.0008642329,4,1
-0.000598893,0.0008326302,4,1
-0.0006306578,0.0007362012,4,1
-0.000648323,0.0005903424,4,1
-0.0006606399,0.0004188772,4,1
-0.0006749016,0.0002490327,4,1
-0.0006841394,0.0001025256,4,1
-0.0006768464,-1.010982e-05,4,1
-0.0006424887,-9.405965e-05,4,1
-0.0005755557,-0.0001653684,4,1
-0.0004698891,-0.0002415391,4,1
-0.0003238683,-0.0003319715,4,1
-0.0001606685,-0.0004279142,4,1
-3.21507e-05,-0.000514457,4,1
8.851824e-06,-0.0005846313,4,1
-5.32192e-05,-0.000638599,4,1
-0.0001888679,-0.0006817085,4,1
-0.0003478539,-0.0007115284,4,1
-0.0004864197,-0.000722873,4,1
-0.0005810658,-0.0007100698,4,1
-0.000618503,-0.0006729569,4,1
-0.0005869002,-0.0006194753,4,1
-0.0004776682,-0.0005569181,4,1
-0.0003060411,-0.0004890127,4,1
-0.000114804,-0.000415111,4,1
4.191315e-05,-0.0003366714,4,1
0.0001203528,-0.0002608248,4,1
0.0001088461,-0.0001994021,4,1
3.18651e-05,-0.0001642339,4,1
-6.602235e-05,-0.0001571031,4,1
-0.0001486757,-0.0001700683,4,1
-0.0002032917,-0.0001872472,4,1
-0.0002350565,-0.0001914609,4,1
-0.0002579077,-0.0001707166,4,1
-0.0002796244,-0.0001183694,4,1
-0.0002992343,-3.717473e-05,4,1
-0.0003117133,5.698522e-05,4,1
-0.0003091203,0.0001402868,4,1
-0.0002749245,0.000202844,4,1
-0.0001880575,0.0002451431,4,1
-5.159854e-05,0.0002718839,4,1
9.766362e-05,0.0002936006,4,1
0.0002124059,0.0003164518,4,1
0.0002679943,0.0003409237,4,1
0.0002684805,0.0003581026,4,1
0.0002360674,0.0003673404,4,1
0.0001923098,0.0003715541,4,1
0.0001535762,0.0003765781,4,1
0.0001279698,0.000386302,4,1
0.000118408,0.000401212,4,1
0.0001240803,0.0004193634,4,1
0.0001419075,0.0004326527,4,1
0.0001723757,0.0004367043,4,1
0.0002172679,0.0004328148,4,1
0.0002666978,0.0004287631,4,1
0.0003015418,0.0004287631,4,1
0.0003104554,0.0004337872,4,1
0.0002934386,0.0004430249,4,1
0.0002581083,0.0004529109,4,1
0.0002214815,0.0004566384,4,1
0.0001991165,0.0004436732,4,1
0.0001965235,0.0004089912,4,1
0.0002086784,0.0003530786,4,1
0.0002279642,0.0002851732,4,1
0.0002440086,0.0002153231,4,1
0.0002532463,0.0001490383,4,1
0.0002584324,8.858796e-05,4,1
0.0002582704,3.218923e-05,4,1
0.0002503292,-2.437157e-05,4,1
0.0002303951,-8.044617e-05,4,1
0.000195227,-0.0001302002,4,1
0.0001513072,-0.0001624512,4,1
0.0001107909,-0.0001700683,4,1
8.534666e-05,-0.0001515928,4,1
8.259155e-05,-0.0001128592,4,1
0.0001002567,-6.472583e-05,4,1
0.0001231079,-1.124428e-05,4,1
0.0001360731,4.888196e-05,4,1
0.0001265113,0.0001164632,4,1
8.988449e-05,0.0001795066,4,1
3.121684e-05,0.0002171058,4,1
-3.701266e-05,0.0002159713,4,1
-9.892161e-05,0.000180479,4,1
-0.0001486757,0.000128456,4,1
-0.0001861127,8.323981e-05,4,1
-0.0002123673,6.654708e-05,4,1
-0.0002342462,8.323981e-05,4,1
-0.0002564491,0.0001240803,4,1
-0.000276059,0.0001688103,4,1
-0.0002771934,0.0001981441,4,1
-0.0002418632,0.0002005751,4,1
-0.0001575893,0.0001709172,4,1
-2.258885e-05,0.0001122495,4,1
0.0001488763,3.883391e-05,4,1
0.0003250413,-3.134038e-05,4,1
0.0004597176,-8.854943e-05,4,1
0.0005119027,-0.0001311726,4,1
0.0004650658,-0.0001611547,4,1
0.0003459477,-0.0001864369,4,1
0.0002130541,-0.0002159328,4,1
0.0001151667,-0.0002519113,4,1
6.768154e-05,-0.0002945344,4,1
5.374392e-05,-0.0003548227,4,1
4.466826e-05,-0.0004543308,4,1
6.582909e-06,-0.0006021344,4,1
-7.866345e-05,-0.0007797579,4,1
-0.000206533,-0.0009461989,4,1
-0.0003491504,-0.001052352,4,1
-0.0004760476,-0.001063858,4,1
-0.0005669662,-0.0009831499,4,1
-0.0006244993,-0.0008453943,4,1
-0.0006611261,-0.0006927288,4,1
-0.0006839773,-0.0005549733,4,1
-0.0006902979,-0.0004444448,4,1
-0.0006731189,-0.0003624398,4,1
-0.0006197995,-0.0002998826,4,1
-0.0005251534,-0.0002467252,4,1
-0.0003993907,-0.0001994021,4,1
-0.0002697385,-0.00016942,4,1
-0.0001648822,-0.0001677994,4,1
-0.000104918,-0.0001904885,4,1
-9.405965e-05,-0.0002162569,4,1
-0.0001120489,-0.0002173914,4,1
-0.0001263107,-0.0001783336,4,1
-0.0001060525,-9.746302e-05,4,1
-3.231277e-05,6.90704e-06,4,1
8.988449e-05,0.0001161391,4,1
0.0002376881,0.0002182402,4,1
0.0003816021,0.0003148312,4,1
0.0004997478,0.0004106118,4,1
0.0005775391,0.0005055821,4,1
0.0006081695,0.0005955285,4,1
0.0005905044,0.0006731578,4,1
0.0005292437,0.0007326358,4,1
0.0004321665,0.0007741245,4,1
0.0003203414,0.0008005413,4,1
0.0002185644,0.000824689,4,1
0.000148228,0.0008600192,4,1
0.0001038221,0.0009089631,4,1
6.670914e-05,0.0009551517,4,1
2.878586e-05,0.0009626067,4,1
4.244267e-07,0.0008948633,4,1
-2.330684e-06,0.0007483562,4,1
2.829966e-05,0.0005533914,4,1
9.63671e-05,0.0003542131,4,1
0.0001895547,0.0001832341,4,1
0.0002825802,6.541262e-05,4,1
0.0003517821,1.517237e-05,4,1
0.000391164,3.397195e-05,4,1
0.0004143393,0.0001064152,4,1
0.0004410801,0.0002038164,4,1
0.0004887274,0.0002960316,4,1
0.0005624671,0.0003611819,4,1
0.0006530617,0.0003960259,4,1
0.000740577,0.0004179048,4,1
0.0007997309,0.0004474007,4,1
0.0008136685,0.0004887274,4,1
0.000775259,0.0005243817,4,1
0.0007007089,0.0005272989,4,1
0.0006232416,0.0004757621,4,1
0.000564574,0.0003710679,4,1
0.0005167646,0.0002359054,4,1
0.0004535592,0.00010366,4,1
0.0003495132,2.531276e-06,4,1
0.0001914995,-6.035007e-05,4,1
-1.270286e-05,-9.632857e-05,4,1
-0.0002391081,-0.0001250141,4,1
-0.0004554653,-0.0001566169,4,1
-0.0006350336,-0.0001906506,4,1
-0.0007614446,-0.0002243602,4,1
-0.0008235155,-0.0002506147,4,1
-0.000814602,-0.000261311,4,1
-0.0007363244,-0.000253856,4,1
-0.0006056998,-0.000233922,4,1
-0.0004546549,-0.0002154466,4,1
-0.0003151167,-0.0002112329,4,1
-0.0002010227,-0.0002261429,4,1
-0.0001075111,-0.0002564491,4,1
-2.372331e-05,-0.0002841623,4,1
6.168512e-05,-0.0002882139,4,1
0.0001462832,-0.0002605007,4,1
0.000222616,-0.0002183637,4,1
0.000274801,-0.0001951884,4,1
0.0002913317,-0.0002146363,4,1
0.000272208,-0.0002805968,4,1
0.0002279642,-0.0003792946,4,1
0.0001765894,-0.000484637,4,1
0.0001344524,-0.0005705316,4,1
0.0001182459,-0.0006188271,4,1
0.0001276457,-0.0006253097,4,1
0.0001430419,-0.0006006758,4,1
0.0001325077,-0.0005619422,4,1
7.286763e-05,-0.0005270981,4,1
-3.830919e-05,-0.0005086227,4,1
-0.0001775233,-0.0005102433,4,1
-0.0003149546,-0.0005215878,4,1
-0.0004271038,-0.000524181,4,1
-0.0005011677,-0.0005076503,4,1
-0.0005413599,-0.0004736166,4,1
-0.0005637249,-0.000432452,4,1
-0.0005843072,-0.0003917736,4,1
-0.0006044033,-0.0003510952,4,1
-0.0006115342,-0.0003079858,4,1
-0.0005898174,-0.0002609869,4,1
-0.0005352014,-0.0002100984,4,1
-0.0004614617,-0.0001585616,4,1
-0.0003857772,-0.0001114006,4,1
-0.0003141443,-7.072225e-05,4,1
-0.0002476975,-3.474375e-05,4,1
-0.0001853024,-2.492749e-06,4,1
-0.0001289037,2.943412e-05,4,1
-8.790117e-05,5.795762e-05,4,1
-7.218083e-05,8.712937e-05,4,1
-8.158062e-05,0.000120839,4,1
-0.0001021629,0.0001587623,4,1
-0.0001126972,0.000195227,4,1
-9.503204e-05,0.0002219677,4,1
-3.928157e-05,0.0002271538,4,1
5.131294e-05,0.0002012234,4,1
0.0001479039,0.0001464453,4,1
0.0002085163,8.04847e-05,4,1
0.0002104611,3.332369e-05,4,1
0.0001615174,3.462021e-05,4,1
9.101894e-05,9.847395e-05,4,1
4.061663e-05,0.0002179161,4,1
2.603075e-05,0.000368799,4,1
3.397195e-05,0.0005216266,4,1
4.02925e-05,0.0006517651,4,1
3.073064e-05,0.0007451148,4,1
8.527692e-06,0.0008026481,4,1
-1.124428e-05,0.000827282,4,1
-2.356124e-05,0.0008185305,4,1
-2.874733e-05,0.000775259,4,1
-2.777494e-05,0.0006961711,4,1
-2.437157e-05,0.0005824011,4,1
-2.258885e-05,0.0004352458,4,1
-2.826114e-05,0.0002600531,4,1
-4.317115e-05,6.930219e-05,4,1
-6.537409e-05,-0.0001211246,4,1
-9.081835e-05,-0.0003016653,4,1
-0.0001126972,-0.0004629203,4,1
-0.0001292278,-0.0005950035,4,1
-0.0001431655,-0.0006841394,4,1
-0.0001596961,-0.0007210903,4,1
-0.0001810887,-0.0007113663,4,1
-0.00019924,-0.0006698776,4,1
-0.000208964,-0.00061121,4,1
-0.0002050744,-0.0005478425,4,1
-0.0001883817,-0.0004854474,4,1
-0.00015451,-0.0004237005,4,1
-9.811128e-05,-0.0003553089,4,1
-3.409549e-05,-0.0002765452,4,1
8.851824e-06,-0.0001932436,4,1
1.079661e-05,-0.0001243659,4,1
-2.453363e-05,-8.498399e-05,4,1
-7.671866e-05,-7.526008e-05,4,1
-0.0001240417,-8.384954e-05,4,1
-0.0001554824,-9.503204e-05,4,1
-0.0001666649,-0.0001008664,4,1
-0.0001588858,-9.827335e-05,4,1
-0.0001381414,-8.806324e-05,4,1
-0.0001063766,-7.137051e-05,4,1
-5.905355e-05,-4.722278e-05,4,1
-1.034161e-06,-1.772689e-05,4,1
4.969229e-05,1.209313e-05,4,1
7.691926e-05,3.867184e-05,4,1
7.286763e-05,5.633696e-05,4,1
4.45062e-05,6.249545e-05,4,1
1.095867e-05,5.260946e-05,4,1
-7.354709e-06,3.624086e-05,4,1
-2.330684e-06,2.635488e-05,4,1
2.748934e-05,3.429608e-05,4,1
7.351589e-05,5.99024e-05,4,1
0.0001248906,9.604298e-05,4,1
0.0001707551,0.0001257009,4,1
0.0002130541,0.0001302388,4,1
0.0002535705,9.507057e-05,4,1
0.0002934386,4.962256e-06,4,1
0.0003310377,-0.0001366828,4,1
0.0003691231,-0.0002997205,4,1
0.0004104497,-0.0004410415,4,1
0.0004590694,-0.0005232086,4,1
0.0005135234,-0.0005288809,4,1
0.0005705704,-0.0004625961,4,1
0.0006156246,-0.0003478539,4,1
0.0006306967,-0.0002209568,4,1
0.0006097901,-0.0001206384,4,1
0.0005593878,-6.748094e-05,4,1
0.0004911583,-5.419158e-05,4,1
0.0004208219,-4.932962e-05,4,1
0.0003618301,-2.745081e-05,4,1
0.0003171001,2.716521e-05,4,1
0.000277232,0.0001161391,4,1
0.0002294227,0.0002339606,4,1
0.0001670276,0.0003652335,4,1
9.993253e-05,0.0004950479,4,1
5.1475e-05,0.0006135177,4,1
3.170304e-05,0.0007130259,4,1
3.364782e-05,0.0007927621,4,1
3.769945e-05,0.0008558056,4,1
3.332369e-05,0.0009117182,4,1
2.992031e-05,0.0009749237,4,1
3.818565e-05,0.00105466,4,1
5.179914e-05,0.001152061,4,1
5.260946e-05,0.00125238,4,1
1.938607e-05,0.001336168,4,1
-6.0188e-05,0.001389812,4,1
-0.0001762268,0.001415256,4,1
-0.0002992343,0.001427735,4,1
-0.0003987424,0.001450262,4,1
-0.0004525481,0.001500827,4,1
-0.0004574101,0.001565815,4,1
-0.0004240246,0.001592556,4,1
-0.0003635742,0.00152303,4,1
-0.0002823795,0.001328875,4,1
-0.0001823853,0.001031485,4,1
-7.752899e-05,0.0006840162,4,1
1.063454e-05,0.0003504856,4,1
6.071273e-05,8.356394e-05,4,1
6.41161e-05,-8.530812e-05,4,1
2.149292e-05,-0.0001551583,4,1
-6.796714e-05,-0.0001634236,4,1
-0.000204102,-0.0001632615,4,1
-0.0003744326,-0.0001943781,4,1
-0.0005505976,-0.0002645523,4,1
-0.0006985632,-0.0003512573,4,1
-0.0007912645,-0.0004183523,4,1
-0.0008210845,-0.0004407173,4,1
-0.0007959644,-0.0004193247,4,1
-0.0007256281,-0.0003739464,4,1
-0.0006188271,-0.0003322956,4,1
-0.0004825302,-0.000315765,4,1
-0.0003248407,-0.000330675,4,1
-0.0001575893,-0.0003656811,4,1
6.420843e-06,-0.0004097628,4,1
0.0001592484,-0.0004632444,4,1
0.0002987867,-0.0005329325,4,1
0.0004303838,-0.0006204477,4,1
0.0005589016,-0.0007168766,4,1
0.0006848265,-0.0008021229,4,1
0.000799893,-0.0008580354,4,1
0.0008869221,-0.0008799143,4,1
0.0009308419,-0.000874404,4,1
0.0009329488,-0.0008557665,4,1
0.000903939,-0.0008350222,4,1
0.000854509,-0.0008168708,4,1
0.0008021619,-0.0007954782,4,1
0.0007639144,-0.0007674409,4,1
0.0007370116,-0.0007301659,4,1
0.0006806127,-0.0006857601,4,1
0.0005392918,-0.0006428128,4,1
0.0002890628,-0.0006078067,4,1
-3.847125e-05,-0.0005849554,4,1
-0.0003762153,-0.000571504,4,1
-0.0006539953,-0.0005599973,4,1
-0.0008269189,-0.000549301,4,1
-0.0008836418,-0.0005408737,4,1
-0.0008308084,-0.0005361738,4,1
-0.0006839773,-0.0005316359,4,1
-0.0004734545,-0.0005258016,4,1
-0.0002412149,-0.0005173742,4,1
-2.583016e-05,-0.0005053814,4,1
0.0001551968,-0.0004877163,4,1
0.0003047831,-0.0004637306,4,1
0.0004354078,-0.0004313175,4,1
0.0005516087,-0.0003906392,4,1
0.0006407447,-0.0003476919,4,1
0.0006781818,-0.0003076617,4,1
0.0006541961,-0.0002746004,4,1
0.000577053,-0.0002441321,4,1
0.0004718725,-0.0002118811,4,1
0.0003756057,-0.000176875,4,1
0.0003183966,-0.0001353863,4,1
0.000309321,-8.465986e-05,4,1
0.000334117,-2.696461e-05,4,1
0.0003652335,3.073064e-05,4,1
0.0003772264,8.04847e-05,4,1
0.0003558337,0.0001218114,4,1
0.0002923041,0.0001509831,4,1
0.0001835583,0.0001701068,4,1
4.564065e-05,0.0001830721,4,1
-9.211487e-05,0.0001932822,4,1
-0.000199078,0.0002033302,4,1
-0.0002528836,0.0002185644,4,1
-0.0002451045,0.000242388,4,1
-0.0001835197,0.0002757735,4,1
-8.903562e-05,0.0003148312,4,1
9.500085e-06,0.0003477304,4,1
8.534666e-05,0.0003647473,4,1
0.0001245665,0.000366368,4,1
0.0001281319,0.0003606957,4,1
0.0001056048,0.0003537269,4,1
6.816773e-05,0.0003480546,4,1
2.781346e-05,0.0003418961,4,1
-8.651231e-06,0.0003401134,4,1
-3.701266e-05,0.0003423823,4,1
-5.921561e-05,0.0003461098,4,1
-7.137051e-05,0.0003477304,4,1
-7.60704e-05,0.0003487029,4,1
-8.725291e-05,0.0003527545,4,1
-0.000119666,0.0003611819,4,1
-0.0001789819,0.0003725265,4,1
-0.0002546664,0.0003804677,4,1
-0.0003206269,0.0003794953,4,1
-0.0003512573,0.0003658818,4,1
-0.0003334301,0.0003449753,4,1
-0.0002771934,0.0003226103,4,1
-0.000216581,0.0003030004,4,1
-0.0001854645,0.0002859836,4,1
-0.0001919471,0.0002728562,4,1
-0.0002245222,0.0002650771,4,1
-0.0002673075,0.0002654013,4,1
-0.0003136581,0.0002712356,4,1
-0.0003669776,0.0002807975,4,1
-0.0004355313,0.0002885766,4,1
-0.0005240189,0.0002923041,4,1
-0.0006321164,0.0002876042,4,1
-0.000755286,0.0002744769,4,1
-0.0008870451,0.0002538946,4,1
-0.001011835,0.0002315296,4,1
-0.001104213,0.0002083542,4,1
-0.001135005,0.0001814514,4,1
-0.001079255,0.0001492004,4,1
-0.0009322613,0.0001098185,4,1
-0.0007215765,6.233338e-05,4,1
-0.0004987367,1.1769e-05,4,1
-0.0003100927,-3.652646e-05,4,1
-0.0001806025,-7.736692e-05,4,1
-0.0001010285,-0.0001070249,4,1
-5.662256e-05,-0.0001267968,4,1
-3.069211e-05,-0.0001454344,4,1
-1.416145e-05,-0.0001726613,4,1
-3.465141e-06,-0.0002149604,4,1
-7.100305e-07,-0.000273628,4,1
-8.165035e-06,-0.0003421817,4,1
-1.545797e-05,-0.0004073319,4,1
-5.247859e-06,-0.0004507654,4,1
3.721326e-05,-0.0004632444,4,1
0.0001101427,-0.0004486585,4,1
0.0001864754,-0.0004186764,4,1
0.0002286124,-0.0003869116,4,1
0.0002106232,-0.0003611433,4,1
0.0001294284,-0.0003470436,4,1
2.855407e-06,-0.0003428299,4,1
-0.0001352242,-0.0003384541,4,1
-0.0002472114,-0.0003214373,4,1
-0.000303448,-0.0002862691,4,1
-0.0002934,-0.0002327876,4,1
-0.0002199844,-0.000161965,4,1
-9.989401e-05,-7.979791e-05,4,1
3.624086e-05,8.041497e-06,4,1
0.0001529279,9.053275e-05,4,1
0.0002328261,0.000158114,4,1
0.0002785285,0.0002030061,4,1
0.0003047831,0.0002247229,4,1
0.0003311998,0.0002265056,4,1
0.000368961,0.0002093267,4,1
0.0004222805,0.0001817755,4,1
0.0004832171,0.0001587623,4,1
0.0005389676,0.0001459591,4,1
0.0005903424,0.0001428799,4,1
0.0006451205,0.0001462832,4,1
0.0007020054,0.0001522796,4,1
0.000743008,0.0001597346,4,1
0.0007517595,0.0001697827,4,1
0.0007318255,0.0001840444,4,1
0.0006998986,0.0001991165,4,1
0.0006705648,0.0002114335,4,1
0.0006491721,0.0002247229,4,1
0.0006201624,0.0002477361,4,1
0.0005564707,0.0002832284,4,1
0.0004396215,0.0003287688,4,1
0.0002736666,0.0003778746,4,1
8.016057e-05,0.0004217943,4,1
-0.0001159385,0.0004477248,4,1
-0.000301017,0.0004394595,4,1
-0.0004658375,0.0003903536,4,1
-0.0005953276,0.0003088348,4,1
-0.0006693914,0.0002190506,4,1
-0.0006661501,0.000143204,4,1
-0.0005831727,9.247754e-05,4,1
-0.000442338,6.508849e-05,4,1
-0.0002744383,5.358185e-05,4,1
-0.0001057284,5.228533e-05,4,1
4.72613e-05,5.374392e-05,4,1
0.0001788584,5.341979e-05,4,1
0.0002877662,5.212327e-05,4,1
0.000373985,5.56887e-05,4,1
0.0004307079,6.751948e-05,4,1
0.0004461041,9.150514e-05,4,1
0.0004078567,0.0001266733,4,1
0.0003159656,0.0001623277,4,1
0.0001910133,0.0001819376,4,1
6.492643e-05,0.0001741585,4,1
-3.717473e-05,0.000143204,4,1
-0.0001084835,0.0001007429,4,1
-0.0001506204,5.730935e-05,4,1
-0.0001540238,1.403791e-05,4,1
-0.0001026491,-3.182657e-05,4,1
5.610517e-06,-8.125649e-05,4,1
0.0001487142,-0.000134576,4,1
0.0002856594,-0.0001948643,4,1
0.0003751195,-0.0002663351,4,1
0.0004096394,-0.0003481781,4,1
0.0004063981,-0.000432452,4,1
0.0003841952,-0.0005013297,4,1
0.0003503235,-0.0005436288,4,1
0.0003030004,-0.0005588629,4,1
0.0002534084,-0.0005528665,4,1
0.0002167816,-0.0005316359,4,1
0.0001950649,-0.0005013297,4,1
0.000180479,-0.0004634065,4,1
0.000168,-0.0004194868,4,1
0.0001597346,-0.0003692465,4,1
0.0001519555,-0.0003147926,4,1
0.0001420695,-0.0002642282,4,1
0.0001376938,-0.0002266291,4,1
0.0001534141,-0.0002079916,4,1
0.0001989545,-0.0002036158,4,1
0.0002678322,-0.0002034537,4,1
0.0003399513,-0.000201671,4,1
0.000388895,-0.0001947022,4,1
0.0004008879,-0.0001831956,4,1
0.0003791712,-0.0001699062,4,1
0.0003401134,-0.0001583996,4,1
0.0003025142,-0.0001452723,4,1
0.0002816078,-0.000127121,4,1
0.0002814457,-0.0001008664,4,1
0.0002906835,-7.282909e-05,4,1
0.0002914938,-4.916756e-05,4,1
0.0002780424,-3.68506e-05,4,1
0.0002496809,-3.879538e-05,4,1
0.0002098128,-4.932962e-05,4,1
0.0001508211,-6.245691e-05,4,1
6.055066e-05,-7.250496e-05,4,1
-6.002594e-05,-6.780507e-05,4,1
-0.0001951884,-4.916756e-05,4,1
-0.0003194925,-2.809907e-05,4,1
-0.0004159214,-1.416145e-05,4,1
-0.0004800992,-5.409925e-06,4,1
-0.0005206155,1.501031e-05,4,1
-0.000546708,6.395404e-05,4,1
-0.0005572423,0.0001459591,4,1
-0.0005471942,0.0002446569,4,1
-0.0005154294,0.000339141,4,1
-0.0004711856,0.0004122325,4,1
-0.0004369898,0.0004537212,4,1
-0.0004520619,0.0004670106,4,1
-0.0005527044,0.0004645796,4,1
-0.0007408622,0.0004568005,4,1
-0.0009724535,0.0004485351,4,1
-0.001183138,0.000435894,4,1
-0.001324946,0.0004133669,4,1
-0.001383289,0.0003775505,4,1
-0.001367407,0.0003328204,4,1
-0.001296584,0.000282094,4,1
-0.001179249,0.0002318537,4,1
-0.001016535,0.0001833962,4,1
-0.0008052022,0.0001368834,4,1
-0.0005449253,9.507057e-05,4,1
-0.0002428356,6.41161e-05,4,1
8.648112e-05,5.277153e-05,4,1
0.0004174185,6.395404e-05,4,1
0.0007250187,9.26396e-05,4,1
0.0009898337,0.0001294284,4,1
0.001209271,0.0001613553,4,1
0.001384787,0.0001859892,4,1
0.001505689,0.0002015475,4,1
0.001563546,0.0002067336,4,1
0.001562736,0.0001984683,4,1
0.001514116,0.0001757791,4,1
0.001429356,0.0001441764,4,1
0.001316396,0.0001117633,4,1
0.001178154,8.226741e-05,4,1
0.001014468,5.698522e-05,4,1
0.0008253373,3.656499e-05,4,1
0.0006083316,1.808955e-05,4,1
0.0003603715,-5.479652e-07,4,1
8.226741e-05,-2.566809e-05,4,1
-0.0002147983,-7.218083e-05,4,1
-0.0005076503,-0.0001468929,4,1
-0.0007622549,-0.0002412149,4,1
-0.0009471713,-0.0003316474,4,1
-0.001043276,-0.0003935563,4,1
-0.001052838,-0.0004183523,4,1
-0.0009966013,-0.0004133283,4,1
-0.0009037378,-0.0003911253,4,1
-0.0008008264,-0.0003642225,4,1
-0.0007095836,-0.0003384541,4,1
-0.0006411921,-0.0003160891,4,1
-0.0005993792,-0.0002977757,4,1
-0.000576528,-0.0002804347,4,1
-0.0005609698,-0.0002601766,4,1
-0.0005421702,-0.0002327876,4,1
-0.0005154294,-0.0001977815,4,1
-0.0004804233,-0.0001583996,4,1
-0.0004353692,-0.0001203142,4,1
-0.000380267,-8.563225e-05,4,1
-0.000325651,-5.419158e-05,4,1
-0.0002912931,-1.918548e-05,4,1
-0.000300855,2.554455e-05,4,1
-0.0003663294,8.648112e-05,4,1
-0.0004760476,0.0001639484,4,1
-0.0006014861,0.0002501671,4,1
-0.0007043975,0.000334117,4,1
-0.0007606342,0.000401212,4,1
-0.0007590136,0.000443349,4,1
-0.0006979149,0.0004613383,4,1
-0.0005860899,0.0004645796,4,1
-0.0004389346,0.0004610142,4,1
-0.000268604,0.0004525868,4,1
-9.19528e-05,0.0004412422,4,1
7.967438e-05,0.0004365423,4,1
0.0002466017,0.0004448076,4,1
0.0004157979,0.0004551798,4,1
0.0005940699,0.0004371906,4,1
0.0007809313,0.0003700955,4,1
0.0009585551,0.0002616738,4,1
0.001096635,0.0001430419,4,1
0.00117394,4.985435e-05,4,1
0.001189174,4.638125e-06,4,1
0.001158058,1.063454e-05,4,1
0.001105873,5.860588e-05,4,1
0.001053201,0.0001329939,4,1
0.001007175,0.0002120818,4,1
0.0009596896,0.0002773941,4,1
0.0008887049,0.0003154794,4,1
0.0007785003,0.0003230965,4,1
0.000626807,0.000297004,4,1
0.0004477248,0.0002320158,4,1
0.0002607014,0.0001281319,4,1
8.405014e-05,1.720949e-06,4,1
-5.905355e-05,-0.0001161005,4,1
-0.0001478653,-0.0001963229,4,1
-0.0001736337,-0.0002229016,4,1
-0.0001514308,-0.0001976194,4,1
-0.000114804,-0.0001361966,4,1
-0.0001002181,-5.905355e-05,4,1
-0.0001295519,4.80019e-06,4,1
-0.0001987538,3.688912e-05,4,1
-0.0002843243,3.543054e-05,4,1
-0.0003566054,5.772582e-06,4,1
-0.0003950149,-4.138842e-05,4,1
-0.0003890185,-0.0001013526,4,1
-0.0003368335,-0.0001686097,4,1
-0.0002410529,-0.0002310048,4,1
-0.0001089697,-0.0002713591,4,1
4.434413e-05,-0.0002734659,4,1
0.0002021958,-0.000231491,4,1
0.0003362238,-0.000156941,4,1
0.0004057499,-7.282909e-05,4,1
0.000383709,-3.858999e-07,4,1
0.0002765838,4.580272e-05,4,1
0.0001221355,5.666109e-05,4,1
-2.7937e-05,2.927205e-05,4,1
-0.0001295519,-2.907146e-05,4,1
-0.0001702304,-0.0001011905,4,1
-0.0001676373,-0.0001677994,4,1
-0.0001538618,-0.0002160948,4,1
-0.0001488377,-0.0002428356,4,1
-0.0001498101,-0.0002523975,4,1
-0.0001454344,-0.0002473734,4,1
-0.0001292278,-0.0002280877,4,1
-0.000102325,-0.0002005366,4,1
-7.623246e-05,-0.0001755785,4,1
-6.845333e-05,-0.0001666649,4,1
-8.482193e-05,-0.0001815749,4,1
-0.0001195039,-0.0002250084,4,1
-0.0001509446,-0.0002925897,4,1
-0.0001553203,-0.0003720016,4,1
-0.000122097,-0.000447362,4,1
-6.407757e-05,-0.0005081365,4,1
-4.275467e-06,-0.000554001,4,1
2.878586e-05,-0.0005841451,4,1
1.727922e-05,-0.0005911139,4,1
-3.960571e-05,-0.0005685869,4,1
-0.0001219349,-0.0005259637,4,1
-0.0001947022,-0.0004886886,4,1
-0.0002267911,-0.0004775062,4,1
-0.000201509,-0.0004954954,4,1
-0.0001285796,-0.0005211017,4,1
-3.150244e-05,-0.0005279084,4,1
7.546067e-05,-0.0004903093,4,1
0.0001895547,-0.0004032803,4,1
0.0003018659,-0.0002843243,4,1
0.0003854917,-0.0001564548,4,1
0.0004175806,-4.446767e-05,4,1
0.0003955397,3.834771e-05,4,1
0.0003396272,8.939829e-05,4,1
0.0002764217,0.0001119254,4,1
0.0002208333,0.0001132219,4,1
0.0001772377,0.000103498,4,1
0.0001479039,8.875003e-05,4,1
0.0001274836,7.335383e-05,4,1
0.000110953,6.444023e-05,4,1
9.733949e-05,6.768154e-05,4,1
9.134307e-05,8.46984e-05,4,1
9.474644e-05,0.0001177597,4,1
0.0001038221,0.0001628139,4,1
0.0001124116,0.0002096508,4,1
0.0001172735,0.0002511395,4,1
0.0001169494,0.0002890628,4,1
0.0001119254,0.0003289309,4,1
0.0001114392,0.0003743092,4,1
0.0001198666,0.0004277907,4,1
0.000135911,0.0004896998,4,1
0.000153252,0.0005525811,4,1
0.0001642725,0.0006075213,4,1
0.0001633001,0.0006462549,4,1
0.0001529279,0.0006660269,4,1
0.0001402868,0.0006682958,4,1
0.0001312112,0.0006603546,4,1
0.0001257009,0.0006516031,4,1
0.0001188942,0.0006525755,4,1
0.0001077117,0.0006648925,4,1
9.571884e-05,0.0006768853,4,1
8.599492e-05,0.0006721854,4,1
8.226741e-05,0.0006420412,4,1
8.242948e-05,0.00058937,4,1
8.275361e-05,0.0005294057,4,1
7.319176e-05,0.0004801379,4,1
4.239934e-05,0.0004545315,4,1
-1.3027e-05,0.000450804,4,1
-8.417367e-05,0.0004535592,4,1
-0.0001566169,0.0004474007,4,1
-0.00021415,0.0004239012,4,1
-0.0002545043,0.0003807918,4,1
-0.0002820554,0.0003239069,4,1
-0.0003021515,0.0002619979,4,1
-0.0003178718,0.0002013854,4,1
-0.0003259751,0.0001462832,4,1
-0.0003224097,9.944634e-05,4,1
-0.0003071755,5.957827e-05,4,1
-0.0002857829,2.424803e-05,4,1
-0.000268766,-7.354709e-06,4,1
-0.000276221,-3.782299e-05,4,1
-0.0003203028,-6.81292e-05,4,1
-0.0003865875,-9.503204e-05,4,1
-0.0004518998,-0.0001167488,4,1
-0.0004982505,-0.0001318209,4,1
-0.0005254775,-0.0001425172,4,1
-0.0005536768,-0.0001562927,4,1
-0.0006053757,-0.0001750923,4,1
-0.0006912703,-0.0002003745,4,1
-0.0008013126,-0.0002298704,4,1
-0.0009082757,-0.0002635799,4,1
-0.0009773155,-0.0002992343,4,1
-0.0009880118,-0.0003360231,4,1
-0.0009298304,-0.0003723258,4,1
-0.0008040677,-0.0004063595,4,1
-0.0006223925,-0.0004395829,4,1
-0.0004099249,-0.0004713477,4,1
-0.0002021572,-0.0004958195,4,1
-3.733679e-05,-0.000507002,4,1
6.508849e-05,-0.0005042469,4,1
0.0001151667,-0.0004946851,4,1
0.0001380179,-0.000482044,4,1
0.0001582761,-0.0004655133,4,1
0.0001955511,-0.0004418518,4,1
0.000262322,-0.0004092767,4,1
0.0003572923,-0.0003715154,4,1
0.0004696036,-0.0003316474,4,1
0.0005859666,-0.0002950206,4,1
0.000688392,-0.0002640662,4,1
0.0007609973,-0.0002357047,4,1
0.0008018378,-0.000206533,4,1
0.0008170719,-0.0001760647,4,1
0.0008207994,-0.0001468929,4,1
0.0008287407,-0.0001238797,4,1
0.0008536987,-0.0001109144,4,1
0.0009008598,-0.0001084835,4,1
0.0009734652,-0.0001094559,4,1
0.001070056,-0.0001018388,4,1
0.001177506,-7.671866e-05,4,1
0.001267776,-3.798505e-05,4,1
0.001312993,-4.923729e-06,4,1
0.001289817,-1.358292e-06,4,1
0.001190957,-3.749886e-05,4,1
0.001030836,-0.0001079973,4,1
0.0008352232,-0.0001914609,4,1
0.0006285898,-0.0002617972,4,1
0.0004214702,-0.0002945344,4,1
0.0002245608,-0.000281083,4,1
4.628891e-05,-0.0002298704,4,1
-0.0001081593,-0.0001580754,4,1
-0.0002399184,-7.801519e-05,4,1
-0.000355633,2.855407e-06,4,1
-0.0004650271,7.724339e-05,4,1
-0.0005648594,0.0001427178,4,1
-0.0006416783,0.0001932822,4,1
-0.0006800878,0.0002248849,4,1
-0.0006817085,0.0002363916,4,1
-0.0006622606,0.0002308813,4,1
-0.0006314681,0.0002185644,4,1
-0.0005893312,0.0002130541,4,1
-0.0005332566,0.0002242366,4,1
-0.0004716718,0.0002534084,4,1
-0.0004121938,0.0002940868,4,1
-0.0003533641,0.0003336308,4,1
-0.0002856209,0.0003610198,4,1
-0.0002003745,0.0003759298,4,1
-0.0001015147,0.0003900295,4,1
-1.448558e-05,0.0004120704,4,1
2.975825e-05,0.0004443214,4,1
9.986281e-06,0.000482893,4,1
-6.602235e-05,0.0005190336,4,1
-0.000169258,0.0005443158,4,1
-0.0002642282,0.0005587396,4,1
-0.0003309991,0.00056976,4,1
-0.0003728119,0.0005867769,4,1
-0.0004084663,0.0006083316,4,1
-0.0004543308,0.0006144901,4,1
-0.0005089468,0.000582077,4,1
-0.0005606457,0.0005050959,4,1
-0.0005937069,0.0004000776,4,1
-0.0005941931,0.0002931144,4,1
-0.000556756,0.0002080301,4,1
-0.000484475,0.0001500107,4,1
-0.0003906392,0.000108522,4,1
-0.0002888622,7.189524e-05,4,1
-0.0001870851,3.13789e-05,4,1
-8.530812e-05,-1.902341e-05,4,1
1.776542e-05,-7.898758e-05,4,1
0.0001201907,-0.0001439758,4,1
0.0002117576,-0.0002068571,4,1
0.0002806354,-0.0002632558,4,1
0.0003166139,-0.0003091203,4,1
0.0003153174,-0.0003433161,4,1
0.0002838767,-0.0003645466,4,1
0.0002357433,-0.0003723258,4,1
0.0001942546,-0.000362926,4,1
0.0001782101,-0.0003536883,4,1
0.0001876099,-0.0003776739,4,1
0.0001934442,-0.000452386,4,1
0.0001637863,-0.0005645352,4,1
9.020862e-05,-0.0006797637,4,1
-8.327101e-06,-0.0007629031,4,1
-0.0001052422,-0.0007919128,4,1
-0.0001747682,-0.0007666306,4,1
-0.0001981056,-0.0007018045,4,1
-0.0001613168,-0.0006189891,4,1
-5.791909e-05,-0.0005332566,4,1
8.875003e-05,-0.0004496309,4,1
0.0002357433,-0.0003694086,4,1
0.0003456236,-0.0002921034,4,1
0.0004065602,-0.00021415,4,1
0.0004321665,-0.0001355484,4,1
0.0004441593,-5.808115e-05,4,1
0.0004626348,1.144487e-05,4,1
0.0004849998,6.525056e-05,4,1
0.000500396,9.944634e-05,4,1
0.0004952099,0.0001154908,4,1
0.0004665244,0.0001229458,4,1
0.0004300596,0.0001351007,4,1
0.0004020224,0.0001652449,4,1
0.0003780367,0.0002167816,4,1
0.0003271482,0.0002830664,4,1
0.000220023,0.0003529166,4,1
4.628891e-05,0.0004141773,4,1
-0.0001880575,0.0004608521,4,1
-0.000454817,0.0004935893,4,1
-0.0007048837,0.000517575,4,1
-0.0008834797,0.0005394538,4,1
-0.0009525195,0.0005715428,4,1
-0.0009013069,0.0006229175,4,1
-0.0007517206,0.0006979538,4,1
-0.0005483287,0.0007841726,4,1
-0.0003300267,0.0008499712,4,1
-0.0001266348,0.0008632605,4,1
4.628891e-05,0.0008028102,4,1
0.0001923098,0.0006665131,4,1
0.0003247172,0.0004720346,4,1
0.000455666,0.0002568118,4,1
0.0005921251,5.893001e-05,4,1
0.0007289083,-8.887356e-05,4,1
0.0008358715,-0.0001703924,4,1
0.0008872462,-0.0001958367,4,1
0.0008807636,-0.0001874093,4,1
0.0008311716,-0.0001663408,4,1
0.0007606731,-0.0001465688,4,1
0.0006838542,-0.0001334415,4,1
0.0006071971,-0.0001266348,4,1
0.0005337815,-0.0001290658,4,1
0.0004692795,-0.0001391138,4,1
0.000408505,-0.0001553203,4,1
0.0003321722,-0.0001721751,4,1
0.0002128921,-0.000186761,4,1
3.462021e-05,-0.0002002124,4,1
-0.0001948643,-0.0002159328,4,1
-0.0004395829,-0.0002358668,4,1
-0.0006481609,-0.0002540181,4,1
-0.0007770028,-0.0002603387,4,1
-0.0008050401,-0.0002506147,4,1
-0.0007454,-0.0002311669,4,1
-0.00064103,-0.0002125294,4,1
-0.0005446012,-0.0002026434,4,1
-0.0004903093,-0.0002062088,4,1
-0.000479613,-0.0002173914,4,1
-0.0004930644,-0.0002267911,4,1
-0.0005037607,-0.0002326255,4,1
-0.0004927403,-0.0002319772,4,1
-0.0004540067,-0.0002248464,4,1
-0.0003961493,-0.00021415,4,1
-0.0003348887,-0.0002010227,4,1
-0.0002908069,-0.0001797922,4,1
-0.0002742763,-0.0001483515,4,1
-0.0002838381,-0.0001045939,4,1
-0.0003037722,-5.386745e-05,4,1
-0.0003159271,-4.437533e-06,4,1
-0.00030831,3.364782e-05,4,1
-0.0002796244,5.358185e-05,4,1
-0.0002395943,4.871989e-05,4,1
-0.0001968091,2.376183e-05,4,1
-0.0001616409,-1.318906e-05,4,1
-0.0001376552,-5.856735e-05,4,1
-0.0001230693,-0.0001131834,4,1
-0.000112373,-0.0001807646,4,1
-0.0001016767,-0.0002682799,4,1
-9.341139e-05,-0.0003718396,4,1
-8.871149e-05,-0.0004773441,4,1
-8.514606e-05,-0.0005572423,4,1
-8.141856e-05,-0.0005771763,4,1
-7.720486e-05,-0.000519319,4,1
-8.692878e-05,-0.0003942046,4,1
-0.0001188556,-0.0002306807,4,1
-0.0001802784,-6.650855e-05,4,1
-0.0002721694,6.476436e-05,4,1
-0.0003925839,0.000145797,4,1
-0.0005352014,0.0001762653,4,1
-0.0006945116,0.0001715654,4,1
-0.0008620871,0.0001521176,4,1
-0.001015077,0.0001310491,4,1
-0.001112964,0.0001143563,4,1
-0.00112285,0.0001015532,4,1
-0.001024963,8.988449e-05,4,1
-0.0008285395,8.080883e-05,4,1
-0.0005723144,8.453633e-05,4,1
-0.0003029619,0.0001012291,4,1
-5.257093e-05,0.0001231079,4,1
0.0001714034,0.0001331559,4,1
0.0003807918,0.0001224596,4,1
0.0005927734,9.426025e-05,4,1
0.0008167478,5.974033e-05,4,1
0.001054174,3.18651e-05,4,1
0.001297758,1.533444e-05,4,1
0.001532754,8.041497e-06,4,1
0.001743277,7.23117e-06,4,1
0.001911501,1.22552e-05,4,1
0.00202673,1.954813e-05,4,1
0.002094798,2.992031e-05,4,1
0.002131101,4.418206e-05,4,1
0.0021452,6.541262e-05,4,1
0.002133207,0.0001002567,4,1
0.002083129,0.0001503349,4,1
0.001982972,0.0002072198,4,1
0.001828523,0.0002602152,4,1
0.001620107,0.0003028383,4,1
0.001355778,0.0003307136,4,1
0.001039102,0.000346596,4,1
0.0006872575,0.0003593992,4,1
0.0003349273,0.0003734989,4,1
2.829966e-05,0.0003940812,4,1
-0.0002019951,0.0004174185,4,1
-0.0003643846,0.0004409181,4,1
-0.0004950092,0.0004640934,4,1
-0.0006176926,0.0004906721,4,1
-0.0007371347,0.0005153061,4,1
-0.0008525252,0.0005285954,4,1
-0.0009627296,0.0005258403,4,1
-0.001063372,0.0005012064,4,1
-0.001136302,0.0004522626,4,1
-0.001160611,0.0003820883,4,1
-0.001128036,0.0002965178,4,1
-0.001052352,0.0002096508,4,1
-0.0009607848,0.0001402868,4,1
-0.0008802384,0.0001004187,4,1
-0.0008251361,8.923623e-05,4,1
-0.0007922369,9.037068e-05,4,1
-0.000762579,8.04847e-05,4,1
-0.0007149318,4.531652e-05,4,1
-0.0006340612,-1.092015e-05,4,1
-0.0005206155,-7.007399e-05,4,1
-0.0003930701,-0.0001180453,4,1
-0.0002744383,-0.0001481895,4,1
-0.0001780095,-0.0001608306,4,1
-0.0001079973,-0.0001614788,4,1
-6.375344e-05,-0.000159534,4,1
-3.652646e-05,-0.0001587237,4,1
-1.464765e-05,-0.0001543479,4,1
5.610517e-06,-0.0001365208,4,1
1.306552e-05,-9.859748e-05,4,1
-7.678839e-06,-4.689865e-05,4,1
-6.132246e-05,6.096713e-06,4,1
-0.0001457585,4.077869e-05,4,1
-0.0002595283,4.645098e-05,4,1
-0.0003964735,2.76514e-05,4,1
-0.0005358497,9.106227e-07,4,1
-0.0006374646,-1.772689e-05,4,1
-0.0006713362,-2.177852e-05,4,1
-0.0006405439,-1.480971e-05,4,1
-0.0005705316,-7.030578e-06,4,1
-0.0004843129,-1.562004e-05,4,1
-0.0003880461,-5.192267e-05,4,1
-0.0002754107,-0.0001125351,4,1
-0.0001425172,-0.0001827094,4,1
-6.176923e-08,-0.0002460769,4,1
0.0001338042,-0.0002976137,4,1
0.0002438466,-0.0003468815,4,1
0.0003235827,-0.0004006872,4,1
0.0003704196,-0.000457248,4,1
0.0003848434,-0.0005076503,4,1
0.0003746333,-0.0005352014,4,1
0.0003589129,-0.0005264499,4,1
0.000354051,-0.0004786406,4,1
0.0003619922,-0.0004070078,4,1
0.0003765781,-0.0003428299,4,1
0.0003893813,-0.000310903,4,1
0.0003905157,-0.0003102548,4,1
0.0003780367,-0.0003191683,4,1
0.0003545372,-0.0003154408,4,1
0.0003240689,-0.0002880518,4,1
0.0002876042,-0.0002410529,4,1
0.0002368777,-0.0001844921,4,1
0.0001707551,-0.0001263107,4,1
0.0001047945,-6.796714e-05,4,1
6.03886e-05,-1.25408e-05,4,1
3.721326e-05,3.915804e-05,4,1
2.538249e-05,8.777764e-05,4,1
1.938607e-05,0.0001310491,4,1
2.084466e-05,0.0001623277,4,1
3.721326e-05,0.00018291,4,1
7.286763e-05,0.0001979821,4,1
0.0001239182,0.0002161334,4,1
0.0001892305,0.0002420638,4,1
0.0002683184,0.0002807975,4,1
0.0003569682,0.0003297412,4,1
0.0004430249,0.0003790091,4,1
0.000502827,0.0004180668,4,1
0.000515144,0.0004376768,4,1
0.0004707381,0.0004397836,4,1
0.0003866261,0.0004352458,4,1
0.0002885766,0.0004402698,4,1
0.0001991165,0.0004663623,4,1
0.000130725,0.0005191956,4,1
8.534666e-05,0.0005924492,4,1
6.03886e-05,0.0006619753,4,1
5.293359e-05,0.0006942263,4,1
6.670914e-05,0.0006728336,4,1
0.0001094944,0.000609466,4,1
0.0001887444,0.0005336195,4,1
0.0002908455,0.0004642555,4,1
0.0003757678,0.0003987811,4,1
0.0004013741,0.0003281205,4,1
0.0003535648,0.00024255,4,1
0.0002504913,0.0001389903,4,1
0.0001291043,2.441009e-05,4,1
1.760335e-05,-8.952183e-05,4,1
-6.91016e-05,-0.0001880575,4,1
-0.0001308485,-0.0002627696,4,1
-0.0001747682,-0.000310741,4,1
-0.0002138259,-0.0003360231,4,1
-0.0002561249,-0.0003416954,4,1
-0.0003006929,-0.0003301888,4,1
-0.0003450988,-0.0003062031,4,1
-0.0003851289,-0.0002734659,4,1
-0.0004131662,-0.0002324634,4,1
-0.0004329382,-0.0001903264,4,1
-0.0004577342,-0.0001804405,4,1
-0.0004980884,-0.0002376495,4,1
-0.0005531906,-0.000362926,4,1
-0.0006189891,-0.0005251534,4,1
-0.0006901358,-0.0006804119,4,1
-0.0007596618,-0.0007865646,4,1
-0.0008136295,-0.0008233535,4,1
-0.0008424772,-0.0007961266,4,1
-0.0008440978,-0.0007280591,4,1
-0.0008249741,-0.0006407059,4,1
-0.0007889956,-0.0005484907,4,1
-0.0007368106,-0.0004617858,4,1
-0.0006685811,-0.0003838324,4,1
-0.0005891691,-0.0003138202,4,1
-0.0005081365,-0.0002506147,4,1
-0.0004316416,-0.0001959987,4,1
-0.0003609812,-0.0001528894,4,1
-0.0002851347,-0.0001199901,4,1
-0.0001912988,-9.2439e-05,4,1
-7.752899e-05,-6.618442e-05,4,1
3.948217e-05,-3.798505e-05,4,1
0.0001302388,-6.058186e-06,4,1
0.0001660552,3.073064e-05,4,1
0.0001195424,7.562274e-05,4,1
-2.210265e-05,0.0001323456,4,1
-0.0002504527,0.0002023578,4,1
-0.0005238568,0.0002809595,4,1
-0.0007698719,0.000361506,4,1
-0.0009121653,0.000435894,4,1
-0.0009073032,0.0004961824,4,1
-0.0007573929,0.0005436675,4,1
-0.0005053814,0.000586939,4,1
-0.000208964,0.0006465791,4,1
9.101894e-05,0.0007324737,4,1
0.0003781987,0.0008305234,4,1
0.0006525755,0.0009037769,4,1
0.0009227386,0.000916418,4,1
0.00119355,0.0008522401,4,1
0.001459338,0.0007245325,4,1
0.001698871,0.0005639257,4,1
0.001886381,0.0004033189,4,1
0.002009065,0.0002709115,4,1
0.002081022,0.0001798307,4,1
0.002127211,0.0001305629,4,1
0.002162379,0.0001090082,4,1
0.002191389,9.150514e-05,4,1
0.002206785,6.071273e-05,4,1
0.002188796,1.452411e-05,4,1
0.002110518,-3.409549e-05,4,1
0.001949749,-7.266703e-05,4,1
0.00170665,-9.503204e-05,4,1
0.001396618,-0.0001015147,4,1
0.001043315,-9.778715e-05,4,1
0.0006725095,-8.984595e-05,4,1
0.0003080245,-8.125649e-05,4,1
-3.425755e-05,-7.736692e-05,4,1
-0.0003428299,-8.109443e-05,4,1
-0.0006113721,-8.919769e-05,4,1
-0.0008325911,-9.438378e-05,4,1
-0.001002598,-9.632857e-05,4,1
-0.001113126,-0.0001007043,4,1
-0.001152832,-0.0001110765,4,1
-0.00111815,-0.0001263107,4,1
-0.001018804,-0.0001475412,4,1
-0.0008813728,-0.0001822232,4,1
-0.000742969,-0.0002365151,4,1
-0.0006358439,-0.0003023136,4,1
-0.0005758798,-0.0003630881,4,1
-0.0005653456,-0.0004031182,4,1
-0.0005906277,-0.0004164075,4,1
-0.0006366542,-0.0004061974,4,1
-0.0006920806,-0.0003796187,4,1
-0.0007507482,-0.0003468815,4,1
-0.000804716,-0.0003194925,4,1
-0.000849608,-0.0003044204,4,1
-0.0008808867,-0.0003018274,4,1
-0.0008875313,-0.0003040963,4,1
-0.0008638698,-0.0003016653,4,1
-0.0008111986,-0.0002828657,4,1
-0.0007358382,-0.0002405667,4,1
-0.0006530228,-0.0001830335,4,1
-0.0005852795,-0.0001237176,4,1
-0.0005454115,-7.60704e-05,4,1
-0.0005347152,-4.722278e-05,4,1
-0.0005358497,-3.166451e-05,4,1
-0.0005280706,-2.031993e-05,4,1
-0.0004959816,-6.058186e-06,4,1
-0.0004368278,1.079661e-05,4,1
-0.0003582261,1.760335e-05,4,1
-0.0002673075,8.689758e-06,4,1
-0.0001687718,-7.678839e-06,4,1
-7.250496e-05,-2.356124e-05,4,1
7.879432e-06,-3.960571e-05,4,1
6.168512e-05,-5.759496e-05,4,1
8.956036e-05,-7.428769e-05,4,1
0.0001000946,-8.709085e-05,4,1
0.0001009049,-9.276313e-05,4,1
9.620504e-05,-8.935975e-05,4,1
9.118101e-05,-7.639453e-05,4,1
8.761557e-05,-5.451572e-05,4,1
9.037068e-05,-2.728874e-05,4,1
0.0001070634,-1.196227e-06,4,1
0.0001385041,2.149292e-05,4,1
0.0001748067,3.737532e-05,4,1
0.0002007372,4.288554e-05,4,1
0.0002008992,3.55926e-05,4,1
0.0001671896,2.295151e-05,4,1
0.0001080358,1.744129e-05,4,1
4.337174e-05,2.538249e-05,4,1
-5.734056e-06,4.483033e-05,4,1
-2.46957e-05,6.816773e-05,4,1
-8.813297e-06,8.664318e-05,4,1
3.478228e-05,9.733949e-05,4,1
9.393612e-05,0.0001057669,4,1
0.0001564933,0.0001158149,4,1
0.0002114335,0.0001274836,4,1
0.0002475741,0.0001346145,4,1
0.0002587566,0.0001289422,4,1
0.0002482223,0.0001051186,4,1
0.0002269918,7.059871e-05,4,1
0.0002034923,3.737532e-05,4,1
0.0001785342,1.322759e-05,4,1
0.0001490383,-3.789272e-06,4,1
0.0001117633,-2.599222e-05,4,1
6.687121e-05,-6.537409e-05,4,1
1.468618e-05,-0.0001185315,4,1
-4.317115e-05,-0.0001590478,4,1
-0.0001002181,-0.0001600202,4,1
-0.0001498101,-0.0001118868,4,1
-0.0001854645,-2.42095e-05,4,1
-0.0002024813,7.918817e-05,4,1
-0.0002032917,0.000170593,4,1
-0.0001927574,0.0002261814,4,1
-0.0001762268,0.0002359054,4,1
-0.0001543479,0.0002073819,4,1
-0.0001302002,0.0001667035,4,1
-0.0001070249,0.0001448246,4,1
-8.757704e-05,0.0001548727,4,1
-6.91016e-05,0.0001934442,4,1
-4.462973e-05,0.0002466017,4,1
-1.545797e-05,0.0002997591,4,1
1.12828e-05,0.0003412479,4,1
2.684107e-05,0.0003658818,4,1
2.586868e-05,0.0003769022,4,1
9.338019e-06,0.000376416,4,1
-1.513384e-05,0.0003696093,4,1
-4.171256e-05,0.0003587509,4,1
-7.18567e-05,0.0003462718,4,1
-0.0001164247,0.0003295791,4,1
-0.000181737,0.0003085106,4,1
-0.0002545043,0.000284687,4,1
-0.0003099306,0.0002571359,4,1
-0.0003225718,0.0002227781,4,1
-0.0002752487,0.0001782101,4,1
-0.0001728234,0.0001271595,4,1
-4.349527e-05,7.789165e-05,4,1
6.233338e-05,3.494434e-05,4,1
9.328786e-05,-2.492749e-06,4,1
2.408596e-05,-3.247483e-05,4,1
-0.0001242038,-5.192267e-05,4,1
-0.0002895104,-5.824322e-05,4,1
-0.0004071698,-4.949169e-05,4,1
-0.0004491447,-2.988179e-05,4,1
-0.0004238625,-5.734056e-06,4,1
-0.0003519055,1.630683e-05,4,1
-0.000246401,3.429608e-05,4,1
-0.0001055663,4.499239e-05,4,1
7.432621e-05,4.969229e-05,4,1
0.0002910076,5.050261e-05,4,1
0.0005260024,4.645098e-05,4,1
0.0007512733,3.154097e-05,4,1
0.0009382969,-3.627206e-06,4,1
0.001068598,-5.872941e-05,4,1
0.001138448,-0.0001195039,4,1
0.00115271,-0.0001652063,4,1
0.001121269,-0.0001861127,4,1
0.001056929,-0.0001820611,4,1
0.0009765443,-0.0001630995,4,1
0.0008998874,-0.0001428413,4,1
0.0008340888,-0.0001308485,4,1
0.0007739625,-0.0001243659,4,1
0.0007099467,-0.0001167488,4,1
0.0006358828,-0.0001026491,4,1
0.0005580913,-8.287715e-05,4,1
0.0004822447,-6.359137e-05,4,1
0.0003995914,-6.342931e-05,4,1
0.0002986247,-0.0001041077,4,1
0.0001752929,-0.0001836818,4,1
4.402e-05,-0.0002702246,4,1
-6.974985e-05,-0.0003245165,4,1
-0.0001449482,-0.0003243544,4,1
-0.0001757406,-0.0002681178,4,1
-0.0001723372,-0.0001723372,4,1
-0.0001558065,-5.840528e-05,4,1
-0.0001524032,4.888196e-05,4,1
-0.000176713,0.0001315353,4,1
-0.0002225774,0.0001822617,4,1
-0.0002679557,0.0002044647,4,1
-0.0002898345,0.0002086784,4,1
-0.0002783279,0.0001992786,4,1
-0.0002391081,0.0001775618,4,1
-0.0001830335,0.000138342,4,1
-0.0001173971,8.178122e-05,4,1
-3.960571e-05,2.035846e-05,4,1
4.936815e-05,-3.247483e-05,4,1
0.0001415833,-6.342931e-05,4,1
0.0002290986,-6.683268e-05,4,1
0.0003098072,-4.770897e-05,4,1
0.0003804677,-1.497178e-05,4,1
0.0004365423,1.452411e-05,4,1
0.0004743035,2.311357e-05,4,1
0.0004875929,4.80019e-06,4,1
0.0004595556,-3.21507e-05,4,1
0.0003762539,-7.477388e-05,4,1
0.0002436845,-0.0001151281,4,1
8.226741e-05,-0.0001491618,4,1
-7.898758e-05,-0.0001686097,4,1
-0.0002109087,-0.0001673132,4,1
-0.0002979378,-0.0001434896,4,1
-0.0003444506,-0.0001002181,4,1
-0.0003698948,-4.819517e-05,4,1
-0.000400201,-5.57199e-06,4,1
-0.0004669719,1.744129e-05,4,1
-0.0005828486,2.34377e-05,4,1
-0.0007277349,2.846173e-05,4,1
-0.0008543079,4.855783e-05,4,1
-0.0009162169,9.960841e-05,4,1
-0.0008940139,0.0001832341,4,1
-0.0007961266,0.0002853353,4,1
-0.0006543194,0.0003790091,4,1
-0.0004998712,0.0004326527,4,1
-0.000365519,0.0004323286,4,1
-0.0002872415,0.0003921364,4,1
-0.0002875656,0.0003482167,4,1
-0.000358064,0.0003260137,4,1
-0.0004632444,0.0003208276,4,1
-0.0005632387,0.0003025142,4,1
-0.0006125065,0.0002436845,4,1
-0.0005726385,0.0001422316,4,1
-0.00042759,2.295151e-05,4,1
-0.0002058847,-7.817725e-05,4,1
2.992031e-05,-0.0001349001,4,1
0.0002172679,-0.0001433275,4,1
0.0003284447,-0.0001208004,4,1
0.0003733368,-8.984595e-05,4,1
0.0003798194,-6.91016e-05,4,1
0.0003770643,-6.326724e-05,4,1
0.0003919743,-6.748094e-05,4,1
0.0004414042,-7.137051e-05,4,1
0.0005260024,-6.667062e-05,4,1
0.0006271312,-5.2733e-05,4,1
0.0007146465,-3.231277e-05,4,1
0.0007566215,-8.489166e-06,4,1
0.0007340944,1.873781e-05,4,1
0.0006548444,5.034055e-05,4,1
0.0005465847,8.437427e-05,4,1
0.0004391353,0.0001219734,4,1
0.0003545372,0.0001597346,4,1
0.0003038107,0.0001866375,4,1
0.0002842008,0.000185503,4,1
0.0002853353,0.000140773,4,1
0.0002923041,5.925414e-05,4,1
0.0002879283,-3.604027e-05,4,1
0.0002577842,-0.0001214487,4,1
0.0001944166,-0.0001799543,4,1
8.405014e-05,-0.0002058847,4,1
-8.336335e-05,-0.0002053985,4,1
-0.0002948586,-0.000191785,4,1
-0.0005089468,-0.0001723372,4,1
-0.0006828429,-0.0001498101,4,1
-0.0007949921,-0.0001267968,4,1
-0.0008390738,-0.0001081593,4,1
-0.0008241638,-9.649064e-05,4,1
-0.0007697099,-9.065628e-05,4,1
-0.000695646,-9.098041e-05,4,1
-0.0006055377,-9.973194e-05,4,1
-0.0004924161,-0.0001156143,4,1
-0.0003553089,-0.0001361966,4,1
-0.0002117191,-0.0001580754,4,1
-8.741498e-05,-0.0001775233,4,1
-2.654814e-06,-0.0001964849,4,1
3.526847e-05,-0.0002169052,4,1
3.867184e-05,-0.0002353806,4,1
3.721326e-05,-0.0002418632,4,1
5.795762e-05,-0.000228898,4,1
0.0001137081,-0.0001934057,4,1
0.0002015475,-0.0001430034,4,1
0.0003065659,-8.838737e-05,4,1
0.0004078567,-3.928157e-05,4,1
0.0004840274,-2.492749e-06,4,1
0.0005237334,2.246531e-05,4,1
0.0005290816,3.818565e-05,4,1
0.0005110924,4.790957e-05,4,1
0.0004765725,5.001642e-05,4,1
0.000428277,4.871989e-05,4,1
0.0003559958,5.260946e-05,4,1
0.000252436,6.46023e-05,4,1
0.0001269974,7.789165e-05,4,1
2.369211e-06,8.550872e-05,4,1
-9.519411e-05,8.502253e-05,4,1
-0.0001480274,7.643307e-05,4,1
-0.0001543479,6.508849e-05,4,1
-0.0001170729,5.893001e-05,4,1
-4.284701e-05,6.622294e-05,4,1
4.612685e-05,8.550872e-05,4,1
0.0001130598,0.0001107909,4,1
0.0001263492,0.0001355869,4,1
7.335383e-05,0.0001508211,4,1
-3.539201e-05,0.0001509831,4,1
-0.0001645581,0.0001346145,4,1
-0.0002724935,0.0001101427,4,1
-0.0003394265,9.588091e-05,4,1
-0.0003747568,0.0001070634,4,1
-0.0003984183,0.0001474177,4,1
-0.000419973,0.0002112714,4,1
-0.0004368278,0.0002838767,4,1
-0.0004554653,0.0003464339,4,1
-0.0004862577,0.0003762539,4,1
-0.0005313118,0.0003608578,4,1
-0.0005796073,0.000304459,4,1
-0.0006134789,0.0002232643,4,1
-0.0006176926,0.0001320215,4,1
-0.0005966241,4.304761e-05,4,1
-0.0005629146,-3.895745e-05,4,1
-0.0005214258,-0.0001107524,4,1
-0.0004619479,-0.0001682856,4,1
-0.0003794566,-0.0002081536,4,1
-0.0002838381,-0.0002340841,4,1
-0.0001927574,-0.0002548284,4,1
-0.0001178833,-0.0002805968,4,1
-5.678463e-05,-0.0003198166,4,1
-5.247859e-06,-0.0003789705,4,1
4.499239e-05,-0.0004527101,4,1
9.896015e-05,-0.0005227224,4,1
0.000160545,-0.0005622663,4,1
0.0002362295,-0.000551732,4,1
0.0003269861,-0.0004880404,4,1
0.0004213082,-0.0003919357,4,1
0.0004968306,-0.0002916173,4,1
0.000532485,-0.0002047502,4,1
0.0005302161,-0.000142031,4,1
0.0005068787,-0.0001055663,4,1
0.0004858102,-9.438378e-05,4,1
0.0004814344,-0.0001042698,4,1
0.0004921307,-0.0001258245,4,1
0.0005062304,-0.000156941,4,1
0.0005072028,-0.0002045882,4,1
0.0004848378,-0.0002781658,4,1
0.0004394595,-0.0003741085,4,1
0.000383709,-0.0004676201,4,1
0.0003355756,-0.0005219121,4,1
0.0003073762,-0.0005125122,4,1
0.0003007315,-0.0004363416,4,1
0.0003018659,-0.0003112272,4,1
0.000294573,-0.0001624512,4,1
0.0002701012,-1.756482e-05,4,1
0.0002268297,0.0001073875,4,1
0.0001641104,0.0002075439,4,1
6.914012e-05,0.0002864697,4,1
-8.530812e-05,0.0003485408,4,1
-0.0003149546,0.000393757,4,1
-0.0005927345,0.0004214702,4,1
-0.0008590078,0.0004388112,4,1
-0.001051379,0.0004538833,4,1
-0.001133546,0.000477869,4,1
-0.001091734,0.0005112545,4,1
-0.0009223754,0.000547395,4,1
-0.0006384369,0.0005757565,4,1
-0.000276221,0.0005880735,4,1
0.0001080358,0.0005830494,4,1
0.0004592314,0.0005629533,4,1
0.000743008,0.0005247059,4,1
0.0009566103,0.0004683071,4,1
0.001108628,0.0003953777,4,1
0.001206353,0.0003171001,4,1
0.001252056,0.0002431983,4,1
0.001247842,0.0001830721,4,1
0.001196791,0.0001423936,4,1
0.001114138,0.0001216493,4,1
0.001021437,0.0001197045,4,1
0.000938459,0.0001367214,4,1
0.0008773603,0.0001728619,4,1
0.0008342508,0.0002205092,4,1
0.000787576,0.0002660495,4,1
0.000710757,0.0002989488,4,1
0.0005725152,0.0003127243,4,1
0.0003535648,0.0003072141,4,1
5.439218e-05,0.0002829043,4,1
-0.0002993964,0.0002420638,4,1
-0.0006645294,0.0001919856,4,1
-0.000991091,0.000138342,4,1
-0.001233379,8.356394e-05,4,1
-0.001364652,2.538249e-05,4,1
-0.001393013,-3.847125e-05,4,1
-0.001355252,-0.0001044318,4,1
-0.001284753,-0.0001627754,4,1
-0.001199507,-0.0002005366,4,1
-0.00110324,-0.0002097743,4,1
-0.0009966013,-0.0001925954,4,1
-0.00088429,-0.0001582375,4,1
-0.0007651721,-0.0001180453,4,1
-0.0006244993,-7.752899e-05,4,1
-0.0004431483,-3.928157e-05,4,1
-0.0002156086,-9.785688e-06,4,1
3.899597e-05,6.420843e-06,4,1
0.0002773941,6.90704e-06,4,1
0.0004529109,-7.354709e-06,4,1
0.0005319988,-3.166451e-05,4,1
0.0005081752,-5.678463e-05,4,1
0.0004042913,-7.639453e-05,4,1
0.0002582704,-8.903562e-05,4,1
0.0001043083,-9.794922e-05,4,1
-3.312309e-05,-0.0001032974,4,1
-0.0001344139,-0.0001050801,4,1
-0.0001890299,-9.632857e-05,4,1
-0.0002011848,-7.688073e-05,4,1
-0.0001812508,-5.159854e-05,4,1
-0.0001399241,-3.134038e-05,4,1
-8.158062e-05,-2.307504e-05,4,1
-1.545797e-05,-2.712668e-05,4,1
4.239934e-05,-3.425755e-05,4,1
7.805372e-05,-3.506788e-05,4,1
8.583286e-05,-3.247483e-05,4,1
7.076078e-05,-3.458168e-05,4,1
5.017848e-05,-4.754691e-05,4,1
4.304761e-05,-6.731888e-05,4,1
5.552663e-05,-8.190475e-05,4,1
8.259155e-05,-8.044617e-05,4,1
0.0001094944,-6.407757e-05,4,1
0.0001237561,-3.733679e-05,4,1
0.0001250527,-5.409925e-06,4,1
0.0001182459,2.39239e-05,4,1
0.0001143563,4.385793e-05,4,1
0.0001240803,5.471631e-05,4,1
0.000145635,6.136099e-05,4,1
0.0001665414,6.703327e-05,4,1
0.0001757791,6.330578e-05,4,1
0.0001684862,4.304761e-05,4,1
0.0001500107,1.144487e-05,4,1
0.0001279698,-1.562004e-05,4,1
0.0001141943,-2.550602e-05,4,1
0.0001198666,-1.383732e-05,4,1
0.0001517934,1.9224e-05,4,1
0.0002064095,6.83298e-05,4,1
0.0002613496,0.0001252147,4,1
0.0002879283,0.0001851789,4,1
0.0002649151,0.0002397949,4,1
0.0001950649,0.0002827423,4,1
9.701536e-05,0.0003120761,4,1
-3.14101e-06,0.0003263378,4,1
-7.931171e-05,0.0003286068,4,1
-0.0001079973,0.0003276344,4,1
-7.914964e-05,0.0003281205,4,1
3.179537e-06,0.0003324963,4,1
0.0001177597,0.0003376824,4,1
0.0002333123,0.0003380065,4,1
0.0003161277,0.0003264999,4,1
0.0003427064,0.0003010556,4,1
0.0003162898,0.0002610255,4,1
0.0002553532,0.0002078681,4,1
0.0001762653,0.0001409351,4,1
8.161915e-05,5.455425e-05,4,1
-3.766092e-05,-5.986387e-05,4,1
-0.0001870851,-0.0001977815,4,1
-0.0003543365,-0.0003319715,4,1
-0.000501978,-0.0004279142,4,1
-0.0005920863,-0.0004632444,4,1
-0.0006013241,-0.0004436345,4,1
-0.0005314739,-0.0003938804,4,1
-0.0004073319,-0.0003423437,4,1
-0.000261311,-0.0003092824,4,1
-0.0001300382,-0.0003021515,4,1
-3.976777e-05,-0.0003123616,4,1
-1.844488e-06,-0.0003267854,4,1
-3.789272e-06,-0.0003329439,4,1
-2.372331e-05,-0.0003230579,4,1
-4.398147e-05,-0.0003042584,4,1
-5.986387e-05,-0.0003027998,4,1
-7.995997e-05,-0.0003395886,4,1
-0.0001089697,-0.000405063,4,1
-0.0001381414,-0.0004700511,4,1
-0.0001571031,-0.000504409,4,1
-0.000159372,-0.0004925782,4,1
-0.0001442999,-0.0004335865,4,1
-0.0001109144,-0.000340561,4,1
-6.164659e-05,-0.0002412149,4,1
-1.196227e-06,-0.0001645581,4,1
6.46023e-05,-0.000127283,4,1
0.0001287802,-0.0001266348,4,1
0.0001812893,-0.0001473791,4,1
0.0002130541,-0.0001729855,4,1
0.0002190506,-0.0001943781,4,1
0.0002062474,-0.0002057227,4,1
0.0001945787,-0.0002008607,4,1
0.0002005751,-0.0001754164,4,1
0.0002221298,-0.0001305243,4,1
0.0002550291,-7.509801e-05,4,1
0.0003057555,-2.145439e-05,4,1
0.0003885709,2.829966e-05,4,1
0.0005144958,7.789165e-05,4,1
0.0006673234,0.0001326697,4,1
0.0008125341,0.0001947408,4,1
0.0009182008,0.0002644289,4,1
0.0009729789,0.0003334687,4,1
0.0009752478,0.0003932708,4,1
0.0009297074,0.0004363802,4,1
0.0008465679,0.0004615004,4,1
0.0007326358,0.0004751139,4,1
0.0005960147,0.0004846757,4,1
0.0004474007,0.0005016926,4,1
0.0002931144,0.0005318367,4,1
0.0001265113,0.0005712186,4,1
-6.748094e-05,0.0005921251,4,1
-0.0002896725,0.0005673291,4,1
-0.0005189948,0.0004908342,4,1
-0.0007210903,0.0003803056,4,1
-0.0008690559,0.0002628082,4,1
-0.000948792,0.000163138,4,1
-0.0009609469,0.0001002567,4,1
-0.0009111929,7.999851e-05,4,1
-0.0008039057,9.555677e-05,4,1
-0.0006528608,0.0001346145,4,1
-0.0004815578,0.0001811273,4,1
-0.0003203028,0.0002190506,4,1
-0.0001831956,0.0002433604,4,1
-6.375344e-05,0.0002511395,4,1
5.649903e-05,0.000242388,4,1
0.0001898788,0.0002227781,4,1
0.0003252034,0.0001963614,4,1
0.0004368664,0.000165569,4,1
0.0004969927,0.000135911,4,1
0.0004911583,0.0001119254,4,1
0.0004396215,9.442231e-05,4,1
0.0003833848,8.323981e-05,4,1
0.000351458,7.837785e-05,4,1
0.0003454615,7.400208e-05,4,1
0.0003431926,6.751948e-05,4,1
0.0003104554,5.487838e-05,4,1
0.0002133783,3.18651e-05,4,1
3.478228e-05,-1.034161e-06,4,1
-0.0002123673,-4.171256e-05,4,1
-0.0004935506,-8.709085e-05,4,1
-0.0007664686,-0.0001308485,4,1
-0.0009912532,-0.0001673132,4,1
-0.001146512,-0.0001919471,4,1
-0.001225113,-0.0002071812,4,1
-0.001229003,-0.0002180396,4,1
-0.001166608,-0.0002285739,4,1
-0.001051055,-0.0002399184,4,1
-0.0009022792,-0.0002504527,4,1
-0.0007489655,-0.0002570974,4,1
-0.0006154237,-0.0002598524,4,1
-0.0005057055,-0.0002574215,4,1
-0.0004155972,-0.0002520733,4,1
-0.000335699,-0.0002472114,4,1
-0.0002519113,-0.0002485079,4,1
-0.0001455964,-0.0002574215,4,1
-9.299493e-06,-0.0002682799,4,1
0.0001517934,-0.0002775176,4,1
0.0003203414,-0.0002812451,4,1
0.0004707381,-0.0002794623,4,1
0.0005833735,-0.0002729798,4,1
0.0006452826,-0.0002643903,4,1
0.0006585719,-0.0002570974,4,1
0.0006349103,-0.0002558008,4,1
0.0005935837,-0.0002608248,4,1
0.0005538776,-0.0002655248,4,1
0.0005203301,-0.000266011,4,1
0.0004827309,-0.0002577456,4,1
0.0004247115,-0.0002392702,4,1
0.0003381686,-0.0002088019,4,1
0.0002355812,-0.0001663408,4,1
0.0001415833,-0.0001191798,4,1
8.74535e-05,-7.33153e-05,4,1
9.993253e-05,-3.571614e-05,4,1
0.0001958752,-8.975362e-06,4,1
0.0003705817,8.851824e-06,4,1
0.0005877494,2.522042e-05,4,1
0.0007820658,4.077869e-05,4,1
0.0008891911,5.066468e-05,4,1
0.0008843291,4.790957e-05,4,1
0.0007896828,3.089271e-05,4,1
0.0006456067,6.582909e-06,4,1
0.0004872688,-1.578211e-05,4,1
0.0003279585,-2.874733e-05,4,1
0.0001731861,-2.712668e-05,4,1
3.672706e-05,-1.124428e-05,4,1
-6.731888e-05,1.59827e-05,4,1
-0.0001313347,4.531652e-05,4,1
-0.0001590478,6.78436e-05,4,1
-0.0001629374,7.90261e-05,4,1
-0.0001618029,8.242948e-05,4,1
-0.00016942,8.42122e-05,4,1
-0.000196647,9.53947e-05,4,1
-0.0002558008,0.0001218114,4,1
-0.0003496366,0.0001608691,4,1
-0.0004585445,0.0002075439,4,1
-0.0005436288,0.0002600531,4,1
-0.0005734488,0.0003159656,4,1
-0.0005423322,0.0003712299,4,1
-0.0004715097,0.0004169324,4,1
-0.0003841565,0.0004478869,4,1
-0.0002987481,0.0004640934,4,1
-0.0002212809,0.0004671726,4,1
-0.0001473791,0.0004551798,4,1
-6.602235e-05,0.0004245494,4,1
3.737532e-05,0.0003728506,4,1
0.0001650828,0.0003054314,4,1
0.0002978143,0.0002326641,4,1
0.0004081808,0.0001641104,4,1
0.0004757621,0.000103498,4,1
0.0004929411,5.423012e-05,4,1
0.0004663623,1.808955e-05,4,1
0.0004093153,-5.479652e-07,4,1
0.0003307136,-3.627206e-06,4,1
0.0002431983,4.962256e-06,4,1
0.000165569,1.954813e-05,4,1
0.000105929,3.591673e-05,4,1
6.379197e-05,4.969229e-05,4,1
3.380988e-05,5.585077e-05,4,1
6.258778e-06,5.585077e-05,4,1
-3.895745e-05,5.098881e-05,4,1
-0.0001170729,3.98063e-05,4,1
-0.0002248464,1.193106e-05,4,1
-0.0003439643,-3.668853e-05,4,1
-0.0004538446,-0.0001028112,4,1
-0.0005405495,-0.0001684476,4,1
-0.0005904656,-0.00021415,4,1
-0.0005924104,-0.0002293842,4,1
-0.0005535148,-0.0002160948,4,1
-0.0005001953,-0.0001815749,4,1
-0.0004609755,-0.000137007,4,1
-0.0004543308,-9.454585e-05,4,1
-0.0004783165,-6.602235e-05,4,1
-0.0005230465,-5.678463e-05,4,1
-0.0005894933,-6.294311e-05,4,1
-0.000685598,-7.347736e-05,4,1
-0.0008056884,-7.817725e-05,4,1
-0.0009235098,-7.720486e-05,4,1
-0.001000815,-7.979791e-05,4,1
-0.001010863,-9.357346e-05,4,1
-0.000948792,-0.0001177212,4,1
-0.0008238396,-0.0001442999,4,1
-0.0006496195,-0.0001588858,4,1
-0.0004387725,-0.0001515928,4,1
-0.0002058847,-0.0001186936,4,1
2.992031e-05,-6.051213e-05,4,1
0.0002566497,9.175954e-06,4,1
0.0004710622,7.108491e-05,4,1
0.0006708889,0.0001064152,4,1
0.0008499712,0.0001022015,4,1
0.0009943716,5.795762e-05,4,1
0.00108918,-9.461558e-06,4,1
0.001132127,-7.720486e-05,4,1
0.001137151,-0.00012469,4,1
0.00112289,-0.0001439758,4,1
0.0011049,-0.0001373311,4,1
0.001085452,-0.0001120489,4,1
0.001057577,-7.461182e-05,4,1
0.001010578,-2.258885e-05,4,1
0.0009303557,5.325772e-05,4,1
0.0008063756,0.0001509831,4,1
0.0006423654,0.0002506533,4,1
0.000448211,0.000324231,4,1
0.0002401191,0.0003485408,4,1
3.883391e-05,0.0003190449,4,1
-0.0001311726,0.0002462775,4,1
-0.0002527216,0.0001492004,4,1
-0.0003175477,5.390598e-05,4,1
-0.0003301888,-1.513384e-05,4,1
-0.0003044204,-4.949169e-05,4,1
-0.0002558008,-5.062615e-05,4,1
-0.0001974573,-3.069211e-05,4,1
-0.0001434896,-1.196227e-06,4,1
-0.0001010285,3.13789e-05,4,1
-6.715681e-05,5.504044e-05,4,1
-3.944364e-05,6.719535e-05,4,1
-1.740276e-05,6.768154e-05,4,1
-3.951337e-06,5.471631e-05,4,1
-2.492749e-06,2.441009e-05,4,1
-9.461558e-06,-2.485776e-05,4,1
-1.788895e-05,-8.838737e-05,4,1
-2.826114e-05,-0.0001486757,4,1
-5.289507e-05,-0.0001838438,4,1
-9.66527e-05,-0.0001786577,4,1
-0.0001488377,-0.0001311726,4,1
-0.0001898403,-5.386745e-05,4,1
-0.0002122053,3.656499e-05,4,1
-0.0002199844,0.0001247285,4,1
-0.000223874,0.0001974959,4,1
-0.0002347323,0.000247412,4,1
-0.0002595283,0.0002723701,4,1
-0.0002904828,0.0002817699,4,1
-0.0003100927,0.0002811216,4,1
-0.0003031239,0.0002730183,4,1
-0.0002716832,0.000257298,4,1
-0.0002331117,0.0002397949,4,1
-0.000199078,0.000225209,4,1
-0.0001755785,0.0002140265,4,1
-0.0001553203,0.0001981441,4,1
-0.0001284175,0.000170593,4,1
-8.838737e-05,0.0001305629,4,1
-3.944364e-05,8.518459e-05,4,1
6.096713e-06,4.337174e-05,4,1
3.235129e-05,1.241726e-05,4,1
3.348575e-05,-4.599598e-06,4,1
1.1769e-05,-9.137427e-06,4,1
-2.485776e-05,-6.220252e-06,4,1
-5.905355e-05,2.531276e-06,4,1
-8.07703e-05,1.663096e-05,4,1
-8.757704e-05,3.494434e-05,4,1
-7.720486e-05,4.628891e-05,4,1
-4.884343e-05,3.850978e-05,4,1
-9.461558e-06,7.393236e-06,4,1
2.829966e-05,-4.414354e-05,4,1
5.94162e-05,-0.0001071869,4,1
8.437427e-05,-0.0001648822,4,1
0.000108522,-0.0002019951,4,1
0.0001394765,-0.00021415,4,1
0.0001814514,-0.0002052365,4,1
0.0002295848,-0.0001840059,4,1
0.000274639,-0.0001627754,4,1
0.0003046211,-0.0001488377,4,1
0.0003130485,-0.0001454344,4,1
0.0002966799,-0.0001533756,4,1
0.0002608634,-0.0001724993,4,1
0.0002209954,-0.0001968091,4,1
0.000192958,-0.000216581,4,1
0.0001838824,-0.000221443,4,1
0.0001931201,-0.000206695,4,1
0.0002137024,-0.0001797922,4,1
0.0002407673,-0.0001499722,4,1
0.0002670219,-0.0001263107,4,1
0.0002936006,-0.0001126972,4,1
0.0003255275,-0.0001126972,4,1
0.0003652335,-0.0001266348,4,1
0.0004021844,-0.0001561307,4,1
0.000408505,-0.0002039399,4,1
0.0003579406,-0.000266173,4,1
0.0002431983,-0.0003277578,4,1
8.259155e-05,-0.0003632501,4,1
-8.109443e-05,-0.000350609,4,1
-0.0002008607,-0.0002890242,4,1
-0.0002452666,-0.0001985918,4,1
-0.000206533,-0.0001057284,4,1
-0.0001044318,-3.101625e-05,4,1
1.711715e-05,1.614476e-05,4,1
0.000111115,4.175109e-05,4,1
0.0001435281,6.071273e-05,4,1
0.0001104668,8.534666e-05,4,1
3.348575e-05,0.0001172735,4,1
-5.856735e-05,0.0001513072,4,1
-0.0001434896,0.0001808031,4,1
-0.0002079916,0.0002007372,4,1
-0.0002486699,0.0002119197,4,1
-0.0002592042,0.0002182402,4,1
-0.0002292221,0.0002239125,4,1
-0.00015451,0.0002269918,4,1
-4.236082e-05,0.0002255332,4,1
9.069481e-05,0.0002229401,4,1
0.000225047,0.0002216436,4,1
0.00033671,0.0002279642,4,1
0.0004028327,0.0002404432,4,1
0.0004106118,0.0002560015,4,1
0.0003632887,0.0002726942,4,1
0.0002767458,0.0002892249,4,1
0.0001761032,0.0003038107,4,1
8.42122e-05,0.0003161277,4,1
1.565857e-05,0.0003188828,4,1
-2.534396e-05,0.00030689,4,1
-4.43056e-05,0.0002814457,4,1
-5.419158e-05,0.0002461155,4,1
-6.180866e-05,0.0002085163,4,1
-6.81292e-05,0.0001783722,4,1
-6.861539e-05,0.0001608691,4,1
-6.342931e-05,0.0001524417,4,1
-5.435365e-05,0.0001443384,4,1
-4.949169e-05,0.0001326697,4,1
-5.872941e-05,0.000115977,4,1
-9.017008e-05,9.21534e-05,4,1
-0.0001499722,5.876794e-05,4,1
-0.0002395943,1.776542e-05,4,1
-0.0003535262,-2.712668e-05,4,1
-0.000479613,-7.056019e-05,4,1
-0.0005982448,-0.0001037836,4,1
-0.0006823567,-0.0001162626,4,1
-0.0007048837,-0.0001018388,4,1
-0.0006543194,-6.521203e-05,4,1
-0.0005358497,-2.177852e-05,4,1
-0.00036795,1.468618e-05,4,1
-0.0001754164,3.526847e-05,4,1
1.193106e-05,3.705119e-05,4,1
0.0001589243,2.295151e-05,4,1
0.0002472499,1.558884e-06,4,1
0.0002866318,-2.031993e-05,4,1
0.0003028383,-3.814712e-05,4,1
0.0003198552,-4.90055e-05,4,1
0.0003425444,-5.59743e-05,4,1
0.0003628026,-6.261898e-05,4,1
0.0003709058,-7.088431e-05,4,1
0.0003577785,-8.093236e-05,4,1
0.0003158036,-8.935975e-05,4,1
0.000249843,-9.827335e-05,4,1
0.000173024,-0.0001138316,4,1
0.0001031738,-0.0001426792,4,1
5.406805e-05,-0.0001789819,4,1
2.732727e-05,-0.0002117191,4,1
1.468618e-05,-0.0002272773,4,1
5.772582e-06,-0.0002196603,4,1
-9.785688e-06,-0.0001940539,4,1
-4.398147e-05,-0.0001622891,4,1
-0.0001016767,-0.000132145,4,1
-0.0001705545,-0.0001084835,4,1
-0.0002342462,-9.260107e-05,4,1
-0.0002734659,-8.741498e-05,4,1
-0.0002700626,-9.584238e-05,4,1
-0.0002118811,-0.0001175591,4,1
-0.0001076731,-0.0001473791,4,1
1.906194e-05,-0.0001763888,4,1
0.0001346145,-0.000191623,4,1
0.0002098128,-0.0001828714,4,1
0.0002256952,-0.000147055,4,1
0.0001808031,-9.19528e-05,4,1
8.84259e-05,-3.134038e-05,4,1
-3.441962e-05,2.003433e-05,4,1
-0.0001640719,5.585077e-05,4,1
-0.0002716832,7.90261e-05,4,1
-0.0003311612,9.393612e-05,4,1
-0.0003335922,0.0001090082,4,1
-0.0002899966,0.0001294284,4,1
-0.0002256567,0.0001590864,4,1
-0.000166827,0.0001926339,4,1
-0.0001289037,0.0002192126,4,1
-0.0001128592,0.0002337985,4,1
-0.0001110765,0.0002347709,4,1
-0.0001144799,0.0002242366,4,1
-0.0001193418,0.0002080301,4,1
-0.0001318209,0.0001942546,4,1
-0.0001562927,0.0001924718,4,1
-0.0001927574,0.0002114335,4,1
-0.0002408908,0.0002540567,4,1
-0.0002987481,0.0003138588,4,1
-0.0003561192,0.0003799815,4,1
-0.0003839945,0.0004446456,4,1
-0.0003478539,0.0004974789,4,1
-0.0002376495,0.0005251921,4,1
-7.428769e-05,0.0005146578,4,1
0.0001062531,0.0004636072,4,1
0.000277232,0.000381278,4,1
0.000420984,0.000284525,4,1
0.0005235714,0.0001939304,4,1
0.0005778633,0.0001291043,4,1
0.0005856425,0.0001020394,4,1
0.0005545259,0.0001093323,4,1
0.000497803,0.0001336421,4,1
0.0004315182,0.000148228,4,1
0.0003649094,0.0001402868,4,1
0.0002927903,0.0001088461,4,1
0.0002075439,6.136099e-05,4,1
0.0001114392,8.203562e-06,4,1
1.436204e-05,-4.219875e-05,4,1
-7.169464e-05,-8.806324e-05,4,1
-0.0001332795,-0.0001361966,4,1
-0.0001682856,-0.0001955125,4,1
-0.0001838438,-0.0002708729,4,1
-0.0001948643,-0.0003528779,4,1
-0.0002107467,-0.0004264556,4,1
-0.0002342462,-0.0004737787,4,1
-0.0002575835,-0.0004857715,4,1
-0.0002694143,-0.0004658375,4,1
-0.0002684419,-0.0004237005,4,1
-0.0002575835,-0.0003762153,4,1
-0.000246239,-0.0003363473,4,1
-0.0002515871,-0.0003147926,4,1
-0.0002993964,-0.0003123616,4,1
-0.0004152731,-0.0003264613,4,1
-0.0005958138,-0.0003476919,4,1
-0.000797261,-0.0003661673,4,1
-0.0009619193,-0.0003755671,4,1
-0.001041817,-0.0003734602,4,1
-0.001015401,-0.0003626019,4,1
-0.0008915829,-0.0003421817,4,1
-0.0007066664,-0.0003128478,4,1
-0.000494523,-0.0002843243,4,1
-0.0002679557,-0.0002658489,4,1
-2.437157e-05,-0.0002556388,4,1
0.0002337985,-0.0002459149,4,1
0.0004887274,-0.0002381357,4,1
0.000718374,-0.0002425115,4,1
0.0009096113,-0.0002622834,4,1
0.001063736,-0.0002893484,4,1
0.001192416,-0.0003128478,4,1
0.001304241,-0.0003206269,4,1
0.001399374,-0.0003006929,4,1
0.001465496,-0.0002472114,4,1
0.001487537,-0.0001749302,4,1
0.001459176,-0.0001118868,4,1
0.001384139,-7.688073e-05,4,1
0.001269721,-6.845333e-05,4,1
0.001131317,-6.699475e-05,4,1
0.0009776788,-5.240886e-05,4,1
0.0008138306,-1.351319e-05,4,1
0.0006384758,4.466826e-05,4,1
0.0004474007,0.0001088461,4,1
0.0002419018,0.0001688103,4,1
3.591673e-05,0.0002166196,4,1
-0.0001533756,0.0002491947,4,1
-0.0003062031,0.000267184,4,1
-0.0004057112,0.0002785285,4,1
-0.0004436345,0.0002918179,4,1
-0.0004327761,0.000309483,4,1
-0.0003980942,0.0003271482,4,1
-0.0003660052,0.0003376824,4,1
-0.0003523917,0.0003376824,4,1
-0.0003548227,0.000334117,4,1
-0.0003611433,0.0003358997,4,1
-0.000360495,0.0003512959,4,1
-0.0003465574,0.0003845193,4,1
-0.0003180339,0.0004311941,4,1
-0.0002822175,0.0004799758,4,1
-0.0002459149,0.0005232473,4,1
-0.0002117191,0.0005606844,4,1
-0.0001802784,0.0005890459,4,1
-0.0001512687,0.0005982835,4,1
-0.0001245279,0.0005768909,4,1
-0.0001034594,0.0005227611,4,1
-9.373552e-05,0.0004496696,4,1
-9.470791e-05,0.0003757678,4,1
-9.551824e-05,0.0003159656,4,1
-8.303922e-05,0.0002757735,4,1
-5.22468e-05,0.0002534084,4,1
-1.25408e-05,0.0002470879,4,1
1.582063e-05,0.0002493568,4,1
1.419998e-05,0.0002472499,4,1
-1.983374e-05,0.000232502,4,1
-7.509801e-05,0.0002064095,4,1
-0.000127121,0.0001824238,4,1
-0.0001577513,0.0001824238,4,1
-0.0001598582,0.0002203471,4,1
-0.0001396,0.0002901973,4,1
-0.0001071869,0.0003722023,4,1
-7.412562e-05,0.0004409181,4,1
-5.483985e-05,0.0004777069,4,1
-6.342931e-05,0.0004733311,4,1
-0.0001039456,0.0004292493,4,1
-0.000164396,0.0003550234,4,1
-0.0002269532,0.0002683184,4,1
-0.0002755728,0.0001876099,4,1
-0.0003011791,0.0001193804,4,1
-0.0003062031,5.811968e-05,4,1
-0.000301017,-4.275467e-06,4,1
-0.0002948586,-7.23429e-05,4,1
-0.0002927517,-0.0001454344,4,1
-0.0002946965,-0.0002199844,4,1
-0.0003021515,-0.0002874036,4,1
-0.0003112272,-0.0003463953,4,1
-0.000318358,-0.0003992286,4,1
-0.0003146305,-0.0004531963,4,1
-0.0002940482,-0.0005102433,4,1
-0.0002585559,-0.0005742591,4,1
-0.0002133397,-0.0006475127,4,1
-0.0001611547,-0.0007219006,4,1
-0.0001076731,-0.0007791097,4,1
-5.808115e-05,-0.0008029332,4,1
-1.659243e-05,-0.000789806,4,1
1.241726e-05,-0.000752693,4,1
2.667901e-05,-0.0007065044,4,1
3.18651e-05,-0.0006646916,4,1
2.992031e-05,-0.0006288751,4,1
2.862379e-05,-0.0005924104,4,1
2.910999e-05,-0.0005509217,4,1
2.441009e-05,-0.0005003574,4,1
8.365628e-06,-0.0004434724,4,1
-1.853722e-05,-0.000390315,4,1
-5.013995e-05,-0.0003514194,4,1
-7.882551e-05,-0.0003271096,4,1
-0.0001058904,-0.0003104168,4,1
-0.0001378173,-0.0002932379,4,1
-0.0001699062,-0.0002729798,4,1
-0.0001773612,-0.0002577456,4,1
-0.0001421931,-0.0002517492,4,1
-7.039812e-05,-0.0002455907,4,1
1.063454e-05,-0.0002259808,4,1
6.849186e-05,-0.0001857886,4,1
8.680524e-05,-0.0001261486,4,1
7.335383e-05,-5.581224e-05,4,1
4.564065e-05,1.241726e-05,4,1
2.262738e-05,6.508849e-05,4,1
1.97102e-05,9.63671e-05,4,1
3.93201e-05,0.000113546,4,1
7.254349e-05,0.0001279698,4,1
0.0001080358,0.0001469315,4,1
0.0001485521,0.0001733481,4,1
0.000202682,0.0002067336,4,1
0.0002717218,0.0002415777,4,1
0.000356482,0.0002717218,4,1
0.0004572867,0.0002955454,4,1
0.0005707325,0.000316938,4,1
0.0006804507,0.0003384927,4,1
0.0007650489,0.0003589129,4,1
0.0008070238,0.0003780367,4,1
0.0008013516,0.0003982949,4,1
0.0007558112,0.0004195254,4,1
0.000681261,0.0004422146,4,1
0.0005798081,0.0004660382,4,1
0.0004451317,0.0004926169,4,1
0.0002712356,0.0005191956,4,1
6.573675e-05,0.0005425331,4,1
-0.0001442999,0.0005538776,4,1
-0.0003264613,0.0005415607,4,1
-0.0004491447,0.0005039615,4,1
-0.0004856094,0.0004483731,4,1
-0.0004282383,0.000386302,4,1
-0.0002966413,0.0003290929,4,1
-0.0001306864,0.0002806354,4,1
2.927205e-05,0.0002422259,4,1
0.0001561692,0.0002130541,4,1
0.0002397949,0.0001902029,4,1
0.0002842008,0.0001746447,4,1
0.0003010556,0.0001654069,4,1
0.0003030004,0.0001610312,4,1
0.0003021901,0.0001610312,4,1
0.0003007315,0.000165569,4,1
0.0002965178,0.0001777239,4,1
0.0002842008,0.0001961994,4,1
0.0002602152,0.00021273,4,1
0.0002232643,0.0002188885,4,1
0.0001744826,0.0002091646,4,1
0.0001224596,0.000185503,4,1
7.189524e-05,0.0001503349,4,1
2.473423e-05,0.0001077117,4,1
-2.145439e-05,6.298164e-05,4,1
-6.051213e-05,1.873781e-05,4,1
-8.498399e-05,-2.761287e-05,4,1
-9.017008e-05,-7.396356e-05,4,1
-8.02841e-05,-0.0001180453,4,1
-6.958779e-05,-0.00015451,4,1
-7.120844e-05,-0.0001783336,4,1
-8.725291e-05,-0.0001887058,4,1
-0.0001071869,-0.0001864369,4,1
-0.0001201522,-0.0001794681,4,1
-0.0001280934,-0.0001760647,4,1
-0.0001381414,-0.0001815749,4,1
-0.0001585616,-0.0001925954,4,1
-0.0001929195,-0.0002079916,4,1
-0.0002399184,-0.0002303566,4,1
-0.0002963172,-0.0002608248,4,1
-0.0003600088,-0.0002968033,4,1
-0.0004267797,-0.0003350507,4,1
-0.0004779923,-0.0003711913,4,1
-0.0004883645,-0.0003966356,4,1
-0.0004428242,-0.0004036044,4,1
-0.0003494746,-0.0003869116,4,1
-0.0002319772,-0.0003512573,4,1
-0.0001167488,-0.000305879,4,1
-1.724069e-05,-0.000261149,4,1
5.552663e-05,-0.0002196603,4,1
0.0001012291,-0.0001775233,4,1
0.000128294,-0.0001292278,4,1
0.0001433661,-7.477388e-05,4,1
0.0001472556,-1.707863e-05,4,1
0.0001435281,3.510641e-05,4,1
0.0001347766,7.351589e-05,4,1
0.0001201907,9.16672e-05,4,1
9.118101e-05,8.680524e-05,4,1
3.996837e-05,6.200925e-05,4,1
-2.631635e-05,2.651694e-05,4,1
-9.422172e-05,-7.030578e-06,4,1
-0.0001496481,-2.696461e-05,4,1
-0.0001906506,-2.826114e-05,4,1
-0.0002229016,-1.448558e-05,4,1
-0.0002598524,8.851824e-06,4,1
-0.0003121996,3.462021e-05,4,1
-0.0003762153,5.471631e-05,4,1
-0.0004363416,6.006447e-05,4,1
-0.0004753993,4.466826e-05,4,1
-0.0004869059,8.365628e-06,4,1
-0.0004833405,-3.587821e-05,4,1
-0.0004847991,-7.169464e-05,4,1
-0.0004984126,-8.644259e-05,4,1
-0.0005063537,-7.428769e-05,4,1
-0.0004878783,-3.992984e-05,4,1
-0.0004219178,8.527692e-06,4,1
-0.0003016653,6.184718e-05,4,1
-0.0001295519,0.0001117633,4,1
7.20573e-05,0.0001553589,4,1
0.0002699391,0.0001887444,4,1
0.000433301,0.0002106232,4,1
0.0005462606,0.0002216436,4,1
0.0006174073,0.0002214815,4,1
0.0006731578,0.0002125679,4,1
0.0007386322,0.0001936063,4,1
0.000822258,0.0001671896,4,1
0.0009128526,0.0001315353,4,1
0.0009888613,8.145709e-05,4,1
0.001029702,1.436204e-05,4,1
0.00102403,-6.002594e-05,4,1
0.0009724927,-0.0001199901,4,1
0.0008729845,-0.000144624,4,1
0.000725829,-0.0001253383,4,1
0.0005379952,-7.299116e-05,4,1
0.0003323342,-7.678839e-06,4,1
0.0001415833,4.969229e-05,4,1
-1.092015e-05,8.194328e-05,4,1
-0.000129714,8.648112e-05,4,1
-0.0002308428,7.076078e-05,4,1
-0.0003147926,5.001642e-05,4,1
-0.000370543,3.283749e-05,4,1
-0.000387884,2.084466e-05,4,1
-0.0003635742,1.614476e-05,4,1
-0.0003018274,1.825161e-05,4,1
-0.000216581,2.570662e-05,4,1
-0.0001250141,3.624086e-05,4,1
-4.155049e-05,4.807163e-05,4,1
2.230325e-05,5.649903e-05,4,1
5.876794e-05,5.374392e-05,4,1
6.962632e-05,3.624086e-05,4,1
7.108491e-05,1.582063e-05,4,1
7.367795e-05,2.693341e-06,4,1
7.254349e-05,3.017472e-06,4,1
5.909208e-05,1.59827e-05,4,1
3.769945e-05,2.910999e-05,4,1
2.052053e-05,3.13789e-05,4,1
9.66215e-06,2.246531e-05,4,1
-7.192643e-06,8.851824e-06,4,1
-4.997789e-05,-3.465141e-06,4,1
-0.0001318209,-1.075808e-05,4,1
-0.0002449425,-1.480971e-05,4,1
-0.0003626019,-1.351319e-05,4,1
-0.0004600031,-6.706447e-06,4,1
-0.0005258016,-1.520357e-06,4,1
-0.0005612939,-5.409925e-06,4,1
-0.0005719902,-1.788895e-05,4,1
-0.0005705316,-3.393342e-05,4,1
-0.0005625904,-4.770897e-05,4,1
-0.0005457356,-5.889148e-05,4,1
-0.0005207775,-6.991193e-05,4,1
-0.0004856094,-8.287715e-05,4,1
-0.0004376381,-9.697683e-05,4,1
-0.0003854531,-0.0001112386,4,1
-0.00033813,-0.0001256624,4,1
-0.0003062031,-0.0001387897,4,1
-0.0002903207,-0.0001485136,4,1
-0.0002814071,-0.0001485136,4,1
-0.0002639041,-0.0001387897,4,1
-0.0002267911,-0.0001263107,4,1
-0.0001658546,-0.0001195039,4,1
-8.563225e-05,-0.0001167488,4,1
7.393236e-06,-0.0001133454,4,1
0.0001127357,-9.519411e-05,4,1
0.0002299089,-5.354332e-05,4,1
0.0003474063,1.630683e-05,4,1
0.0004475628,0.0001112771,4,1
0.0005167646,0.0002195368,4,1
0.0005564707,0.0003201794,4,1
0.0005785116,0.0003916502,4,1
0.0005952043,0.000425846,4,1
0.0006109247,0.0004277907,4,1
0.0006251864,0.0004057499,4,1
0.0006264829,0.0003665301,4,1
0.0006028214,0.0003206656,4,1
0.0005563086,0.0002709115,4,1
0.0004981271,0.0002218057,4,1
0.000438325,0.000178048,4,1
0.0003840331,0.0001474177,4,1
0.0003448133,0.0001316974,4,1
0.0003214759,0.0001271595,4,1
0.0003106175,0.0001250527,4,1
0.0003059176,0.0001158149,4,1
0.000302028,9.442231e-05,4,1
0.0002903593,6.525056e-05,4,1
0.0002662116,3.705119e-05,4,1
0.0002271538,1.987227e-05,4,1
0.0001699448,1.290346e-05,4,1
9.426025e-05,1.241726e-05,4,1
9.986281e-06,1.582063e-05,4,1
-7.023606e-05,2.635488e-05,4,1
-0.0001374932,4.790957e-05,4,1
-0.0001971332,7.935024e-05,4,1
-0.0002530457,0.0001222976,4,1
-0.0003065273,0.0001748067,4,1
-0.0003600088,0.0002357433,4,1
-0.0004211074,0.0002997591,4,1
-0.0004933886,0.0003600474,4,1
-0.0005718282,0.0004081808,4,1
-0.0006462161,0.0004339493,4,1
-0.0007120146,0.0004297355,4,1
-0.0007688995,0.0003966742,4,1
-0.0008134675,0.000341572,4,1
-0.0008452323,0.0002658874,4,1
-0.0008628974,0.0001714034,4,1
-0.0008632215,6.184718e-05,4,1
-0.0008450702,-5.629844e-05,4,1
-0.0008066607,-0.0001728234,4,1
-0.0007499378,-0.0002791382,4,1
-0.000680574,-0.0003755671,4,1
-0.0006019723,-0.0004784786,4,1
-0.0005084606,-0.0005997034,4,1
-0.0003895047,-0.0007264384,4,1
-0.0002408908,-0.0008306464,4,1
-8.644259e-05,-0.00088429,4,1
3.818565e-05,-0.000874404,4,1
0.0001197045,-0.0008071469,4,1
0.0001718896,-0.0007047217,4,1
0.0002213195,-0.0005867381,4,1
0.0002898731,-0.0004642168,4,1
0.0003752816,-0.0003438023,4,1
0.0004525868,-0.0002303566,4,1
0.0004989374,-0.0001256624,4,1
0.0005190336,-2.09682e-05,4,1
0.00053994,8.972242e-05,4,1
0.0005888838,0.0002005751,4,1
0.0006752646,0.0002955454,4,1
0.0007817416,0.0003546993,4,1
0.0008836808,0.0003621543,4,1
0.0009540173,0.000319207,4,1
0.0009788133,0.0002419018,4,1
0.000958393,0.0001553589,4,1
0.0008995633,7.189524e-05,4,1
0.0008149651,-4.761664e-06,4,1
0.000723236,-7.007399e-05,4,1
0.0006499824,-0.0001185315,4,1
0.0006073592,-0.0001502963,4,1
0.0005885597,-0.0001734716,4,1
0.0005686256,-0.0001929195,4,1
0.0005268127,-0.0002094502,4,1
0.0004615004,-0.00021415,4,1
0.0003859779,-0.0002019951,4,1
0.0003077003,-0.0001708786,4,1
0.0002224539,-0.0001264727,4,1
0.0001192183,-7.444975e-05,4,1
-8.975362e-06,-1.545797e-05,4,1
-0.0001575893,4.612685e-05,4,1
-0.0003113892,0.0001043083,4,1
-0.0004556273,0.0001545486,4,1
-0.0005757177,0.0001934442,4,1
-0.0006570745,0.0002206712,4,1
-0.000685436,0.0002303951,4,1
-0.0006573986,0.0002221298,4,1
-0.0005822003,0.0002012234,4,1
-0.0004783165,0.0001811273,4,1
-0.0003626019,0.0001715654,4,1
-0.0002439701,0.0001746447,4,1
-0.0001255003,0.000187772,4,1
-1.075808e-05,0.0002062474,4,1
9.004655e-05,0.0002295848,4,1
0.0001624898,0.000259729,4,1
0.0002059233,0.0002942489,4,1
0.0002303951,0.0003294171,4,1
0.0002490327,0.0003581026,4,1
0.0002670219,0.0003717161,4,1
0.0002866318,0.0003662059,4,1
0.0003010556,0.0003480546,4,1
0.0002983005,0.0003213138,4,1
0.0002739907,0.000282256,4,1
0.0002341226,0.0002149989,4,1
0.0001848548,0.0001137081,4,1
0.0001255389,-1.027188e-05,4,1
4.596478e-05,-0.0001357104,4,1
-6.829127e-05,-0.0002418632,4,1
-0.0002284118,-0.0003089583,4,1
-0.0004425001,-0.0003329439,4,1
-0.0007108802,-0.0003224097,4,1
-0.001009891,-0.0002958309,4,1
-0.001287184,-0.0002694143,4,1
-0.001488956,-0.0002485079,4,1
-0.001585385,-0.0002324634,4,1
-0.001581657,-0.0002173914,4,1
-0.001502893,-0.0001985918,4,1
-0.001378265,-0.0001712027,4,1
-0.001230299,-0.0001392759,4,1
-0.001060293,-0.0001159385,4,1
-0.0008577113,-0.0001191798,4,1
-0.0006099135,-0.0001627754,4,1
-0.0003130099,-0.0002400805,4,1
1.533444e-05,-0.0003241924,4,1
0.0003286068,-0.0003891806,4,1
0.0005858046,-0.0004180282,4,1
0.0007869278,-0.0004013355,4,1
0.0009598516,-0.000335537,4,1
0.001125807,-0.0002235498,4,1
0.001276042,-7.995997e-05,4,1
0.001385922,7.076078e-05,4,1
0.001430976,0.0002017096,4,1
0.001397915,0.0002979764,4,1
0.001297434,0.0003605336,4,1
0.001158868,0.0004026706,4,1
0.001008633,0.0004417284,4,1
0.0008669881,0.000487755,4,1
0.0007433321,0.000534916,4,1
0.0006381517,0.0005636016,4,1
0.0005426951,0.0005486915,4,1
0.0004428628,0.000477869,4,1
0.0003383307,0.0003621543,4,1
0.0002415777,0.0002268297,4,1
0.0001634622,9.847395e-05,4,1
9.182927e-05,-4.923729e-06,4,1
2.623614e-07,-7.072225e-05,4,1
-0.0001199901,-9.422172e-05,4,1
-0.0002441321,-8.579432e-05,4,1
-0.000338292,-6.359137e-05,4,1
-0.0003836704,-3.766092e-05,4,1
-0.0003812394,-1.075808e-05,4,1
-0.0003452609,1.760335e-05,4,1
-0.0002883759,4.207521e-05,4,1
-0.0002243602,5.795762e-05,4,1
-0.0001627754,6.427817e-05,4,1
-0.0001034594,6.071273e-05,4,1
-3.328516e-05,5.325772e-05,4,1
6.217132e-05,4.904402e-05,4,1
0.0001830721,5.228533e-05,4,1
0.0003130485,6.217132e-05,4,1
0.0004151496,7.546067e-05,4,1
0.0004533971,8.323981e-05,4,1
0.0004075326,7.157111e-05,4,1
0.000282256,3.688912e-05,4,1
0.0001070634,-1.059602e-05,4,1
-7.947377e-05,-5.192267e-05,4,1
-0.0002417012,-6.829127e-05,4,1
-0.0003509331,-5.370539e-05,4,1
-0.000400201,-1.059602e-05,4,1
-0.0004061974,4.77475e-05,4,1
-0.0003945287,0.0001046324,4,1
-0.0003938804,0.0001561692,4,1
-0.0004188385,0.0002057612,4,1
-0.0004601652,0.0002504913,4,1
-0.0004924161,0.0002791768,4,1
-0.0004961436,0.0002814457,4,1
-0.0004708614,0.0002616738,4,1
-0.0004413656,0.0002336365,4,1
-0.0004287245,0.0002158093,4,1
-0.0004386105,0.0002172679,4,1
-0.0004603272,0.0002389846,4,1
-0.0004739407,0.0002744769,4,1
-0.0004629203,0.0003200173,4,1
-0.0004178661,0.0003684748,4,1
-0.0003361852,0.0004117463,4,1
-0.0002237119,0.000433301,4,1
-0.0001010285,0.0004156358,4,1
3.665733e-06,0.0003511338,4,1
6.670914e-05,0.0002435224,4,1
8.161915e-05,0.0001065772,4,1
5.730935e-05,-3.231277e-05,4,1
2.732727e-05,-0.0001451102,4,1
3.202716e-05,-0.0002162569,4,1
9.571884e-05,-0.0002486699,4,1
0.0002034923,-0.0002543422,4,1
0.0003136967,-0.0002498044,4,1
0.0003845193,-0.0002467252,4,1
0.0003950536,-0.0002548284,4,1
0.00035162,-0.0002752487,4,1
0.0002744769,-0.0003066893,4,1
0.0001850168,-0.0003465574,4,1
9.879808e-05,-0.0003932322,4,1
2.716521e-05,-0.0004476861,4,1
-2.46957e-05,-0.000509433,4,1
-5.937768e-05,-0.0005703696,4,1
-8.790117e-05,-0.00061121,4,1
-0.0001208004,-0.0006133168,4,1
-0.0001609926,-0.0005749074,4,1
-0.0002037779,-0.000514457,4,1
-0.0002439701,-0.0004527101,4,1
-0.0002827037,-0.0004047388,4,1
-0.00032322,-0.000377836,4,1
-0.0003640605,-0.0003673017,4,1
-0.0003895047,-0.0003617915,4,1
-0.0003788084,-0.0003489884,4,1
-0.0003241924,-0.0003217614,4,1
-0.000238784,-0.0002797865,4,1
-0.000144624,-0.000231491,4,1
-5.64605e-05,-0.0001911368,4,1
2.214118e-05,-0.0001661787,4,1
8.891209e-05,-0.0001598582,4,1
0.0001445005,-0.000166827,4,1
0.0001936063,-0.0001771992,4,1
0.0002443328,-0.0001835197,4,1
0.0002961937,-0.0001809267,4,1
0.0003427064,-0.000166827,4,1
0.0003709058,-0.0001417068,4,1
0.000371392,-0.0001138316,4,1
0.0003451374,-8.935975e-05,4,1
0.0002979764,-7.218083e-05,4,1
0.0002380122,-6.099833e-05,4,1
0.0001746447,-4.85193e-05,4,1
0.0001140322,-3.117831e-05,4,1
6.006447e-05,-6.868513e-06,4,1
1.160693e-05,2.133085e-05,4,1
-3.328516e-05,5.358185e-05,4,1
-7.947377e-05,9.101894e-05,4,1
-0.0001227452,0.0001352628,4,1
-0.0001585616,0.0001880961,4,1
-0.0001856265,0.0002488706,4,1
-0.0002037779,0.0003148312,4,1
-0.0002123673,0.000381278,4,1
-0.0002088019,0.0004427008,4,1
-0.0001924333,0.0004869446,4,1
-0.0001700683,0.0005078511,4,1
-0.0001455964,0.0005065545,4,1
-0.0001170729,0.0004901859,4,1
-7.833932e-05,0.0004686312,4,1
-2.258885e-05,0.0004521006,4,1
4.871989e-05,0.0004451317,4,1
0.0001240803,0.0004456179,4,1
0.0001887444,0.0004443214,4,1
0.0002302331,0.00043087,4,1
0.0002483844,0.00040105,4,1
0.0002561635,0.0003519442,4,1
0.0002657254,0.0002833905,4,1
0.0002795009,0.0001983062,4,1
0.0002960316,0.0001047945,4,1
0.000314345,2.01964e-05,4,1
0.0003336308,-3.992984e-05,4,1
0.00035162,-6.764301e-05,4,1
0.0003595612,-6.310517e-05,4,1
0.0003487029,-3.749886e-05,4,1
0.0003120761,-9.785688e-06,4,1
0.0002516257,1.072688e-06,4,1
0.0001759412,-1.383732e-05,4,1
9.750156e-05,-4.787104e-05,4,1
2.505836e-05,-8.465986e-05,4,1
-3.604027e-05,-0.0001068628,4,1
-7.866345e-05,-0.0001050801,4,1
-9.811128e-05,-7.623246e-05,4,1
-9.908367e-05,-2.566809e-05,4,1
-9.649064e-05,3.218923e-05,4,1
-0.0001086455,8.242948e-05,4,1
-0.0001533756,0.0001163011,4,1
-0.0002370013,0.0001310491,4,1
-0.0003561192,0.0001297526,4,1
-0.0004984126,0.0001153287,4,1
-0.0006413542,8.080883e-05,4,1
-0.0007578791,1.501031e-05,4,1
-0.00082465,-8.044617e-05,4,1
-0.0008252983,-0.0001947022,4,1
-0.0007509103,-0.0003011791,4,1
-0.0006016482,-0.0003651949,4,1
-0.0003974459,-0.0003643846,4,1
-0.000169258,-0.0003092824,4,1
6.281957e-05,-0.0002305186,4,1
0.0002974902,-0.000159372,4,1
0.0005435055,-0.0001159385,4,1
0.0007987585,-0.0001024871,4,1
0.001036509,-0.0001079973,4,1
0.001221425,-0.0001199901,4,1
0.001332278,-0.0001324691,4,1
0.001372795,-0.0001486757,4,1
0.001353995,-0.0001737958,4,1
0.001289817,-0.0002071812,4,1
0.001195009,-0.0002368392,4,1
0.001085452,-0.000246401,4,1
0.0009788133,-0.0002279256,4,1
0.0008854635,-0.0001898403,4,1
0.0008068618,-0.0001596961,4,1
0.0007334462,-0.0001603444,4,1
0.0006475514,-0.0001880575,4,1
0.0005357263,-0.0002207947,4,1
0.0003895433,-0.0002334358,4,1
0.0002073819,-0.000216419,4,1
-3.14101e-06,-0.0001689338,4,1
-0.0002227395,-9.373552e-05,4,1
-0.000434883,3.503668e-06,4,1
-0.0006314681,0.0001153287,4,1
-0.0008069849,0.0002321778,4,1
-0.0009539781,0.0003467581,4,1
-0.001062238,0.0004579349,4,1
-0.001118312,0.0005642498,4,1
-0.001109561,0.0006605167,4,1
-0.001038252,0.000735553,4,1
-0.000921565,0.000784983,4,1
-0.0007797579,0.0008081583,4,1
-0.0006313061,0.0008089686,4,1
-0.0004885266,0.0007908173,4,1
-0.0003572537,0.0007601869,4,1
-0.0002459149,0.0007185361,4,1
-0.0001515928,0.0006653786,4,1
-6.326724e-05,0.000599256,4,1
2.068259e-05,0.0005209784,4,1
8.259155e-05,0.0004261701,4,1
0.0001039842,0.0003122381,4,1
8.242948e-05,0.0001887444,4,1
3.964424e-05,7.610894e-05,4,1
-7.100305e-07,-4.761664e-06,4,1
-2.599222e-05,-4.122636e-05,4,1
-3.976777e-05,-3.749886e-05,4,1
-5.889148e-05,-1.059602e-05,4,1
-9.486997e-05,2.084466e-05,4,1
-0.0001413827,4.434413e-05,4,1
-0.0001778474,5.374392e-05,4,1
-0.0001914609,5.163707e-05,4,1
-0.0001835197,4.256141e-05,4,1
-0.0001611547,3.18651e-05,4,1
-0.0001240417,2.76514e-05,4,1
-6.893953e-05,3.202716e-05,4,1
3.827799e-06,4.223728e-05,4,1
9.604298e-05,5.487838e-05,4,1
0.0002146748,6.881599e-05,4,1
0.0003710679,8.437427e-05,4,1
0.000564574,9.750156e-05,4,1
0.000770397,0.0001031738,4,1
0.0009316522,9.26396e-05,4,1
0.0009959922,5.341979e-05,4,1
0.0009405658,-1.383732e-05,4,1
0.0007877381,-9.405965e-05,4,1
0.0005879114,-0.0001703924,4,1
0.0003924605,-0.0002303566,4,1
0.0002381743,-0.0002658489,4,1
0.0001427178,-0.0002705488,4,1
9.426025e-05,-0.0002402425,4,1
5.52025e-05,-0.0001794681,4,1
-1.691656e-05,-9.29252e-05,4,1
-0.0001313347,1.306552e-05,4,1
-0.0002634179,0.0001260251,4,1
-0.0003799429,0.0002206712,4,1
-0.0004656754,0.0002713977,4,1
-0.0005258016,0.000264753,4,1
-0.0005682627,0.0002060853,4,1
-0.0005891691,0.0001090082,4,1
-0.0005734488,-7.516774e-06,4,1
-0.0005100812,-0.0001211246,4,1
-0.0004065215,-0.0002178775,4,1
-0.0002820554,-0.0003006929,4,1
-0.0001621271,-0.0003784843,4,1
-5.727083e-05,-0.0004536825,4,1
2.327564e-05,-0.0005254775,4,1
5.99024e-05,-0.0005946793,4,1
3.656499e-05,-0.0006522125,4,1
-4.300908e-05,-0.0006914323,4,1
-0.0001535376,-0.0007097457,4,1
-0.000258718,-0.0007058561,4,1
-0.0003284061,-0.0006792775,4,1
-0.0003499608,-0.0006322784,4,1
-0.0003298647,-0.0005710179,4,1
-0.0002828657,-0.0005050572,4,1
-0.0002292221,-0.0004429862,4,1
-0.0001840059,-0.0003933943,4,1
-0.0001556445,-0.0003621157,4,1
-0.0001486757,-0.0003491504,4,1
-0.0001556445,-0.0003457471,4,1
-0.0001596961,-0.0003386162,4,1
-0.0001464067,-0.0003193304,4,1
-0.0001101041,-0.0002854588,4,1
-5.289507e-05,-0.0002384598,4,1
1.144487e-05,-0.0001810887,4,1
6.03886e-05,-0.0001190177,4,1
8.064677e-05,-6.035007e-05,4,1
7.6271e-05,-1.740276e-05,4,1
6.184718e-05,2.855407e-06,4,1
5.374392e-05,2.531276e-06,4,1
6.703327e-05,-3.627206e-06,4,1
0.00010366,-6.868513e-06,4,1
0.0001586002,4.244267e-07,4,1
0.000230071,1.9224e-05,4,1
0.0003154794,4.580272e-05,4,1
0.0004018603,7.691926e-05,4,1
0.0004644175,0.0001088461,4,1
0.0004764104,0.0001363972,4,1
0.0004179048,0.000160545,4,1
0.0002867939,0.0001864754,4,1
0.0001057669,0.0002159713,4,1
-8.935975e-05,0.0002456293,4,1
-0.0002663351,0.0002670219,4,1
-0.0004040906,0.0002786906,4,1
-0.0004886886,0.0002866318,4,1
-0.0005139708,0.0002934386,4,1
-0.0004815578,0.0003060797,4,1
-0.0004021458,0.0003237448,4,1
-0.0002937241,0.0003418961,4,1
-0.0001731475,0.0003553475,4,1
-5.176061e-05,0.0003589129,4,1
6.541262e-05,0.0003530786,4,1
0.0001725378,0.0003368721,4,1
0.0002610255,0.0003115899,4,1
0.0003201794,0.0002806354,4,1
0.0003422202,0.0002525981,4,1
0.0003281205,0.0002320158,4,1
0.000289549,0.0002167816,4,1
0.0002444948,0.0001970097,4,1
0.0002109473,0.0001675138,4,1
0.0001963614,0.0001295905,4,1
0.0001976579,9.247754e-05,4,1
0.0002031682,6.541262e-05,4,1
0.0001970097,5.260946e-05,4,1
0.0001647587,5.034055e-05,4,1
0.0001012291,5.212327e-05,4,1
1.274139e-05,5.455425e-05,4,1
-8.465986e-05,5.358185e-05,4,1
-0.0001726613,5.001642e-05,4,1
-0.000241377,4.045456e-05,4,1
-0.000286107,1.97102e-05,4,1
-0.0003055549,-1.545797e-05,4,1
-0.0003079858,-5.808115e-05,4,1
-0.0002964792,-0.0001003802,4,1
-0.0002702246,-0.0001383035,4,1
-0.0002250084,-0.0001721751,4,1
-0.0001682856,-0.0001989159,4,1
-0.0001169109,-0.0002152845,4,1
-8.579432e-05,-0.0002162569,4,1
-8.433573e-05,-0.0001956746,4,1
-0.0001138316,-0.0001562927,4,1
-0.0001632615,-0.0001055663,4,1
-0.0002126914,-5.208474e-05,4,1
-0.0002441321,-8.489166e-06,4,1
-0.0002493182,6.90704e-06,4,1
-0.0002285739,-1.335113e-05,4,1
-0.000176875,-5.743289e-05,4,1
-9.179074e-05,-0.0001036215,4,1
2.359977e-05,-0.0001319829,4,1
0.0001498487,-0.0001324691,4,1
0.0002566497,-0.0001054042,4,1
0.0003195311,-6.116039e-05,4,1
0.000324393,-1.610624e-05,4,1
0.0002634565,1.501031e-05,4,1
0.0001336421,3.170304e-05,4,1
-4.414354e-05,4.272347e-05,4,1
-0.0002219292,5.536457e-05,4,1
-0.0003483401,6.492643e-05,4,1
-0.000395177,6.168512e-05,4,1
-0.000370543,3.98063e-05,4,1
-0.0003121996,-1.844488e-06,4,1
-0.0002603387,-6.634648e-05,4,1
-0.0002392702,-0.0001407345,4,1
-0.000251101,-0.000199078,4,1
-0.0002836761,-0.0002196603,4,1
-0.0003175477,-0.0001981056,4,1
-0.0003313232,-0.0001413827,4,1
-0.0002995585,-6.521203e-05,4,1
-0.0002099363,1.403791e-05,4,1
-7.056019e-05,9.101894e-05,4,1
9.733949e-05,0.0001670276,4,1
0.0002739907,0.000242388,4,1
0.0004452938,0.0003158036,4,1
0.0006039558,0.0003791712,4,1
0.0007449528,0.0004232529,4,1
0.0008724983,0.000443349,4,1
0.0009885372,0.0004310321,4,1
0.001092097,0.0003816021,4,1
0.001181395,0.0003005694,4,1
0.001255297,0.0002130541,4,1
0.001303917,0.0001470936,4,1
0.001306024,0.0001161391,4,1
0.001238118,0.0001174356,4,1
0.001093231,0.0001346145,4,1
0.0008883807,0.0001519555,4,1
0.0006559788,0.0001636242,4,1
0.0004344354,0.0001785342,4,1
0.0002584324,0.0002030061,4,1
0.0001469315,0.0002339606,4,1
9.53947e-05,0.000257298,4,1
8.032264e-05,0.0002605393,4,1
6.379197e-05,0.0002401191,4,1
1.095867e-05,0.0002046267,4,1
-8.709085e-05,0.0001650828,4,1
-0.0002088019,0.000128456,4,1
-0.0003164132,9.960841e-05,4,1
-0.0003760533,7.853991e-05,4,1
-0.0003817256,6.930219e-05,4,1
-0.0003468815,7.043665e-05,4,1
-0.0002916173,8.064677e-05,4,1
-0.0002352185,9.247754e-05,4,1
-0.000191623,9.620504e-05,4,1
-0.0001796301,8.534666e-05,4,1
-0.0002128535,6.087479e-05,4,1
-0.0002932379,2.716521e-05,4,1
-0.000410087,-7.840905e-06,4,1
-0.0005376324,-3.928157e-05,4,1
-0.0006441093,-5.905355e-05,4,1
-0.0007047217,-5.905355e-05,4,1
-0.0007157421,-3.798505e-05,4,1
-0.0006961322,-1.682422e-06,4,1
-0.0006760361,4.628891e-05,4,1
-0.0006689052,0.0001025256,4,1
-0.0006692294,0.000162976,4,1
-0.000665826,0.0002192126,4,1
-0.0006548056,0.0002600531,4,1
-0.0006463782,0.0002709115,4,1
-0.0006666363,0.0002436845,4,1
-0.0007316245,0.0001770756,4,1
-0.0008363187,7.935024e-05,4,1
-0.0009570573,-3.198864e-05,4,1
-0.001063858,-0.0001379794,4,1
-0.001134033,-0.0002277635,4,1
-0.001156236,-0.0003023136,4,1
-0.001122202,-0.0003634122,4,1
-0.00101848,-0.0004136524,4,1
-0.0008321049,-0.0004561135,4,1
-0.0005716661,-0.0005008436,4,1
-0.000271197,-0.0005548113,4,1
3.397195e-05,-0.0006176926,4,1
0.0003229345,-0.0006736051,4,1
0.0005909906,-0.0007021286,4,1
0.0008329543,-0.0006915944,4,1
0.001040884,-0.0006442713,4,1
0.001204733,-0.0005703696,4,1
0.001323527,-0.000489499,4,1
0.001396132,-0.0004164075,4,1
0.001423197,-0.0003548227,4,1
0.001406991,-0.0003016653,4,1
0.001355616,-0.0002564491,4,1
0.001275231,-0.0002157707,4,1
0.001179288,-0.0001757406,4,1
0.001079942,-0.0001313347,4,1
0.0009797857,-8.320128e-05,4,1
0.0008707156,-3.458168e-05,4,1
0.0007438183,1.403791e-05,4,1
0.0005995801,6.184718e-05,4,1
0.0004499937,0.0001096565,4,1
0.0003072141,0.0001589243,4,1
0.0001809652,0.0002054371,4,1
7.691926e-05,0.0002407673,4,1
4.47606e-06,0.0002621599,4,1
-3.247483e-05,0.0002726942,4,1
-2.89094e-05,0.0002767458,4,1
1.825161e-05,0.0002812837,4,1
0.0001143563,0.0002939248,4,1
0.0002545429,0.0003145071,4,1
0.0004169324,0.0003380065,4,1
0.0005660325,0.0003542131,4,1
0.0006721854,0.000359075,4,1
0.0007188602,0.0003543751,4,1
0.0007037881,0.000346596,4,1
0.0006407447,0.0003469201,4,1
0.0005540397,0.0003593992,4,1
0.0004678209,0.0003793332,4,1
0.0003879227,0.0003984569,4,1
0.0003021901,0.0004013741,4,1
0.0001955511,0.0003765781,4,1
6.071273e-05,0.0003149933,4,1
-0.0001029732,0.0002187264,4,1
-0.0002771934,0.0001099806,4,1
-0.0004356933,1.274139e-05,4,1
-0.0005606457,-5.905355e-05,4,1
-0.000650916,-9.973194e-05,4,1
-0.0007241695,-0.0001151281,4,1
-0.0007970989,-0.0001242038,4,1
-0.0008729455,-0.0001381414,4,1
-0.0009494403,-0.0001566169,4,1
-0.001016373,-0.0001673132,4,1
-0.001064345,-0.0001536997,4,1
-0.001086223,-0.0001130213,4,1
-0.001085899,-5.500191e-05,4,1
-0.001067424,6.582909e-06,4,1
-0.001026421,5.747142e-05,4,1
-0.0009523575,9.426025e-05,4,1
-0.0008358325,0.0001221355,4,1
-0.0006800878,0.0001474177,4,1
-0.0004953333,0.0001765894,4,1
-0.0002917793,0.0002070577,4,1
-8.012204e-05,0.0002308813,4,1
0.0001235941,0.0002410915,4,1
0.000302028,0.000235095,4,1
0.0004423766,0.0002184023,4,1
0.0005417228,0.0002021958,4,1
0.0006071971,0.0001945787,4,1
0.0006481997,0.0001991165,4,1
0.0006652166,0.0002094887,4,1
0.0006496583,0.0002107852,4,1
0.0005877494,0.0001910133,4,1
0.000468145,0.0001574657,4,1
0.0002910076,0.0001346145,4,1
7.967438e-05,0.0001404489,4,1
-0.000132145,0.0001668655,4,1
-0.0003104168,0.0001876099,4,1
-0.0004280762,0.0001806411,4,1
-0.0004828543,0.0001412592,4,1
-0.0005008436,8.242948e-05,4,1
-0.0005165638,2.635488e-05,4,1
-0.0005501114,-1.140634e-05,4,1
-0.0005904656,-2.988179e-05,4,1
-0.0006105618,-4.252288e-05,4,1
-0.0005903036,-6.326724e-05,4,1
-0.0005283947,-9.389759e-05,4,1
-0.0004463896,-0.0001303623,4,1
-0.0003647087,-0.0001661787,4,1
-0.0002883759,-0.0001919471,4,1
-0.0002122053,-0.0002084778,4,1
-0.0001387897,-0.0002204706,4,1
-7.704279e-05,-0.000233922,4,1
-3.312309e-05,-0.0002569353,4,1
-6.544382e-06,-0.0002950206,4,1
2.531276e-06,-0.0003391024,4,1
-8.975362e-06,-0.0003713534,4,1
-4.155049e-05,-0.0003791325,4,1
-9.065628e-05,-0.0003661673,4,1
-0.0001438137,-0.0003481781,4,1
-0.0001809267,-0.0003407231,4,1
-0.0001844921,-0.0003501228,4,1
-0.0001543479,-0.000370381,4,1
-0.0001044318,-0.0003870737,4,1
-5.710876e-05,-0.0003833462,4,1
-3.26369e-05,-0.0003543365,4,1
-4.122636e-05,-0.0003081479,4,1
-8.174268e-05,-0.0002546664,4,1
-0.0001350622,-0.0002003745,4,1
-0.0001784957,-0.0001507825,4,1
-0.0001890299,-0.0001071869,4,1
-0.0001486757,-6.521203e-05,4,1
-4.916756e-05,-1.837515e-05,4,1
0.0001078737,3.397195e-05,4,1
0.0003051073,8.518459e-05,4,1
0.0005185474,0.0001255389,4,1
0.0007248566,0.0001495245,4,1
0.0009011839,0.0001611932,4,1
0.001025326,0.0001689724,4,1
0.001081077,0.0001816135,4,1
0.00106406,0.0001996027,4,1
0.0009810822,0.0002164575,4,1
0.0008520781,0.000225209,4,1
0.0007075156,0.0002245608,4,1
0.0005747841,0.0002132162,4,1
0.0004691174,0.0001905271,4,1
0.0003851676,0.0001589243,4,1
0.0003098072,0.0001224596,4,1
0.0002391467,8.583286e-05,4,1
0.0001741585,5.179914e-05,4,1
0.0001175977,2.295151e-05,4,1
6.881599e-05,3.503668e-06,4,1
2.149292e-05,-5.085794e-06,4,1
-3.21507e-05,-8.002969e-06,4,1
-9.486997e-05,-1.25408e-05,4,1
-0.0001577513,-2.696461e-05,4,1
-0.0002052365,-5.710876e-05,4,1
-0.0002298704,-9.632857e-05,4,1
-0.000228898,-0.0001259865,4,1
-0.0002070192,-0.000122259,4,1
-0.0001702304,-7.396356e-05,4,1
-0.0001336036,9.013889e-06,4,1
-0.0001083214,0.0001005808,4,1
-0.0001039456,0.0001743205,4,1
-0.0001164247,0.00021273,4,1
-0.0001404103,0.0002115956,4,1
-0.0001734716,0.0001752929,4,1
-0.0002136638,0.0001127357,4,1
-0.0002535319,4.142696e-05,4,1
-0.0002801106,-2.307504e-05,4,1
-0.0002875656,-7.299116e-05,4,1
-0.000278652,-0.0001070249,4,1
-0.0002605007,-0.000129714,4,1
-0.0002442942,-0.0001464067,4,1
-0.0002371633,-0.0001561307,4,1
-0.0002382978,-0.0001564548,4,1
-0.0002405667,-0.0001451102,4,1
-0.0002305186,-0.0001302002,4,1
-0.0001981056,-0.0001276072,4,1
-0.0001355484,-0.0001493239,4,1
-4.219875e-05,-0.000196647,4,1
7.124698e-05,-0.0002609869,4,1
0.0001793446,-0.000328082,4,1
0.0002556773,-0.0003859393,4,1
0.0002856594,-0.0004209454,4,1
0.0002642668,-0.0004279142,4,1
0.0002055991,-0.0004097628,4,1
0.0001304008,-0.0003797808,4,1
5.94162e-05,-0.0003463953,4,1
4.151929e-06,-0.0003125237,4,1
-3.069211e-05,-0.0002781658,4,1
-5.013995e-05,-0.0002395943,4,1
-6.359137e-05,-0.0001945401,4,1
-8.07703e-05,-0.0001413827,4,1
-0.0001016767,-8.174268e-05,4,1
-0.0001146419,-1.448558e-05,4,1
-9.794922e-05,5.666109e-05,4,1
-3.393342e-05,0.0001255389,4,1
7.465034e-05,0.0001843686,4,1
0.0001934442,0.0002279642,4,1
0.0002791768,0.0002540567,4,1
0.0003096451,0.000264753,4,1
0.0002936006,0.0002689667,4,1
0.0002569738,0.0002793389,4,1
0.000232502,0.0003064038,4,1
0.0002373639,0.0003512959,4,1
0.0002689667,0.0004034809,4,1
0.0003101313,0.000450642,4,1
0.0003427064,0.0004845136,4,1
0.0003527545,0.0005096338,4,1
0.0003324963,0.000532485,4,1
0.0002910076,0.0005600362,4,1
0.000247412,0.0005905044,4,1
0.0002219677,0.0006130316,4,1
0.0002258573,0.0006120591,4,1
0.0002535705,0.0005812666,4,1
0.0002931144,0.0005258403,4,1
0.0003282826,0.0004616624,4,1
0.0003418961,0.0004042913,4,1
0.0003190449,0.0003632887,4,1
0.0002602152,0.0003371962,4,1
0.0001812893,0.0003188828,4,1
9.798775e-05,0.0002983005,4,1
2.100672e-05,0.0002731804,4,1
-4.592625e-05,0.0002428742,4,1
-0.0001021629,0.0002081922,4,1
-0.0001451102,0.0001723757,4,1
-0.0001689338,0.0001420695,4,1
-0.0001757406,0.0001200286,4,1
-0.0001786577,0.0001046324,4,1
-0.0001935677,9.26396e-05,4,1
-0.000238784,7.708133e-05,4,1
-0.0003170615,5.341979e-05,4,1
-0.0004170558,2.295151e-05,4,1
-0.0005164018,-1.853722e-05,4,1
-0.0005985689,-7.33153e-05,4,1
-0.0006520505,-0.0001387897,4,1
-0.0006659881,-0.0002057227,4,1
-0.0006368163,-0.0002608248,4,1
-0.0005663179,-0.0002899966,4,1
-0.0004629203,-0.0002780038,4,1
-0.0003450988,-0.0002167431,4,1
-0.0002319772,-0.0001156143,4,1
-0.000142031,-6.176923e-08,4,1
-8.725291e-05,0.0001022015,4,1
-6.586029e-05,0.0001712413,4,1
-6.618442e-05,0.0001992786,4,1
-7.18567e-05,0.0001913374,4,1
-7.396356e-05,0.0001610312,4,1
-7.072225e-05,0.0001187321,4,1
-6.456377e-05,7.30297e-05,4,1
-5.59743e-05,2.927205e-05,4,1
-4.446767e-05,-1.383732e-05,4,1
-3.571614e-05,-6.359137e-05,4,1
-3.830919e-05,-0.0001251762,4,1
-5.176061e-05,-0.0001968091,4,1
-6.197072e-05,-0.0002707109,4,1
-5.354332e-05,-0.000335537,4,1
-1.821308e-05,-0.0003846427,4,1
3.867184e-05,-0.0004177041,4,1
0.0001041462,-0.0004416897,4,1
0.0001587623,-0.0004600031,4,1
0.0001934442,-0.0004716718,4,1
0.0002117576,-0.0004794509,4,1
0.0002273159,-0.0004877163,4,1
0.0002560015,-0.0004988988,4,1
0.0003002453,-0.0005131605,4,1
0.0003496752,-0.0005296912,4,1
0.0003910019,-0.0005415219,4,1
0.000416122,-0.0005374703,4,1
0.0004266563,-0.0005104054,4,1
0.0004318424,-0.0004603272,4,1
0.0004326527,-0.0003946908,4,1
0.0004248736,-0.0003222476,4,1
0.0004054258,-0.0002483458,4,1
0.0003730126,-0.0001757406,4,1
0.0003286068,-0.0001042698,4,1
0.000279663,-3.668853e-05,4,1
0.000234933,2.262738e-05,4,1
0.0001965235,6.946425e-05,4,1
0.0001634622,9.960841e-05,4,1
0.0001292664,0.0001124116,4,1
8.84259e-05,0.0001104668,4,1
3.769945e-05,9.960841e-05,4,1
-2.583016e-05,8.583286e-05,4,1
-0.0001065387,7.772959e-05,4,1
-0.0001989159,8.42122e-05,4,1
-0.0002851347,0.0001072255,4,1
-0.0003475298,0.0001419075,4,1
-0.0003770257,0.0001783722,4,1
-0.0003776739,0.0002109473,4,1
-0.000360495,0.0002359054,4,1
-0.0003337542,0.0002558394,4,1
-0.0002982619,0.0002730183,4,1
-0.0002489941,0.0002819319,4,1
-0.0001776853,0.0002807975,4,1
-8.725291e-05,0.0002720459,4,1
1.031041e-05,0.0002563256,4,1
9.717743e-05,0.0002368777,4,1
0.0001637863,0.0002203471,4,1
0.0002068957,0.0002164575,4,1
0.0002344468,0.0002307193,4,1
0.0002558394,0.000262322,4,1
0.0002760976,0.0003054314,4,1
0.0002939248,0.000354051,4,1
0.0002966799,0.0004033189,4,1
0.0002718839,0.0004467524,4,1
0.0002104611,0.0004749518,4,1
0.0001101427,0.000483055,4,1
-2.631635e-05,0.000468145,4,1
-0.0001950263,0.0004303838,4,1
-0.0004005251,0.0003734989,4,1
-0.0006353577,0.0003049452,4,1
-0.0008810487,0.0002316917,4,1
-0.001111992,0.0001636242,4,1
-0.00129707,0.0001028497,4,1
-0.001408247,4.758544e-05,4,1
-0.001424454,4.244267e-07,4,1
-0.0013418,-3.134038e-05,4,1
-0.001170984,-4.365734e-05,4,1
-0.0009322613,-4.122636e-05,4,1
-0.000653185,-3.004385e-05,4,1
-0.0003596847,-1.659243e-05,4,1
-6.553616e-05,-4.275467e-06,4,1
0.0002161334,1.720949e-06,4,1
0.0004744656,-5.409925e-06,4,1
0.0007050846,-2.696461e-05,4,1
0.0009062079,-5.516398e-05,4,1
0.001073622,-8.239095e-05,4,1
0.001201653,-0.0001021629,4,1
0.001285603,-0.0001144799,4,1
0.001325634,-0.000117235,4,1
0.001321744,-0.0001094559,4,1
0.001265669,-9.470791e-05,4,1
0.001163082,-7.850138e-05,4,1
0.001028243,-7.039812e-05,4,1
0.0008663398,-7.623246e-05,4,1
0.0006778577,-9.66527e-05,4,1
0.0004734932,-0.0001256624,4,1
0.0002713977,-0.0001564548,4,1
8.826383e-05,-0.0001830335,4,1
-6.731888e-05,-0.0002024813,4,1
-0.0001870851,-0.0002136638,4,1
-0.0002639041,-0.0002147983,4,1
-0.0002942103,-0.0002055606,4,1
-0.0002788141,-0.0001914609,4,1
-0.0002175534,-0.0001789819,4,1
-0.0001114006,-0.0001697442,4,1
2.214118e-05,-0.0001627754,4,1
0.0001475797,-0.0001566169,4,1
0.0002331503,-0.0001524032,4,1
0.0002694529,-0.000151917,4,1
0.0002762596,-0.0001543479,4,1
0.0002911697,-0.0001572651,4,1
0.0003399513,-0.0001582375,4,1
0.0004172565,-0.0001572651,4,1
0.0004841895,-0.0001549962,4,1
0.0005049339,-0.0001468929,4,1
0.0004653899,-0.0001280934,4,1
0.0003741471,-0.0001015147,4,1
0.000250005,-7.250496e-05,4,1
0.0001150046,-4.608832e-05,4,1
-1.108221e-05,-2.615429e-05,4,1
-0.0001037836,-1.221667e-05,4,1
-0.0001423551,-6.706447e-06,4,1
-0.0001289037,-4.437533e-06,4,1
-9.19528e-05,-3.858999e-07,4,1
-7.072225e-05,5.610517e-06,4,1
-9.146661e-05,1.322759e-05,4,1
-0.0001512687,2.359977e-05,4,1
-0.0002318152,3.786152e-05,4,1
-0.0003071755,5.974033e-05,4,1
-0.000348016,8.777764e-05,4,1
-0.0003391024,0.0001153287,4,1
-0.0002870794,0.0001376938,4,1
-0.000221605,0.0001550348,4,1
-0.0001754164,0.0001691344,4,1
-0.0001663408,0.0001838824,4,1
-0.0001938919,0.000202844,4,1
-0.0002404046,0.0002260194,4,1
-0.000283514,0.0002517878,4,1
-0.0003094444,0.0002773941,4,1
-0.000318358,0.0002981384,4,1
-0.0003160891,0.0003114278,4,1
-0.0003168994,0.0003182346,4,1
-0.000333106,0.000319369,4,1
-0.000367788,0.0003153174,4,1
-0.00041268,0.0003038107,4,1
-0.0004502792,0.0002853353,4,1
-0.0004659995,0.0002645909,4,1
-0.0004578962,0.0002446569,4,1
-0.0004321279,0.00022764,4,1
-0.0003950149,0.000215161,4,1
-0.0003543365,0.0002038164,4,1
-0.0003180339,0.0001846927,4,1
-0.0002932379,0.0001485521,4,1
-0.0002870794,9.134307e-05,4,1
-0.0002950206,2.214118e-05,4,1
-0.000298424,-4.317115e-05,4,1
-0.0002823795,-8.871149e-05,4,1
-0.000241377,-0.0001099421,4,1
-0.000186761,-0.0001112386,4,1
-0.0001425172,-0.0001000561,4,1
-0.0001308485,-8.125649e-05,4,1
-0.0001629374,-6.44017e-05,4,1
-0.0002335979,-5.791909e-05,4,1
-0.0003271096,-6.845333e-05,4,1
-0.0004246728,-9.341139e-05,4,1
-0.0005164018,-0.0001230693,4,1
-0.0005977586,-0.0001483515,4,1
-0.0006632329,-0.0001673132,4,1
-0.0007069906,-0.0001862748,4,1
-0.0007293556,-0.000216581,4,1
-0.0007298418,-0.0002619593,4,1
-0.000705532,-0.0003141443,4,1
-0.0006510781,-0.0003566054,4,1
-0.0005593491,-0.0003747568,4,1
-0.0004303451,-0.0003606571,4,1
-0.0002794623,-0.0003138202,4,1
-0.0001235555,-0.0002507768,4,1
2.927205e-05,-0.0001903264,4,1
0.0001889064,-0.0001478653,4,1
0.000366368,-0.0001263107,4,1
0.0005542018,-0.0001164247,4,1
0.0007227498,-0.0001091317,4,1
0.0008348991,-9.632857e-05,4,1
0.00088676,-7.412562e-05,4,1
0.0009021563,-4.203669e-05,4,1
0.0009091251,-6.176923e-08,4,1
0.0009251696,4.191315e-05,4,1
0.0009566103,7.157111e-05,4,1
0.0009980991,8.080883e-05,4,1
0.001035374,6.654708e-05,4,1
0.001052715,3.348575e-05,4,1
0.001041046,-1.156841e-05,4,1
0.001007499,-6.197072e-05,4,1
0.0009632549,-0.0001076731,4,1
0.0009102596,-0.0001400862,4,1
0.0008391128,-0.0001536997,4,1
0.0007428459,-0.0001465688,4,1
0.0006263209,-0.0001204763,4,1
0.0005047718,-8.109443e-05,4,1
0.0003947294,-4.009191e-05,4,1
0.0002978143,-5.89612e-06,4,1
0.0002109473,1.614476e-05,4,1
0.0001291043,2.473423e-05,4,1
4.580272e-05,2.003433e-05,4,1
-3.863332e-05,2.855407e-06,4,1
-0.0001139937,-1.837515e-05,4,1
-0.0001650443,-3.960571e-05,4,1
-0.0001870851,-5.678463e-05,4,1
-0.000179306,-6.715681e-05,4,1
-0.0001464067,-6.877746e-05,4,1
-0.000107349,-5.953974e-05,4,1
-7.850138e-05,-3.928157e-05,4,1
-6.829127e-05,-1.059602e-05,4,1
-7.104638e-05,2.505836e-05,4,1
-7.688073e-05,6.897806e-05,4,1
-7.671866e-05,0.0001171115,4,1
-6.521203e-05,0.000165569,4,1
-4.949169e-05,0.0002073819,4,1
-3.879538e-05,0.000239957,4,1
-3.701266e-05,0.0002649151,4,1
-4.527799e-05,0.0002861456,4,1
-6.407757e-05,0.0003096451,4,1
-9.535618e-05,0.0003412479,4,1
-0.000144462,0.0003856538,4,1
-0.0002070192,0.0004402698,4,1
-0.0002770314,0.0004955341,4,1
-0.0003418575,0.0005409124,4,1
-0.0003912874,0.0005704083,4,1
-0.0004202971,0.0005785116,4,1
-0.0004271038,0.0005642498,4,1
-0.0004044147,0.0005258403,4,1
-0.0003386162,0.0004645796,4,1
-0.0002241981,0.0003803056,4,1
-8.093236e-05,0.000274801,4,1
5.487838e-05,0.0001529279,4,1
0.0001422316,2.554455e-05,4,1
0.0001553589,-9.098041e-05,4,1
8.648112e-05,-0.0001783336,4,1
-4.544006e-05,-0.000228898,4,1
-0.0001994021,-0.0002433218,4,1
-0.0003339163,-0.0002386219,4,1
-0.0004228902,-0.0002340841,4,1
-0.0004604893,-0.0002426735,4,1
-0.0004514136,-0.0002656868,4,1
-0.0004044147,-0.0002977757,4,1
-0.0003301888,-0.0003301888,4,1
-0.0002429977,-0.0003533641,4,1
-0.00015451,-0.0003614674,4,1
-7.785312e-05,-0.0003630881,4,1
-1.788895e-05,-0.0003695707,4,1
2.116879e-05,-0.0003818876,4,1
3.802358e-05,-0.0003904771,4,1
3.299956e-05,-0.0003830221,4,1
9.013889e-06,-0.0003588744,4,1
-2.09682e-05,-0.0003271096,4,1
-4.333321e-05,-0.0003003688,4,1
-5.111234e-05,-0.0002867553,4,1
-4.997789e-05,-0.0002852967,4,1
-5.710876e-05,-0.0002906449,4,1
-8.773911e-05,-0.0002945344,4,1
-0.0001336036,-0.0002998826,4,1
-0.0001715269,-0.0003125237,4,1
-0.0001840059,-0.0003327818,4,1
-0.0001775233,-0.0003543365,4,1
-0.0001703924,-0.0003702189,4,1
-0.0001715269,-0.0003694086,4,1
-0.0001736337,-0.0003407231,4,1
-0.0001707166,-0.0002823795,4,1
-0.0001567789,-0.0002010227,4,1
-0.0001216107,-0.0001110765,4,1
-5.516398e-05,-2.664048e-05,4,1
5.277153e-05,4.02925e-05,4,1
0.0002039785,8.291568e-05,4,1
0.0003827366,9.863601e-05,4,1
0.0005553362,0.0001002567,4,1
0.0006809369,0.0001052807,4,1
0.0007349047,0.0001276457,4,1
0.0007185361,0.0001676758,4,1
0.0006579236,0.0002196988,4,1
0.0005812666,0.0002749631,4,1
0.0005131993,0.000329255,4,1
0.0004660382,0.0003851676,4,1
0.0004389733,0.0004469145,4,1
0.000428277,0.0005120648,4,1
0.0004310321,0.0005759185,4,1
0.0004326527,0.0006332897,4,1
0.0004140152,0.0006738061,4,1
0.0003697714,0.0006898505,4,1
0.0003122381,0.0006804507,4,1
0.0002577842,0.0006512789,4,1
0.0002229401,0.0006076833,4,1
0.0002091646,0.000557281,4,1
0.0002070577,0.0005063924,4,1
0.0002020337,0.0004618245,4,1
0.0001856651,0.0004279528,4,1
0.0001566554,0.0004002396,4,1
0.0001128978,0.0003717161,4,1
5.698522e-05,0.0003342791,4,1
-7.840905e-06,0.0002884145,4,1
-7.444975e-05,0.0002396328,4,1
-0.0001349001,0.0001966855,4,1
-0.000186761,0.0001636242,4,1
-0.0002261429,0.0001401247,4,1
-0.0002499665,0.000121001,4,1
-0.000261311,0.0001047945,4,1
-0.0002705488,9.344993e-05,4,1
-0.000288538,9.247754e-05,4,1
-0.0003190063,0.0001007429,4,1
-0.0003527159,0.0001171115,4,1
-0.0003765395,0.000135911,4,1
-0.0003856151,0.0001496866,4,1
-0.0003810773,0.0001537382,4,1
-0.000367788,0.0001488763,4,1
-0.0003481781,0.0001365593,4,1
-0.0003246786,0.0001137081,4,1
-0.0003016653,8.340187e-05,4,1
-0.000285945,4.72613e-05,4,1
-0.0002830278,1.209313e-05,4,1
-0.0002940482,-1.691656e-05,4,1
-0.0003134961,-4.138842e-05,4,1
-0.0003308371,-6.197072e-05,4,1
-0.0003308371,-8.02841e-05,4,1
-0.0003065273,-9.486997e-05,4,1
-0.0002682799,-0.0001118868,4,1
-0.0002344082,-0.0001316588,4,1
-0.0002194982,-0.0001491618,4,1
-0.0002204706,-0.0001606685,4,1
-0.0002227395,-0.0001634236,4,1
-0.0002123673,-0.0001614788,4,1
-0.0001802784,-0.0001635857,4,1
-0.0001332795,-0.000176713,4,1
-9.081835e-05,-0.0002023193,4,1
-7.623246e-05,-0.0002368392,4,1
-9.519411e-05,-0.0002773555,4,1
-0.0001344139,-0.000318358,4,1
-0.000171851,-0.0003493125,4,1
-0.0001862748,-0.0003661673,4,1
-0.000169258,-0.0003716775,4,1
-0.0001225832,-0.0003626019,4,1
-7.007399e-05,-0.0003366714,4,1
-4.074016e-05,-0.0002976137,4,1
-4.560212e-05,-0.0002553146,4,1
-7.639453e-05,-0.0002227395,4,1
-0.0001135075,-0.0002138259,4,1
-0.0001399241,-0.0002326255,4,1
-0.0001426792,-0.000268604,4,1
-0.0001143178,-0.0003018274,4,1
-5.2733e-05,-0.0003170615,4,1
3.769945e-05,-0.0003084721,4,1
0.0001417454,-0.0002838381,4,1
0.000242388,-0.0002590421,4,1
0.0003260137,-0.000246401,4,1
0.0003916502,-0.0002394322,4,1
0.0004423766,-0.0002274394,4,1
0.0004832171,-0.0002045882,4,1
0.0005094717,-0.0001731475,4,1
0.0005063924,-0.0001311726,4,1
0.0004590694,-8.190475e-05,4,1
0.000368961,-3.231277e-05,4,1
0.0002543808,7.393236e-06,4,1
0.0001423936,3.121684e-05,4,1
6.119892e-05,4.272347e-05,4,1
3.413401e-05,5.260946e-05,4,1
6.087479e-05,7.092284e-05,4,1
0.0001211631,9.798775e-05,4,1
0.0001786963,0.0001245665,4,1
0.0002085163,0.0001409351,4,1
0.0002055991,0.0001415833,4,1
0.0001866375,0.0001273216,4,1
0.0001759412,0.0001046324,4,1
0.0001937684,7.967438e-05,4,1
0.0002475741,5.714729e-05,4,1
0.0003386548,4.239934e-05,4,1
0.0004569625,3.996837e-05,4,1
0.0005828873,5.1475e-05,4,1
0.0006989262,7.448828e-05,4,1
0.0007953551,0.0001046324,4,1
0.0008713639,0.0001420695,4,1
0.0009357039,0.0001858272,4,1
0.0009919406,0.000234933,4,1
0.001036347,0.000284687,4,1
0.001057577,0.0003266619,4,1
0.001042991,0.0003530786,4,1
0.0009867544,0.0003632887,4,1
0.0008901635,0.0003572923,4,1
0.0007587284,0.0003404375,4,1
0.0005976353,0.000319207,4,1
0.000410936,0.0002965178,4,1
0.0002017096,0.0002701012,4,1
-1.902341e-05,0.0002435224,4,1
-0.0002298704,0.000217592,4,1
-0.0004057112,0.0001949028,4,1
-0.0005428185,0.0001757791,4,1
-0.000655778,0.0001600588,4,1
-0.0007633893,0.0001459591,4,1
-0.0008719731,0.0001294284,4,1
-0.0009755327,0.0001046324,4,1
-0.001063534,6.897806e-05,4,1
-0.001122526,2.505836e-05,4,1
-0.001144729,-2.194059e-05,4,1
-0.001134843,-6.715681e-05,4,1
-0.001098702,-0.0001125351,4,1
-0.001042304,-0.0001632615,4,1
-0.000973588,-0.000213988,4,1
-0.000901631,-0.0002549905,4,1
-0.0008348601,-0.0002827037,4,1
-0.0007765166,-0.0003002067,4,1
-0.0007231971,-0.0003186821,4,1
-0.0006638812,-0.0003395886,4,1
-0.0005854416,-0.0003590364,4,1
-0.0004843129,-0.0003698948,4,1
-0.0003674638,-0.0003671397,4,1
-0.0002522354,-0.000355471,4,1
-0.0001501342,-0.0003374817,4,1
-6.39155e-05,-0.0003120375,4,1
9.175954e-06,-0.0002831898,4,1
7.594687e-05,-0.0002514251,4,1
0.0001365593,-0.0002206326,4,1
0.0001833962,-0.000194216,4,1
0.0002067336,-0.0001713648,4,1
0.0002081922,-0.0001522411,4,1
0.0001958752,-0.0001350622,4,1
0.0001757791,-0.0001212866,4,1
0.0001540623,-0.0001076731,4,1
0.0001360731,-9.098041e-05,4,1
0.0001255389,-6.861539e-05,4,1
0.0001260251,-4.333321e-05,4,1
0.00013818,-1.918548e-05,4,1
0.0001514693,-1.358292e-06,4,1
0.0001598967,1.095867e-05,4,1
0.0001668655,2.01964e-05,4,1
0.0001782101,2.457216e-05,4,1
0.0001960373,2.359977e-05,4,1
0.0002156472,2.424803e-05,4,1
0.0002320158,3.332369e-05,4,1
0.0002376881,4.385793e-05,4,1
0.0002281262,4.871989e-05,4,1
0.0002046267,4.418206e-05,4,1
0.0001743205,3.267542e-05,4,1
0.0001430419,1.987227e-05,4,1
0.0001146805,1.419998e-05,4,1
9.296373e-05,1.889987e-05,4,1
7.967438e-05,3.462021e-05,4,1
7.092284e-05,6.006447e-05,4,1
6.606088e-05,8.988449e-05,4,1
6.444023e-05,0.0001171115,4,1
6.914012e-05,0.0001393144,4,1
7.853991e-05,0.0001595726,4,1
8.956036e-05,0.0001769136,4,1
9.523264e-05,0.0001921477,4,1
9.377406e-05,0.0002073819,4,1
8.631905e-05,0.0002261814,4,1
7.918817e-05,0.0002478982,4,1
7.52986e-05,0.0002678322,4,1
7.30297e-05,0.0002807975,4,1
6.670914e-05,0.0002892249,4,1
5.552663e-05,0.0003005694,4,1
4.094075e-05,0.0003195311,4,1
2.359977e-05,0.0003444891,4,1
5.610517e-06,0.0003681507,4,1
-6.058186e-06,0.0003796573,4,1
-8.975362e-06,0.0003780367,4,1
-2.654814e-06,0.0003668542,4,1
1.112074e-05,0.0003522683,4,1
3.218923e-05,0.000336548,4,1
5.633696e-05,0.0003221241,4,1
7.724339e-05,0.000311914,4,1
8.518459e-05,0.0003060797,4,1
7.043665e-05,0.0003010556,4,1
2.959619e-05,0.0002923041,4,1
-3.279896e-05,0.0002780424,4,1
-0.000102325,0.0002571359,4,1
-0.0001658546,0.0002328261,4,1
-0.0002088019,0.0002093267,4,1
-0.0002248464,0.000192796,4,1
-0.0002157707,0.0001846927,4,1
-0.0001911368,0.0001791825,4,1
-0.0001665028,0.0001675138,4,1
-0.0001567789,0.0001493625,4,1
-0.0001686097,0.000128294,4,1
-0.0001961608,0.0001075496,4,1
-0.0002222533,8.680524e-05,4,1
-0.0002321393,5.99024e-05,4,1
-0.0002209568,2.910999e-05,4,1
-0.0001912988,-4.113403e-06,4,1
-0.0001485136,-3.814712e-05,4,1
-9.324933e-05,-6.974985e-05,4,1
-3.020592e-05,-9.438378e-05,4,1
2.846173e-05,-0.0001143178,4,1
6.849186e-05,-0.0001358725,4,1
8.210535e-05,-0.0001634236,4,1
7.351589e-05,-0.0001940539,4,1
5.844381e-05,-0.0002201465,4,1
4.02925e-05,-0.0002340841,4,1
9.824215e-06,-0.0002397564,4,1
-4.625038e-05,-0.0002436459,4,1
-0.0001517549,-0.0002551526,4,1
-0.0003165753,-0.0002780038,4,1
-0.0005176983,-0.0003125237,4,1
-0.0007068285,-0.0003551469,4,1
-0.0008261086,-0.0004065215,4,1
-0.0008403703,-0.0004658375,4,1
-0.0007510723,-0.0005251534,4,1
-0.0005849554,-0.0005693972,4,1
-0.000375405,-0.0005860899,4,1
-0.0001517549,-0.0005687489,4,1
6.444023e-05,-0.0005198052,4,1
0.0002621599,-0.0004446069,4,1
0.0004417284,-0.0003512573,4,1
0.0006102764,-0.0002522354,4,1
0.000775259,-0.0001600202,4,1
0.0009423485,-8.806324e-05,4,1
0.001107007,-4.122636e-05,4,1
0.001260321,-1.562004e-05,4,1
0.001386894,2.855407e-06,4,1
0.00147052,2.505836e-05,4,1
0.001501799,5.860588e-05,4,1
0.00148381,0.0001002567,4,1
0.001430166,0.0001406109,4,1
0.001356102,0.0001686482,4,1
0.001270045,0.0001788584,4,1
0.001175237,0.000168162,4,1
0.00107038,0.0001380179,4,1
0.0009525587,9.863601e-05,4,1
0.0008126961,5.99024e-05,4,1
0.0006397723,2.878586e-05,4,1
0.0004371906,1.047248e-05,4,1
0.0002209954,1.234753e-06,4,1
1.825161e-05,-5.247859e-06,4,1
-0.0001468929,-8.165035e-06,4,1
-0.0002595283,-2.81688e-06,4,1
-0.0003123616,1.582063e-05,4,1
-0.0003113892,4.758544e-05,4,1
-0.0002734659,8.648112e-05,4,1
-0.0002160948,0.0001279698,4,1
-0.0001543479,0.0001645966,4,1
-0.0001034594,0.0001851789,4,1
-8.012204e-05,0.0001770756,4,1
-9.357346e-05,0.000135911,4,1
-0.0001449482,7.546067e-05,4,1
-0.0002271153,1.792748e-05,4,1
-0.0003225718,-1.821308e-05,4,1
-0.0004092767,-2.210265e-05,4,1
-0.0004710235,4.962256e-06,4,1
-0.0005115399,5.601284e-05,4,1
-0.0005446012,0.0001163011,4,1
-0.0005834968,0.0001662173,4,1
-0.0006374646,0.0001809652,4,1
-0.0007065044,0.0001419075,4,1
-0.000782513,5.325772e-05,4,1
-0.0008552803,-5.856735e-05,4,1
-0.0009132997,-0.0001577513,4,1
-0.0009449024,-0.0002175534,4,1
-0.0009471713,-0.000226467,4,1
-0.0009222133,-0.0001888679,4,1
-0.0008810487,-0.0001274451,4,1
-0.0008306464,-7.169464e-05,4,1
-0.0007802441,-4.155049e-05,4,1
-0.0007361624,-3.668853e-05,4,1
-0.0006941874,-3.733679e-05,4,1
-0.000645892,-2.307504e-05,4,1
-0.0005800935,2.003433e-05,4,1
-0.0004941989,8.356394e-05,4,1
-0.0003912874,0.0001590864,4,1
-0.0002893484,0.0002386605,4,1
-0.0002070192,0.0003120761,4,1
-0.0001588858,0.0003734989,4,1
-0.0001447861,0.0004237391,4,1
-0.0001541859,0.0004621486,4,1
-0.000176875,0.0004799758,4,1
-0.000206533,0.0004671726,4,1
-0.0002473734,0.0004226047,4,1
-0.0003047445,0.0003475684,4,1
-0.0003676259,0.0002436845,4,1
-0.0004084663,0.0001211631,4,1
-0.0003961493,2.623614e-07,4,1
-0.0003121996,-9.989401e-05,4,1
-0.0001624512,-0.00016942,4,1
2.473423e-05,-0.0002063709,4,1
0.0002070577,-0.0002182017,4,1
0.0003475684,-0.0002173914,4,1
0.0004255218,-0.0002130156,4,1
0.0004391353,-0.000209126,4,1
0.0004078567,-0.0002079916,4,1
0.0003597233,-0.0002104225,4,1
0.000319369,-0.0002194982,4,1
0.0003013798,-0.0002373254,4,1
0.0002992729,-0.0002634179,4,1
0.0002989488,-0.0002925897,4,1
0.000294573,-0.0003138202,4,1
0.0002890628,-0.0003175477,4,1
0.0002866318,-0.0003023136,4,1
0.0002911697,-0.0002750866,4,1
0.000311914,-0.0002476975,4,1
0.0003482167,-0.0002280877,4,1
0.0003892192,-0.0002109087,4,1
0.0004080188,-0.0001859507,4,1
0.0003882468,-0.0001460826,4,1
0.0003363859,-8.935975e-05,4,1
0.0002733424,-2.291298e-05,4,1
0.0002231022,4.531652e-05,4,1
0.0001942546,0.0001106288,4,1
0.0001808031,0.0001678379,4,1
0.0001649207,0.0002120818,4,1
0.0001423936,0.0002397949,4,1
0.0001289422,0.0002555152,4,1
0.0001441764,0.0002663737,4,1
0.0001986303,0.0002736666,4,1
0.0002832284,0.0002769079,4,1
0.0003759298,0.0002756114,4,1
0.000450642,0.0002691288,4,1
0.000485486,0.0002553532,4,1
0.0004746277,0.0002326641,4,1
0.0004313562,0.0002025199,4,1
0.0003780367,0.0001701068,4,1
0.000331848,0.0001406109,4,1
0.0002999212,0.0001206769,4,1
0.0002807975,0.0001098185,4,1
0.0002726942,0.0001028497,4,1
0.0002738286,9.717743e-05,4,1
0.0002812837,9.652917e-05,4,1
0.0002900352,0.0001018773,4,1
0.000299597,0.000110953,4,1
0.0003091589,0.0001164632,4,1
0.0003174242,0.0001132219,4,1
0.0003154794,0.0001049566,4,1
0.0002968419,0.0001023635,4,1
0.0002560015,0.0001138702,4,1
0.0001997648,0.0001391524,4,1
0.0001399627,0.0001715654,4,1
9.280167e-05,0.0002031682,4,1
7.027458e-05,0.0002299089,4,1
6.78436e-05,0.0002487085,4,1
6.670914e-05,0.0002511395,4,1
4.320967e-05,0.0002308813,4,1
-1.432352e-05,0.0001842065,4,1
-9.859748e-05,0.0001219734,4,1
-0.0001929195,5.309566e-05,4,1
-0.0002875656,-1.075808e-05,4,1
-0.0003786463,-5.856735e-05,4,1
-0.0004643789,-8.303922e-05,4,1
-0.0005399013,-7.850138e-05,4,1
-0.0006013241,-5.013995e-05,4,1
