EMG1,EMG2,class,user
0.0002065715,-3.458168e-05,1,1
0.0001942546,2.133085e-05,1,1
0.0001354248,6.444023e-05,1,1
5.260946e-05,8.502253e-05,1,1
-2.858527e-05,8.016057e-05,1,1
-8.579432e-05,5.487838e-05,1,1
-0.0001039456,1.59827e-05,1,1
-7.769106e-05,-2.534396e-05,1,1
-1.383732e-05,-5.921561e-05,1,1
6.719535e-05,-8.465986e-05,1,1
0.0001274836,-0.0001020008,1,1
0.0001376938,-0.0001118868,1,1
9.26396e-05,-0.0001138316,1,1
1.160693e-05,-0.0001078352,1,1
-7.574627e-05,-9.405965e-05,1,1
-0.0001436516,-7.65566e-05,1,1
-0.000186761,-6.213279e-05,1,1
-0.0002100984,-5.176061e-05,1,1
-0.0002199844,-3.814712e-05,1,1
-0.0002177155,-1.821308e-05,1,1
-0.000201509,4.80019e-06,1,1
-0.000174444,2.781346e-05,1,1
-0.0001405724,5.19612e-05,1,1
-0.0001028112,8.405014e-05,1,1
-5.953974e-05,0.0001279698,1,1
-9.137427e-06,0.000175455,1,1
5.244739e-05,0.0002070577,1,1
0.0001240803,0.0002086784,1,1
0.0001999268,0.000187772,1,1
0.000274639,0.0001668655,1,1
0.0003389789,0.0001642725,1,1
0.0003874365,0.0001782101,1,1
0.0004222805,0.0001947408,1,1
0.0004521006,0.0002007372,1,1
0.0004832171,0.0001918236,1,1
0.0005240576,0.0001735102,1,1
0.0005736496,0.0001582761,1,1
0.0006237278,0.0001621656,1,1
0.0006618132,0.0001939304,1,1
0.0006869333,0.0002462775,1,1
0.0007068674,0.0002963557,1,1
0.0007319876,0.0003161277,1,1
0.0007621317,0.0002948972,1,1
0.0007880622,0.0002409294,1,1
0.0007870898,0.0001761032,1,1
0.0007334462,0.0001148425,1,1
0.0006156246,6.638502e-05,1,1
0.0004417284,3.073064e-05,1,1
0.0002401191,4.151929e-06,1,1
5.131294e-05,-1.837515e-05,1,1
-9.179074e-05,-3.441962e-05,1,1
-0.0001778474,-3.879538e-05,1,1
-0.0002178775,-3.26369e-05,1,1
-0.0002428356,-2.356124e-05,1,1
-0.000281083,-1.837515e-05,1,1
-0.0003423437,-2.226472e-05,1,1
-0.0004154351,-3.441962e-05,1,1
-0.000482206,-5.013995e-05,1,1
-0.0005279084,-7.120844e-05,1,1
-0.0005471942,-9.503204e-05,1,1
-0.0005431426,-0.0001151281,1,1
-0.000519481,-0.0001282554,1,1
-0.0004891749,-0.0001337657,1,1
-0.0004611376,-0.0001350622,1,1
-0.0004428242,-0.0001394379,1,1
-0.0004408794,-0.000151917,1,1
-0.0004564377,-0.0001715269,1,1
-0.0004901472,-0.0001909747,1,1
-0.0005361738,-0.0002018331,1,1
-0.0005841451,-0.0001964849,1,1
-0.000621258,-0.0001786577,1,1
-0.0006356818,-0.0001622891,1,1
-0.000616072,-0.0001606685,1,1
-0.0005455735,-0.0001746061,1,1
-0.0004214316,-0.0001934057,1,1
-0.0002741142,-0.0001958367,1,1
-0.0001564548,-0.0001710407,1,1
-0.0001052422,-0.000122097,1,1
-0.0001199901,-6.44017e-05,1,1
-0.0001613168,-1.173047e-05,1,1
-0.0001789819,2.862379e-05,1,1
-0.0001366828,5.228533e-05,1,1
-2.064406e-05,5.795762e-05,1,1
0.0001498487,4.596478e-05,1,1
0.0003334687,2.068259e-05,1,1
0.0004921307,-9.947754e-06,1,1
0.0006115729,-2.647842e-05,1,1
0.0007021675,-1.529591e-05,1,1
0.0007809313,1.711715e-05,1,1
0.0008530504,5.050261e-05,1,1
0.0009147974,7.076078e-05,1,1
0.0009679549,8.291568e-05,1,1
0.001020302,0.0001015532,1,1
0.001076377,0.0001297526,1,1
0.001130182,0.0001595726,1,1
0.001166323,0.0001864754,1,1
0.001174913,0.000217592,1,1
0.001149955,0.0002608634,1,1
0.00108918,0.0003130485,1,1
0.0009935612,0.0003517821,1,1
0.0008702294,0.0003551855,1,1
0.0007319876,0.0003166139,1,1
0.0005905044,0.0002490327,1,1
0.0004443214,0.0001749688,1,1
0.000289549,0.0001120874,1,1
0.0001271595,7.124698e-05,1,1
-3.587821e-05,5.293359e-05,1,1
-0.0001914609,5.212327e-05,1,1
-0.0003313232,6.476436e-05,1,1
-0.0004454172,9.004655e-05,1,1
-0.0005280706,0.0001192183,1,1
-0.0005844692,0.0001427178,1,1
-0.0006196374,0.0001545486,1,1
-0.0006371404,0.0001472556,1,1
-0.0006423265,0.000118408,1,1
-0.0006413542,7.821578e-05,1,1
-0.0006350336,4.207521e-05,1,1
-0.0006233649,2.246531e-05,1,1
-0.0006071584,2.441009e-05,1,1
-0.0005925725,4.35338e-05,1,1
-0.0005916001,6.670914e-05,1,1
-0.0006113721,7.837785e-05,1,1
-0.0006465403,7.173317e-05,1,1
-0.0006860842,5.293359e-05,1,1
-0.0007236833,3.154097e-05,1,1
-0.0007518827,1.452411e-05,1,1
-0.0007648479,4.47606e-06,1,1
-0.0007562584,2.693341e-06,1,1
-0.0007219006,5.772582e-06,1,1
-0.0006643674,6.90704e-06,1,1
-0.0005843072,1.883015e-06,1,1
-0.0004912817,-1.20546e-05,1,1
-0.0004024699,-3.328516e-05,1,1
-0.000338292,-5.775702e-05,1,1
-0.0003118754,-8.660465e-05,1,1
-0.0003206269,-0.0001165867,1,1
-0.000340561,-0.0001442999,1,1
-0.0003462333,-0.0001673132,1,1
-0.0003246786,-0.0001830335,1,1
-0.0002812451,-0.0001888679,1,1
-0.000231329,-0.0001857886,1,1
-0.0001831956,-0.000179306,1,1
-0.0001355484,-0.0001741199,1,1
-8.806324e-05,-0.0001713648,1,1
-3.976777e-05,-0.0001676373,1,1
4.80019e-06,-0.0001647201,1,1
4.499239e-05,-0.0001656925,1,1
8.080883e-05,-0.0001716889,1,1
0.000113384,-0.0001818991,1,1
0.0001410971,-0.0001925954,1,1
0.0001613553,-0.0002011848,1,1
0.0001749688,-0.0002034537,1,1
0.0001947408,-0.0002000504,1,1
0.0002362295,-0.0001929195,1,1
0.0003023522,-0.0001814128,1,1
0.0003754436,-0.0001611547,1,1
0.000428439,-0.0001289037,1,1
0.0004420525,-8.40116e-05,1,1
0.0004146635,-2.939559e-05,1,1
0.0003568061,2.651694e-05,1,1
0.0002804733,7.546067e-05,1,1
0.0001970097,0.0001119254,1,1
0.0001180839,0.0001344524,1,1
5.925414e-05,0.0001435281,1,1
3.283749e-05,0.0001376938,1,1
4.628891e-05,0.0001214872,1,1
9.766362e-05,0.0001009049,1,1
0.0001688103,8.064677e-05,1,1
0.000237526,5.957827e-05,1,1
0.0002827423,4.061663e-05,1,1
0.000299435,3.13789e-05,1,1
0.0002989488,3.688912e-05,1,1
0.0002960316,5.439218e-05,1,1
0.0002906835,7.57848e-05,1,1
0.0002769079,9.328786e-05,1,1
0.0002542187,0.0001049566,1,1
0.0002240746,0.0001093323,1,1
0.0001911753,0.0001098185,1,1
0.0001589243,0.0001122495,1,1
0.0001328318,0.0001227837,1,1
0.0001171115,0.0001441764,1,1
0.0001122495,0.000170431,1,1
0.0001091703,0.0001895547,1,1
0.0001005808,0.0001973338,1,1
8.259155e-05,0.0001991165,1,1
6.200925e-05,0.0002025199,1,1
5.163707e-05,0.0002070577,1,1
6.362991e-05,0.0002088404,1,1
9.814982e-05,0.0002055991,1,1
0.0001368834,0.0001958752,1,1
0.0001566554,0.0001817755,1,1
0.0001479039,0.0001683241,1,1
0.0001163011,0.0001611932,1,1
7.659513e-05,0.000163138,1,1
4.061663e-05,0.0001790204,1,1
1.419998e-05,0.0002192126,1,1
-2.330684e-06,0.0002835526,1,1
-1.62683e-05,0.0003548613,1,1
-3.668853e-05,0.0004016982,1,1
-6.537409e-05,0.0004039671,1,1
-0.0001008664,0.0003613439,1,1
-0.0001400862,0.0002905214,1,1
-0.0001726613,0.0002099749,1,1
-0.000186761,0.0001325077,1,1
-0.0001804405,6.589881e-05,1,1
-0.000159372,1.387585e-05,1,1
-0.0001235555,-2.501983e-05,1,1
-6.44017e-05,-5.905355e-05,1,1
3.056858e-05,-9.584238e-05,1,1
0.0001654069,-0.0001329553,1,1
0.0003140208,-0.0001639098,1,1
0.0004277907,-0.0001831956,1,1
0.0004676588,-0.0001921092,1,1
0.0004323286,-0.0001958367,1,1
0.0003577785,-0.0002021572,1,1
0.0002879283,-0.0002075054,1,1
0.0002446569,-0.0002112329,1,1
0.0002284504,-0.0002135018,1,1
0.000225047,-0.0002175534,1,1
0.0002172679,-0.0002167431,1,1
0.0001910133,-0.0002071812,1,1
0.0001394765,-0.0001883817,1,1
5.925414e-05,-0.0001686097,1,1
-4.219875e-05,-0.0001577513,1,1
-0.0001558065,-0.0001598582,1,1
-0.0002663351,-0.0001728234,1,1
-0.0003572537,-0.0001903264,1,1
-0.0004097628,-0.0002084778,1,1
-0.0004110594,-0.0002177155,1,1
-0.0003577399,-0.0002162569,1,1
-0.0002658489,-0.0002097743,1,1
-0.0001684476,-0.0001994021,1,1
-9.908367e-05,-0.0001877334,1,1
-6.456377e-05,-0.000174282,1,1
-4.495386e-05,-0.0001624512,1,1
-1.707863e-05,-0.0001580754,1,1
2.278944e-05,-0.0001700683,1,1
6.379197e-05,-0.0001989159,1,1
8.74535e-05,-0.0002365151,1,1
8.226741e-05,-0.0002684419,1,1
4.855783e-05,-0.0002809209,1,1
7.23117e-06,-0.0002666592,1,1
-1.594417e-05,-0.0002269532,1,1
-9.299493e-06,-0.0001679614,1,1
1.938607e-05,-9.29252e-05,1,1
4.709924e-05,-1.221667e-05,1,1
5.455425e-05,6.281957e-05,1,1
3.818565e-05,0.0001273216,1,1
1.290346e-05,0.0001884202,1,1
1.396819e-06,0.0002644289,1,1
1.582063e-05,0.0003644232,1,1
5.406805e-05,0.0004739794,1,1
0.0001009049,0.0005554983,1,1
0.000138342,0.000574622,1,1
0.0001587623,0.0005247059,1,1
0.0001663793,0.0004305459,1,1
0.0001686482,0.0003328204,1,1
0.0001717275,0.0002652392,1,1
0.0001770756,0.0002396328,1,1
0.0001845306,0.0002459534,1,1
0.0001949028,0.0002668598,1,1
0.0002038164,0.0002827423,1,1
0.0002086784,0.0002803113,1,1
0.0002104611,0.0002595669,1,1
0.000210137,0.0002286124,1,1
0.0002055991,0.0001918236,1,1
0.000185503,0.000153252,1,1
0.000138342,0.000113384,1,1
6.687121e-05,7.918817e-05,1,1
-1.62683e-05,5.649903e-05,1,1
-9.438378e-05,4.466826e-05,1,1
-0.0001577513,4.288554e-05,1,1
-0.0002102605,4.709924e-05,1,1
-0.0002605007,5.390598e-05,1,1
-0.0003094444,6.152305e-05,1,1
-0.000348016,6.800567e-05,1,1
-0.0003676259,6.816773e-05,1,1
-0.0003624398,5.763349e-05,1,1
-0.0003361852,3.380988e-05,1,1
-0.0003023136,-8.720959e-07,1,1
-0.0002731418,-3.506788e-05,1,1
-0.0002527216,-5.386745e-05,1,1
-0.0002415391,-4.949169e-05,1,1
-0.0002397564,-2.599222e-05,1,1
-0.0002459149,-6.706447e-06,1,1
-0.0002545043,-6.706447e-06,1,1
-0.000258718,-2.907146e-05,1,1
-0.0002535319,-6.39155e-05,1,1
-0.000238784,-9.892161e-05,1,1
-0.0002220912,-0.0001282554,1,1
-0.0002135018,-0.0001535376,1,1
-0.0002193361,-0.0001760647,1,1
-0.0002370013,-0.0001943781,1,1
-0.0002596904,-0.0002076674,1,1
-0.0002801106,-0.0002146363,1,1
-0.000290969,-0.0002160948,1,1
-0.0002867553,-0.0002120432,1,1
-0.0002679557,-0.0001951884,1,1
-0.0002397564,-0.0001630995,1,1
-0.0002055606,-0.0001240417,1,1
-0.0001747682,-8.806324e-05,1,1
-0.000152079,-6.829127e-05,1,1
-0.0001329553,-7.072225e-05,1,1
-0.0001092938,-9.211487e-05,1,1
-7.850138e-05,-0.0001237176,1,1
-4.05781e-05,-0.0001512687,1,1
9.986281e-06,-0.0001674752,1,1
8.631905e-05,-0.000171851,1,1
0.0002015475,-0.0001712027,1,1
0.0003571303,-0.0001713648,1,1
0.0005357263,-0.0001770371,1,1
0.0007102708,-0.0001862748,1,1
0.0008553194,-0.0001981056,1,1
0.0009520725,-0.0002078295,1,1
0.0009814063,-0.0002102605,1,1
0.0009412141,-0.0002006986,1,1
0.0008467299,-0.0001747682,1,1
0.0007261531,-0.0001314967,1,1
0.0006130316,-7.542214e-05,1,1
0.0005323229,-1.788895e-05,1,1
0.0004892136,2.975825e-05,1,1
0.0004644175,6.152305e-05,1,1
0.0004286011,7.594687e-05,1,1
0.0003571303,8.145709e-05,1,1
0.0002482223,9.053275e-05,1,1
0.0001206769,0.0001145184,1,1
2.04508e-06,0.0001527658,1,1
-8.790117e-05,0.0001890685,1,1
-0.000142031,0.0002015475,1,1
-0.0001642339,0.0001744826,1,1
-0.0001629374,0.0001116012,1,1
-0.0001460826,3.283749e-05,1,1
-0.0001182074,-3.814712e-05,1,1
-8.44978e-05,-8.628052e-05,1,1
-5.613637e-05,-0.0001075111,1,1
-4.138842e-05,-0.000104756,1,1
-4.138842e-05,-8.287715e-05,1,1
-5.889148e-05,-5.240886e-05,1,1
-9.600444e-05,-2.323711e-05,1,1
-0.000147055,2.855407e-06,1,1
-0.0001940539,3.024445e-05,1,1
-0.0002222533,8.226741e-05,1,1
-0.0002285739,0.0001934442,1,1
-0.0002259808,0.0003741471,1,1
-0.0002342462,0.000579646,1,1
-0.0002699005,0.0007340944,1,1
-0.0003297026,0.0007827141,1,1
-0.0003919357,0.0007203188,1,1
-0.0004298589,0.0005872631,1,1
-0.0004284004,0.0004401077,1,1
-0.0003893426,0.0003171001,1,1
-0.0003215994,0.0002341226,1,1
-0.0002382978,0.0001859892,1,1
-0.0001548341,0.0001582761,1,1
-8.02841e-05,0.0001389903,1,1
-1.059602e-05,0.000120839,1,1
5.893001e-05,9.977047e-05,1,1
0.000128456,7.643307e-05,1,1
0.000195227,5.390598e-05,1,1
0.0002581083,3.769945e-05,1,1
0.0003221241,3.18651e-05,1,1
0.000388733,3.688912e-05,1,1
0.0004540453,4.612685e-05,1,1
0.0005128751,4.920609e-05,1,1
0.0005603603,4.207521e-05,1,1
0.000589532,2.554455e-05,1,1
0.000589532,1.883015e-06,1,1
0.0005574431,-2.404744e-05,1,1
0.0004997478,-4.916756e-05,1,1
0.0004324906,-6.618442e-05,1,1
0.0003715541,-7.493595e-05,1,1
0.0003264999,-7.769106e-05,1,1
0.00029198,-7.817725e-05,1,1
0.000259891,-7.898758e-05,1,1
0.0002227781,-7.850138e-05,1,1
0.0001714034,-7.55842e-05,1,1
9.118101e-05,-7.444975e-05,1,1
-2.809907e-05,-8.093236e-05,1,1
-0.0001806025,-9.568031e-05,1,1
-0.0003410472,-0.0001149661,1,1
-0.0004776682,-0.000134738,1,1
-0.0005601594,-0.0001507825,1,1
-0.0005775004,-0.0001622891,1,1
-0.0005363359,-0.0001686097,1,1
-0.0004525481,-0.0001689338,1,1
-0.0003522297,-0.000166827,1,1
-0.0002699005,-0.000166989,1,1
-0.0002386219,-0.0001703924,1,1
-0.000268604,-0.0001734716,1,1
-0.0003517435,-0.0001729855,1,1
-0.0004570859,-0.0001712027,1,1
-0.0005522182,-0.0001677994,1,1
-0.0006142893,-0.000159372,1,1
-0.0006403818,-0.0001475412,1,1
-0.000638599,-0.000137169,1,1
-0.0006217443,-0.0001349001,1,1
-0.0005922483,-0.0001392759,1,1
-0.0005489769,-0.0001417068,1,1
-0.0004914437,-0.000132145,1,1
-0.0004246728,-0.0001060525,1,1
-0.0003561192,-6.699475e-05,1,1
-0.0002971275,-2.583016e-05,1,1
-0.0002579077,4.638125e-06,1,1
-0.0002397564,1.630683e-05,1,1
-0.0002344082,1.144487e-05,1,1
-0.0002360289,-2.654814e-06,1,1
-0.0002391081,-1.643037e-05,1,1
-0.0002368392,-2.210265e-05,1,1
-0.0002207947,-1.805102e-05,1,1
-0.0001861127,-6.544382e-06,1,1
-0.000129714,5.772582e-06,1,1
-4.592625e-05,8.203562e-06,1,1
6.006447e-05,-2.238346e-07,1,1
0.0001660552,-8.651231e-06,1,1
0.0002419018,-4.761664e-06,1,1
0.0002670219,1.695509e-05,1,1
0.0002380122,5.19612e-05,1,1
0.0001735102,9.344993e-05,1,1
0.0001065772,0.0001331559,1,1
6.492643e-05,0.0001650828,1,1
5.666109e-05,0.000190365,1,1
6.654708e-05,0.0002086784,1,1
7.238143e-05,0.0002222919,1,1
6.119892e-05,0.0002302331,1,1
3.55926e-05,0.0002295848,1,1
6.258778e-06,0.0002235884,1,1
-1.62683e-05,0.0002190506,1,1
-2.7937e-05,0.0002167816,1,1
-2.680255e-05,0.0002133783,1,1
-8.813297e-06,0.0002030061,1,1
2.748934e-05,0.0001822617,1,1
8.275361e-05,0.0001513072,1,1
0.0001496866,0.0001174356,1,1
0.000215161,8.486046e-05,1,1
0.0002681563,5.212327e-05,1,1
0.0003091589,1.792748e-05,1,1
0.0003498373,-1.464765e-05,1,1
0.0004034809,-4.236082e-05,1,1
0.0004710622,-6.650855e-05,1,1
0.0005388056,-8.919769e-05,1,1
0.0005840218,-0.0001109144,1,1
0.0005892079,-0.0001209625,1,1
0.0005482053,-9.324933e-05,1,1
0.0004713863,-9.299493e-06,1,1
0.0003762539,0.0001153287,1,1
0.0002790148,0.0002415777,1,1
0.0001937684,0.0003289309,1,1
0.000128456,0.0003691231,1,1
8.875003e-05,0.0003752816,1,1
7.157111e-05,0.0003621543,1,1
6.233338e-05,0.0003305515,1,1
4.77475e-05,0.000272208,1,1
2.829966e-05,0.0001910133,1,1
1.744129e-05,9.879808e-05,1,1
3.154097e-05,1.306552e-05,1,1
7.870197e-05,-4.949169e-05,1,1
0.0001579519,-8.07703e-05,1,1
0.0002553532,-8.222889e-05,1,1
0.0003530786,-5.970181e-05,1,1
0.0004324906,-2.583016e-05,1,1
0.0004793275,6.90704e-06,1,1
0.0004746277,3.105477e-05,1,1
0.0004102877,4.402e-05,1,1
0.0003007315,4.888196e-05,1,1
0.0001803169,4.466826e-05,1,1
8.275361e-05,3.073064e-05,1,1
3.040651e-05,3.665733e-06,1,1
3.202716e-05,-3.296103e-05,1,1
8.275361e-05,-6.278104e-05,1,1
0.0001639484,-6.731888e-05,1,1
0.0002521119,-4.754691e-05,1,1
0.0003255275,-2.258885e-05,1,1
0.0003722023,-1.221667e-05,1,1
0.0003905157,-2.566809e-05,1,1
0.000383871,-5.743289e-05,1,1
0.0003553475,-9.535618e-05,1,1
0.0003051073,-0.0001274451,1,1
0.0002404432,-0.0001488377,1,1
0.0001710792,-0.0001605064,1,1
0.0001093323,-0.0001684476,1,1
6.379197e-05,-0.0001794681,1,1
3.60788e-05,-0.0001977815,1,1
2.165498e-05,-0.0002211189,1,1
1.9224e-05,-0.0002436459,1,1
2.732727e-05,-0.0002577456,1,1
3.737532e-05,-0.0002588801,1,1
4.02925e-05,-0.0002472114,1,1
3.445814e-05,-0.0002301945,1,1
2.424803e-05,-0.0002128535,1,1
1.079661e-05,-0.0002011848,1,1
-1.173047e-05,-0.0001922712,1,1
-4.819517e-05,-0.0001724993,1,1
-9.924574e-05,-0.0001182074,1,1
-0.000159372,-1.934754e-05,1,1
-0.0002217671,0.0001125736,1,1
-0.0002723315,0.0002393087,1,1
-0.000300855,0.0003159656,1,1
-0.0003084721,0.0003208276,1,1
-0.0003071755,0.000262322,1,1
-0.0003100927,0.0001731861,1,1
-0.0003191683,8.972242e-05,1,1
-0.0003241924,3.60788e-05,1,1
-0.0003219235,1.744129e-05,1,1
-0.0003180339,2.181705e-05,1,1
-0.0003128478,3.089271e-05,1,1
-0.0003000446,3.364782e-05,1,1
-0.0002754107,2.554455e-05,1,1
-0.0002412149,9.66215e-06,1,1
-0.0002058847,-4.113403e-06,1,1
-0.0001804405,5.286387e-06,1,1
-0.0001733096,4.758544e-05,1,1
-0.0001804405,0.0001112771,1,1
-0.0001906506,0.0001699448,1,1
-0.0001929195,0.0002023578,1,1
-0.0001901644,0.0002008992,1,1
-0.0001922712,0.0001738343,1,1
-0.0002075054,0.0001363972,1,1
-0.0002384598,0.0001018773,1,1
-0.0002814071,7.805372e-05,1,1
-0.0003293785,6.346784e-05,1,1
-0.0003718396,5.163707e-05,1,1
-0.0004036044,3.575467e-05,1,1
-0.0004256453,1.582063e-05,1,1
-0.0004421759,-4.437533e-06,1,1
-0.0004518998,-1.821308e-05,1,1
-0.0004486585,-3.004385e-05,1,1
-0.0004292107,-4.544006e-05,1,1
-0.0004006872,-6.569822e-05,1,1
-0.0003681121,-8.482193e-05,1,1
-0.0003363473,-9.681477e-05,1,1
-0.0003113892,-0.0001034594,1,1
-0.0002976137,-0.0001065387,1,1
-0.0002956689,-0.0001063766,1,1
-0.0003000446,-0.0001018388,1,1
-0.0002998826,-9.600444e-05,1,1
-0.0002830278,-9.341139e-05,1,1
-0.0002420253,-0.0001002181,1,1
-0.0001796301,-0.0001135075,1,1
-0.000107349,-0.0001245279,1,1
-3.425755e-05,-0.0001162626,1,1
3.445814e-05,-8.968389e-05,1,1
9.21534e-05,-5.856735e-05,1,1
0.000130887,-4.122636e-05,1,1
0.0001513072,-4.398147e-05,1,1
0.0001642725,-6.06742e-05,1,1
0.0001889064,-8.093236e-05,1,1
0.0002386605,-9.892161e-05,1,1
0.0003180725,-0.0001104282,1,1
0.0004156358,-0.0001151281,1,1
0.0005123889,-0.0001177212,1,1
0.0005916389,-0.0001203142,1,1
0.0006516031,-0.0001266348,1,1
0.0006911471,-0.0001361966,1,1
0.0007036261,-0.0001454344,1,1
0.0006806127,-0.0001475412,1,1
0.0006208107,-0.0001384655,1,1
0.0005313505,-0.000117235,1,1
0.0004251977,-9.065628e-05,1,1
0.0003201794,-6.699475e-05,1,1
0.000235095,-5.240886e-05,1,1
0.0001816135,-4.754691e-05,1,1
0.0001641104,-4.965376e-05,1,1
0.0001717275,-4.835724e-05,1,1
0.0001820997,-2.194059e-05,1,1
0.0001654069,4.126489e-05,1,1
9.928428e-05,0.0001297526,1,1
-1.950961e-05,0.0002166196,1,1
-0.000174444,0.0002767458,1,1
-0.00033813,0.0002981384,1,1
-0.0004807475,0.0002835526,1,1
-0.0005690731,0.000249843,1,1
-0.0005846313,0.0002216436,1,1
-0.0005207775,0.0002148369,1,1
-0.0003872358,0.0002328261,1,1
-0.000209126,0.0002645909,1,1
-2.113026e-05,0.0002877662,1,1
0.0001511452,0.000289387,1,1
0.0002882525,0.0002675081,1,1
0.0003773884,0.0002307193,1,1
0.0004208219,0.0001931201,1,1
0.0004318424,0.0001665414,1,1
0.000435894,0.0001584381,1,1
0.0004579349,0.0001654069,1,1
0.0005029891,0.0001764274,1,1
0.0005587396,0.0001817755,1,1
0.0006047662,0.000178048,1,1
0.0006206486,0.0001660552,1,1
0.0005877494,0.0001480659,1,1
0.0005080132,0.0001279698,1,1
0.0004039671,0.000108522,1,1
0.0003114278,8.42122e-05,1,1
0.0002582704,5.017848e-05,1,1
0.0002516257,6.582909e-06,1,1
0.0002799871,-3.668853e-05,1,1
0.0003328204,-5.710876e-05,1,1
0.0004062361,-3.733679e-05,1,1
0.0005023408,2.003433e-05,1,1
0.0006170832,9.474644e-05,1,1
0.0007300428,0.0001602208,1,1
0.0008112376,0.0001999268,1,1
0.0008314957,0.0002158093,1,1
0.0007812555,0.000220023,1,1
0.0006734819,0.0002253711,1,1
0.0005370228,0.000237526,1,1
0.0004055878,0.0002555152,1,1
0.0003023522,0.0002675081,1,1
0.0002295848,0.000259891,1,1
0.0001736723,0.0002235884,1,1
0.0001276457,0.0001639484,1,1
8.372601e-05,9.426025e-05,1,1
3.624086e-05,2.278944e-05,1,1
-1.934754e-05,-4.43056e-05,1,1
-8.611845e-05,-0.0001034594,1,1
-0.0001639098,-0.0001532135,1,1
-0.0002501286,-0.0001922712,1,1
-0.00033813,-0.0002194982,1,1
-0.0004194868,-0.0002342462,1,1
-0.0004878783,-0.0002391081,1,1
-0.0005371462,-0.0002415391,1,1
-0.0005642111,-0.0002483458,1,1
-0.0005752315,-0.0002593663,1,1
-0.0005846313,-0.0002648765,1,1
-0.000608617,-0.0002489941,1,1
-0.0006552918,-0.0002032917,1,1
-0.0007184973,-0.0001355484,1,1
-0.0007826751,-7.023606e-05,1,1
-0.0008306464,-3.798505e-05,1,1
-0.0008523631,-4.884343e-05,1,1
-0.0008491218,-9.033215e-05,1,1
-0.0008317808,-0.000137169,1,1
-0.0008155743,-0.0001679614,1,1
-0.0008063366,-0.0001757406,1,1
-0.0007967748,-0.0001622891,1,1
-0.0007721409,-0.0001405724,1,1
-0.0007209282,-0.0001232314,1,1
-0.0006426507,-0.0001156143,1,1
-0.0005504355,-0.0001149661,1,1
-0.0004580583,-0.0001169109,1,1
-0.0003779981,-0.0001157764,1,1
-0.0003193304,-0.00010978,1,1
-0.0002838381,-9.568031e-05,1,1
-0.0002702246,-7.833932e-05,1,1
-0.0002692523,-6.618442e-05,1,1
-0.0002737901,-6.472583e-05,1,1
-0.0002746004,-7.412562e-05,1,1
-0.0002596904,-8.595638e-05,1,1
-0.0002250084,-9.065628e-05,1,1
-0.0001802784,-8.320128e-05,1,1
-0.0001391138,-6.472583e-05,1,1
-0.0001055663,-4.187462e-05,1,1
-7.671866e-05,-2.210265e-05,1,1
-3.879538e-05,-1.075808e-05,1,1
1.355172e-05,-7.678839e-06,1,1
6.914012e-05,-9.299493e-06,1,1
0.0001137081,-1.25408e-05,1,1
0.0001412592,-1.497178e-05,1,1
0.0001540623,-1.821308e-05,1,1
0.0001660552,-2.712668e-05,1,1
0.0001999268,-5.2733e-05,1,1
0.0002683184,-9.989401e-05,1,1
0.0003634508,-0.0001598582,1,1
0.0004668485,-0.0002083157,1,1
0.0005532294,-0.00021415,1,1
0.0005977973,-0.0001546721,1,1
0.0005872631,-4.05781e-05,1,1
0.0005268127,9.21534e-05,1,1
0.0004355699,0.0002010613,1,1
0.000334117,0.0002631324,1,1
0.0002402811,0.0002812837,1,1
0.0001644345,0.0002859836,1,1
0.0001086841,0.0003148312,1,1
6.589881e-05,0.0003880847,1,1
3.299956e-05,0.0004947237,1,1
9.013889e-06,0.0005977973,1,1
-9.785688e-06,0.0006621373,1,1
-3.101625e-05,0.0006645683,1,1
-5.856735e-05,0.0006063868,1,1
-9.324933e-05,0.0005065545,1,1
-0.0001342519,0.0003910019,1,1
-0.0001784957,0.0002877662,1,1
-0.0002235498,0.0002109473,1,1
-0.0002605007,0.0001684862,1,1
-0.0002809209,0.0001553589,1,1
-0.000268766,0.0001597346,1,1
-0.0002073433,0.0001649207,1,1
-9.438378e-05,0.000155683,1,1
4.693717e-05,0.0001252147,1,1
0.0001782101,7.562274e-05,1,1
0.0002670219,1.744129e-05,1,1
0.0002971661,-3.668853e-05,1,1
0.0002675081,-7.914964e-05,1,1
0.0001882582,-0.000112211,1,1
8.486046e-05,-0.0001357104,1,1
-1.20546e-05,-0.000151917,1,1
-8.239095e-05,-0.0001632615,1,1
-0.0001159385,-0.0001666649,1,1
-0.0001094559,-0.0001596961,1,1
-6.375344e-05,-0.0001405724,1,1
1.095867e-05,-0.0001099421,1,1
9.16672e-05,-7.639453e-05,1,1
0.000155683,-4.997789e-05,1,1
0.000187934,-3.749886e-05,1,1
0.0001890685,-3.928157e-05,1,1
0.0001744826,-5.143648e-05,1,1
0.0001560072,-6.974985e-05,1,1
0.0001360731,-9.098041e-05,1,1
0.0001192183,-0.0001110765,1,1
0.0001080358,-0.0001256624,1,1
0.0001044704,-0.0001360346,1,1
0.0001080358,-0.0001434896,1,1
0.0001128978,-0.0001485136,1,1
0.0001138702,-0.0001525652,1,1
0.0001043083,-0.0001559686,1,1
7.951231e-05,-0.0001611547,1,1
3.899597e-05,-0.0001663408,1,1
-5.085794e-06,-0.0001705545,1,1
-4.090223e-05,-0.0001707166,1,1
-6.002594e-05,-0.0001676373,1,1
-5.986387e-05,-0.0001608306,1,1
-4.608832e-05,-0.0001499722,1,1
-2.356124e-05,-0.0001336036,1,1
6.582909e-06,-0.0001126972,1,1
3.948217e-05,-9.29252e-05,1,1
6.946425e-05,-7.914964e-05,1,1
9.004655e-05,-7.266703e-05,1,1
9.847395e-05,-7.266703e-05,1,1
9.409818e-05,-7.736692e-05,1,1
8.097089e-05,-8.725291e-05,1,1
6.768154e-05,-9.762509e-05,1,1
5.439218e-05,-0.0001079973,1,1
4.337174e-05,-0.0001136696,1,1
4.207521e-05,-0.0001101041,1,1
5.893001e-05,-9.438378e-05,1,1
9.377406e-05,-6.796714e-05,1,1
0.0001368834,-3.26369e-05,1,1
0.0001769136,5.610517e-06,1,1
0.0002047888,4.499239e-05,1,1
0.0002172679,8.858796e-05,1,1
0.0002153231,0.0001367214,1,1
0.0002065715,0.0001835583,1,1
0.0001963614,0.0002235884,1,1
0.0001884202,0.0002550291,1,1
0.0001863134,0.0002803113,1,1
0.0001945787,0.0002942489,1,1
0.0002208333,0.0002887387,1,1
0.0002629703,0.0002644289,1,1
0.0003077003,0.0002278021,1,1
0.0003407616,0.0001851789,1,1
0.0003558337,0.0001472556,1,1
0.0003534027,0.0001252147,1,1
0.0003378445,0.0001245665,1,1
0.000309321,0.0001419075,1,1
0.0002654013,0.0001697827,1,1
0.0002109473,0.0002012234,1,1
0.0001600588,0.0002315296,1,1
0.0001245665,0.0002543808,1,1
0.0001081979,0.0002631324,1,1
0.0001101427,0.0002556773,1,1
0.0001221355,0.0002380122,1,1
0.000130887,0.0002172679,1,1
0.0001218114,0.000200251,1,1
8.161915e-05,0.0001835583,1,1
9.013889e-06,0.0001603829,1,1
-8.158062e-05,0.0001300767,1,1
-0.0001658546,9.652917e-05,1,1
-0.0002126914,6.233338e-05,1,1
-0.0001998883,2.846173e-05,1,1
-0.0001138316,-8.002969e-06,1,1
3.55926e-05,-4.770897e-05,1,1
0.0002158093,-8.498399e-05,1,1
0.000378685,-0.0001164247,1,1
0.0004785172,-0.0001387897,1,1
0.0004843516,-0.0001528894,1,1
0.0004018603,-0.0001603444,1,1
0.0002733424,-0.000164396,1,1
0.0001446626,-0.0001648822,1,1
3.543054e-05,-0.0001598582,1,1
-5.840528e-05,-0.0001439758,1,1
-0.0001524032,-0.0001099421,1,1
-0.0002608248,-5.467778e-05,1,1
-0.0003823738,1.144487e-05,1,1
-0.000489499,6.346784e-05,1,1
-0.0005454115,8.226741e-05,1,1
-0.0005368221,6.281957e-05,1,1
-0.000482044,1.614476e-05,1,1
-0.0004073319,-4.122636e-05,1,1
-0.0003400748,-9.956988e-05,1,1
-0.0002958309,-0.0001535376,1,1
-0.0002713591,-0.0001963229,1,1
-0.0002485079,-0.0002224154,1,1
-0.0002021572,-0.000231491,1,1
-0.0001182074,-0.0002263049,1,1
4.962256e-06,-0.0002125294,1,1
0.0001519555,-0.0001950263,1,1
0.000299435,-0.0001760647,1,1
0.000425846,-0.0001481895,1,1
0.0005120648,-0.0001026491,1,1
0.0005507984,-4.284701e-05,1,1
0.0005459364,1.630683e-05,1,1
0.0005104441,5.682316e-05,1,1
0.0004563143,6.946425e-05,1,1
0.0003908399,6.055066e-05,1,1
0.0003256896,3.915804e-05,1,1
0.0002725321,1.501031e-05,1,1
0.0002355812,-2.978945e-06,1,1
0.0002041406,-9.461558e-06,1,1
0.0001657311,-7.516774e-06,1,1
0.000113384,-2.978945e-06,1,1
4.35338e-05,1.072688e-06,1,1
-4.203669e-05,3.179537e-06,1,1
-0.0001316588,1.558884e-06,1,1
-0.0002133397,-3.14101e-06,1,1
-0.0002788141,-3.789272e-06,1,1
-0.0003284061,1.883015e-06,1,1
-0.0003645466,1.047248e-05,1,1
-0.0003914495,1.857574e-05,1,1
-0.000410087,2.489629e-05,1,1
-0.0004214316,2.846173e-05,1,1
-0.0004282383,3.056858e-05,1,1
-0.0004332623,3.040651e-05,1,1
-0.0004342347,3.040651e-05,1,1
-0.0004243487,3.688912e-05,1,1
-0.0003948528,5.017848e-05,1,1
-0.0003459091,6.573675e-05,1,1
-0.0002877277,8.064677e-05,1,1
-0.0002374874,9.361199e-05,1,1
-0.0002036158,0.0001007429,1,1
-0.0001835197,9.863601e-05,1,1
-0.000174444,8.939829e-05,1,1
-0.0001689338,7.20573e-05,1,1
-0.0001588858,4.661304e-05,1,1
-0.0001452723,2.116879e-05,1,1
-0.000134576,8.365628e-06,1,1
-0.000134738,2.181705e-05,1,1
-0.0001499722,7.059871e-05,1,1
-0.0001844921,0.0001435281,1,1
-0.000231329,0.0002115956,1,1
-0.0002843243,0.0002482223,1,1
-0.000333268,0.0002422259,1,1
-0.0003710293,0.000202682,1,1
-0.0003997148,0.0001459591,1,1
-0.0004235384,9.377406e-05,1,1
-0.0004468758,5.747142e-05,1,1
-0.0004681064,3.299956e-05,1,1
-0.0004835025,1.306552e-05,1,1
-0.000489661,-1.448558e-05,1,1
-0.000484475,-5.986387e-05,1,1
-0.0004716718,-0.0001229073,1,1
-0.0004528722,-0.0001921092,1,1
-0.0004246728,-0.0002473734,1,1
-0.0003846427,-0.0002697385,1,1
-0.0003285682,-0.0002459149,1,1
-0.0002472114,-0.0001804405,1,1
-0.0001361966,-9.794922e-05,1,1
7.485573e-07,-2.988179e-05,1,1
0.0001470936,2.693341e-06,1,1
0.00027707,8.203562e-06,1,1
0.0003675024,2.165498e-05,1,1
0.0004112601,7.238143e-05,1,1
0.0004200116,0.0001524417,1,1
0.0004018603,0.0002205092,1,1
0.0003556717,0.0002303951,1,1
0.0002803113,0.0001684862,1,1
0.0001859892,5.828175e-05,1,1
9.21534e-05,-6.148453e-05,1,1
2.619281e-05,-0.0001606685,1,1
1.883015e-06,-0.000231491,1,1
1.517237e-05,-0.0002801106,1,1
5.374392e-05,-0.0003156029,1,1
0.0001000946,-0.0003363473,1,1
0.000128294,-0.0003285682,1,1
0.0001161391,-0.0002789762,1,1
6.217132e-05,-0.0001856265,1,1
-1.902341e-05,-6.602235e-05,1,1
-0.0001057284,5.487838e-05,1,1
-0.0001713648,0.0001616794,1,1
-0.000196647,0.000250005,1,1
-0.0001778474,0.0003213138,1,1
-0.0001308485,0.0003730126,1,1
-7.55842e-05,0.0004055878,1,1
-1.918548e-05,0.0004138531,1,1
4.385793e-05,0.0003955397,1,1
0.0001195424,0.0003483787,1,1
0.0002060853,0.0002756114,1,1
0.0002991108,0.0001874478,1,1
0.0003922984,0.0001012291,1,1
0.0004743035,3.121684e-05,1,1
0.000534754,-1.578211e-05,1,1
0.0005689497,-3.992984e-05,1,1
0.0005849942,-4.657452e-05,1,1
0.0006063868,-4.05781e-05,1,1
0.0006516031,-2.923353e-05,1,1
0.0007209671,-1.902341e-05,1,1
0.0007958413,-1.367526e-05,1,1
0.0008577504,-1.092015e-05,1,1
0.000899077,-8.165035e-06,1,1
0.0009190111,-1.682422e-06,1,1
0.0009133389,9.013889e-06,1,1
0.0008762258,2.116879e-05,1,1
0.0008066997,2.651694e-05,1,1
0.0007081639,2.651694e-05,1,1
0.0005830494,2.214118e-05,1,1
0.0004367043,1.64689e-05,1,1
0.000282256,1.663096e-05,1,1
0.000128456,2.295151e-05,1,1
-1.464765e-05,3.380988e-05,1,1
-0.0001332795,4.547859e-05,1,1
-0.0002212809,5.56887e-05,1,1
-0.0002846485,6.589881e-05,1,1
-0.000335537,7.465034e-05,1,1
-0.0003849669,7.837785e-05,1,1
-0.0004387725,7.513654e-05,1,1
-0.0004935506,6.670914e-05,1,1
-0.0005352014,5.649903e-05,1,1
-0.0005447632,4.936815e-05,1,1
-0.0005123502,4.677511e-05,1,1
-0.0004420138,5.131294e-05,1,1
-0.0003535262,6.022653e-05,1,1
-0.0002713591,6.995045e-05,1,1
-0.0002152845,7.935024e-05,1,1
-0.0001900023,8.696731e-05,1,1
-0.000184168,9.16672e-05,1,1
-0.0001801163,8.907416e-05,1,1
-0.0001650443,7.756752e-05,1,1
-0.0001355484,5.811968e-05,1,1
-9.632857e-05,3.380988e-05,1,1
-5.32192e-05,6.420843e-06,1,1
-5.409925e-06,-1.707863e-05,1,1
4.871989e-05,-3.150244e-05,1,1
0.0001051186,-3.604027e-05,1,1
0.0001626518,-3.944364e-05,1,1
0.0002213195,-4.576419e-05,1,1
0.0002744769,-5.386745e-05,1,1
0.0003052694,-5.872941e-05,1,1
0.0002976523,-6.148453e-05,1,1
0.0002508154,-6.44017e-05,1,1
0.0001874478,-7.23429e-05,1,1
0.0001438522,-8.482193e-05,1,1
0.0001508211,-0.0001024871,1,1
0.0002125679,-0.0001232314,1,1
0.0003062417,-0.0001462447,1,1
0.0003921364,-0.000166827,1,1
0.0004423766,-0.0001802784,1,1
0.0004535592,-0.0001854645,1,1
0.0004396215,-0.0001836818,1,1
0.0004120704,-0.0001775233,1,1
0.0003822504,-0.0001720131,1,1
0.0003613439,-0.0001650443,1,1
0.0003495132,-0.000144462,1,1
0.0003354135,-9.730096e-05,1,1
0.0003081865,-2.339918e-05,1,1
0.0002718839,5.633696e-05,1,1
0.0002360674,0.0001174356,1,1
0.0002017096,0.0001396385,1,1
0.0001573037,0.0001271595,1,1
0.0001007429,9.474644e-05,1,1
4.02925e-05,5.423012e-05,1,1
-1.562004e-05,1.582063e-05,1,1
-5.921561e-05,-1.335113e-05,1,1
-8.676672e-05,-3.069211e-05,1,1
-9.778715e-05,-3.474375e-05,1,1
-9.859748e-05,-2.84232e-05,1,1
-9.989401e-05,-1.351319e-05,1,1
-0.0001216107,4.313994e-06,1,1
-0.0001833576,1.906194e-05,1,1
-0.0002864312,2.473423e-05,1,1
-0.0004113835,2.133085e-05,1,1
-0.0005290429,1.322759e-05,1,1
-0.0006100755,7.069105e-06,1,1
-0.0006355198,9.175954e-06,1,1
-0.0006126686,2.149292e-05,1,1
-0.0005695592,4.175109e-05,1,1
-0.0005373082,6.525056e-05,1,1
-0.0005308256,8.615699e-05,1,1
-0.0005455735,0.0001047945,1,1
-0.000568911,0.0001197045,1,1
-0.0005844692,0.0001316974,1,1
-0.000576528,0.0001412592,1,1
-0.0005450874,0.0001514693,1,1
-0.0005023021,0.0001608691,1,1
-0.0004625961,0.0001731861,1,1
-0.0004322899,0.000185341,1,1
-0.0004091146,0.000192958,1,1
-0.0003888564,0.0001923098,1,1
-0.0003737844,0.0001825859,1,1
-0.0003687603,0.0001702689,1,1
-0.0003698948,0.0001568175,1,1
-0.0003651949,0.0001433661,1,1
-0.0003476919,0.0001295905,1,1
-0.0003162512,0.0001156529,1,1
-0.0002726556,0.0001033359,1,1
-0.0002177155,9.280167e-05,1,1
-0.0001562927,8.550872e-05,1,1
-9.405965e-05,8.453633e-05,1,1
-4.657452e-05,8.648112e-05,1,1
-2.356124e-05,8.729144e-05,1,1
-2.647842e-05,8.437427e-05,1,1
-5.127441e-05,7.886404e-05,1,1
-9.308726e-05,7.448828e-05,1,1
-0.0001430034,7.043665e-05,1,1
-0.0001934057,6.346784e-05,1,1
-0.0002397564,4.709924e-05,1,1
-0.0002695764,2.100672e-05,1,1
-0.0002703867,-1.3027e-05,1,1
-0.0002428356,-4.965376e-05,1,1
-0.0002005366,-8.417367e-05,1,1
-0.0001583996,-0.0001114006,1,1
-0.0001279313,-0.0001319829,1,1
-0.0001112386,-0.000147055,1,1
-0.0001008664,-0.0001640719,1,1
-8.919769e-05,-0.0001882196,1,1
-7.056019e-05,-0.0002154466,1,1
-3.733679e-05,-0.000228898,1,1
2.035846e-05,-0.0002110708,1,1
0.0001064152,-0.0001530514,1,1
0.0002111094,-6.407757e-05,1,1
0.0003148312,2.992031e-05,1,1
0.0004031568,9.993253e-05,1,1
0.0004718725,0.0001268354,1,1
0.0005264886,0.0001065772,1,1
0.0005841838,5.082674e-05,1,1
0.0006645683,-2.388537e-05,1,1
0.0007780141,-9.422172e-05,1,1
0.0009143112,-0.0001468929,1,1
0.001047853,-0.0001786577,1,1
0.001154006,-0.0001914609,1,1
0.001216887,-0.0001830335,1,1
0.001230501,-0.0001504584,1,1
0.001195333,-9.308726e-05,1,1
0.001107655,-1.837515e-05,1,1
0.0009645515,5.325772e-05,1,1
0.0007738004,9.863601e-05,1,1
0.0005569569,0.0001031738,1,1
0.0003376824,7.108491e-05,1,1
0.0001376938,1.59827e-05,1,1
-2.923353e-05,-4.43056e-05,1,1
-0.0001601823,-9.341139e-05,1,1
-0.0002601766,-0.0001233935,1,1
-0.0003313232,-0.0001336036,1,1
-0.0003747568,-0.0001238797,1,1
-0.0003930701,-9.503204e-05,1,1
-0.0003909633,-5.402952e-05,1,1
-0.0003720016,-7.030578e-06,1,1
-0.0003339163,3.899597e-05,1,1
-0.0002749245,7.789165e-05,1,1
-0.0001927574,0.0001047945,1,1
-8.239095e-05,0.0001156529,1,1
5.406805e-05,0.0001127357,1,1
0.0002036544,0.0001018773,1,1
0.0003436788,8.907416e-05,1,1
0.0004514523,8.113296e-05,1,1
0.0005120648,7.805372e-05,1,1
0.0005282713,7.886404e-05,1,1
0.0005170888,8.04847e-05,1,1
0.0004924549,7.740546e-05,1,1
0.0004519385,7.157111e-05,1,1
0.0003851676,6.865393e-05,1,1
0.0002890628,6.622294e-05,1,1
0.0001777239,5.585077e-05,1,1
6.881599e-05,3.202716e-05,1,1
-2.501983e-05,2.693341e-06,1,1
-0.0001037836,-2.177852e-05,1,1
-0.0001737958,-3.814712e-05,1,1
-0.0002397564,-4.527799e-05,1,1
-0.0002971275,-4.284701e-05,1,1
-0.0003467195,-2.923353e-05,1,1
-0.0003920977,-6.544382e-06,1,1
-0.0004256453,1.906194e-05,1,1
-0.0004253211,4.191315e-05,1,1
-0.0003758912,6.03886e-05,1,1
-0.000286107,8.275361e-05,1,1
-0.0001862748,0.000115977,1,1
-0.000107349,0.0001563313,1,1
-6.569822e-05,0.0001934442,1,1
-5.986387e-05,0.0002140265,1,1
-7.817725e-05,0.0002198609,1,1
-0.0001139937,0.0002128921,1,1
-0.000161965,0.0001973338,1,1
-0.0002099363,0.0001773998,1,1
-0.0002433218,0.0001589243,1,1
-0.0002475355,0.0001398006,1,1
-0.0002207947,0.0001197045,1,1
-0.0001763888,9.993253e-05,1,1
-0.0001402483,8.04847e-05,1,1
-0.0001308485,5.633696e-05,1,1
-0.0001605064,2.651694e-05,1,1
-0.0002285739,-8.327101e-06,1,1
-0.0003149546,-4.544006e-05,1,1
-0.0003856151,-8.206682e-05,1,1
-0.0004188385,-0.0001130213,1,1
-0.0004227281,-0.0001361966,1,1
-0.0004295348,-0.0001530514,1,1
-0.0004642168,-0.000166989,1,1
-0.0005253154,-0.0001818991,1,1
-0.0005872243,-0.000201509,1,1
-0.0006197995,-0.0002276015,1,1
-0.0006039171,-0.0002514251,1,1
-0.0005306636,-0.0002569353,1,1
-0.0004011734,-0.0002290601,1,1
-0.0002353806,-0.0001609926,1,1
-6.504996e-05,-6.991193e-05,1,1
8.372601e-05,7.393236e-06,1,1
0.0001908512,4.02925e-05,1,1
0.0002461155,2.003433e-05,1,1
0.0002605393,-3.182657e-05,1,1
0.0002585945,-8.012204e-05,1,1
0.000267184,-9.584238e-05,1,1
0.0002999212,-7.931171e-05,1,1
0.0003488649,-5.613637e-05,1,1
0.0003856538,-5.32192e-05,1,1
0.0003906778,-8.060823e-05,1,1
0.0003632887,-0.0001204763,1,1
0.0003229345,-0.0001326312,1,1
0.0002989488,-8.109443e-05,1,1
0.0003072141,2.327564e-05,1,1
0.0003451374,0.0001368834,1,1
0.0003893813,0.0002133783,1,1
0.000408505,0.0002303951,1,1
0.0003840331,0.000192958,1,1
0.0003209897,0.0001205148,1,1
0.0002396328,4.02925e-05,1,1
0.0001637863,-1.497178e-05,1,1
0.0001083599,-1.497178e-05,1,1
7.983644e-05,5.649903e-05,1,1
8.032264e-05,0.0001790204,1,1
0.0001025256,0.0003057555,1,1
0.0001305629,0.0003893813,1,1
0.0001469315,0.0004041292,1,1
0.0001449867,0.0003512959,1,1
0.0001305629,0.0002589186,1,1
0.0001216493,0.0001626518,1,1
0.0001260251,9.118101e-05,1,1
0.0001396385,5.487838e-05,1,1
0.0001433661,4.288554e-05,1,1
0.0001201907,4.077869e-05,1,1
6.136099e-05,3.883391e-05,1,1
-2.809907e-05,3.915804e-05,1,1
-0.0001300382,5.455425e-05,1,1
-0.0002191741,0.0001026876,1,1
-0.0002733039,0.0001880961,1,1
-0.0002891863,0.0002890628,1,1
-0.0002729798,0.0003684748,1,1
-0.0002340841,0.0003955397,1,1
-0.0001827094,0.0003632887,1,1
-0.0001300382,0.0002887387,1,1
-8.206682e-05,0.0001983062,1,1
-3.814712e-05,0.0001169494,1,1
-2.168618e-06,6.006447e-05,1,1
2.116879e-05,3.154097e-05,1,1
2.489629e-05,2.716521e-05,1,1
9.175954e-06,3.510641e-05,1,1
-1.610624e-05,4.385793e-05,1,1
-3.992984e-05,4.385793e-05,1,1
-5.030202e-05,3.089271e-05,1,1
-4.527799e-05,1.160693e-05,1,1
-3.490581e-05,-4.923729e-06,1,1
-3.328516e-05,-1.20546e-05,1,1
-4.80331e-05,-1.043395e-05,1,1
-7.590833e-05,-5.085794e-06,1,1
-0.0001152902,-4.437533e-06,1,1
-0.0001656925,-1.545797e-05,1,1
-0.0002217671,-3.360929e-05,1,1
-0.0002733039,-5.192267e-05,1,1
-0.0003045825,-6.48879e-05,1,1
-0.000298424,-7.33153e-05,1,1
-0.0002473734,-7.817725e-05,1,1
-0.0001634236,-8.368748e-05,1,1
-7.072225e-05,-9.503204e-05,1,1
1.144487e-05,-0.000112211,1,1
7.011252e-05,-0.0001339277,1,1
0.0001015532,-0.0001566169,1,1
0.0001090082,-0.0001765509,1,1
0.0001012291,-0.0001909747,1,1
8.84259e-05,-0.0001982676,1,1
7.999851e-05,-0.0001974573,1,1
8.388807e-05,-0.0001914609,1,1
0.0001073875,-0.00018433,1,1
0.0001522796,-0.0001849783,1,1
0.000210137,-0.0001982676,1,1
0.0002686426,-0.0002232257,1,1
0.0003136967,-0.0002498044,1,1
0.000341734,-0.0002671454,1,1
0.0003581026,-0.0002695764,1,1
0.0003734989,-0.0002585559,1,1
0.0003916502,-0.0002371633,1,1
0.0003974845,-0.0002117191,1,1
0.0003730126,-0.000189192,1,1
0.0003253654,-0.0001677994,1,1
0.0002858215,-0.0001454344,1,1
0.0002765838,-0.0001263107,1,1
0.0002863077,-0.0001133454,1,1
0.0002809595,-0.0001037836,1,1
0.0002430362,-9.130454e-05,1,1
0.0001741585,-7.088431e-05,1,1
8.79397e-05,-4.268495e-05,1,1
1.720949e-06,-1.318906e-05,1,1
-6.81292e-05,1.12828e-05,1,1
-0.0001088076,2.992031e-05,1,1
-0.0001092938,4.483033e-05,1,1
-7.120844e-05,5.94162e-05,1,1
-8.327101e-06,7.497447e-05,1,1
6.200925e-05,8.356394e-05,1,1
0.0001237561,8.080883e-05,1,1
0.000168,6.638502e-05,1,1
0.0001932822,4.580272e-05,1,1
0.0001986303,2.76514e-05,1,1
0.0001845306,1.614476e-05,1,1
0.000150659,1.355172e-05,1,1
9.474644e-05,1.825161e-05,1,1
1.873781e-05,2.522042e-05,1,1
-6.44017e-05,2.732727e-05,1,1
-0.0001366828,2.34377e-05,1,1
-0.0001859507,1.744129e-05,1,1
-0.0002102605,1.582063e-05,1,1
-0.0002126914,2.100672e-05,1,1
-0.0002006986,3.251336e-05,1,1
-0.0001861127,4.628891e-05,1,1
-0.0001775233,5.876794e-05,1,1
-0.0001789819,6.962632e-05,1,1
-0.0001859507,8.161915e-05,1,1
-0.0001890299,9.68533e-05,1,1
-0.0001796301,0.000113546,1,1
-0.0001626133,0.0001292664,1,1
-0.0001426792,0.0001428799,1,1
-0.0001269589,0.0001560072,1,1
-0.0001279313,0.000168162,1,1
-0.0001621271,0.0001775618,1,1
-0.0002370013,0.0001830721,1,1
-0.0003403989,0.0001846927,1,1
-0.0004405553,0.0001880961,1,1
-0.0005091089,0.0001950649,1,1
-0.0005329325,0.0001999268,1,1
-0.0005175362,0.0001979821,1,1
-0.000479613,0.0001887444,1,1
-0.0004343968,0.0001767515,1,1
-0.0003890185,0.0001673517,1,1
-0.0003408851,0.0001597346,1,1
-0.0002852967,0.0001540623,1,1
-0.0002201465,0.0001495245,1,1
-0.0001486757,0.0001453108,1,1
-7.752899e-05,0.0001368834,1,1
-4.761664e-06,0.0001143563,1,1
7.432621e-05,6.995045e-05,1,1
0.0001560072,7.555301e-06,1,1
0.0002248849,-5.953974e-05,1,1
0.0002658874,-0.0001212866,1,1
0.0002783665,-0.000174282,1,1
0.0002780424,-0.0002170672,1,1
0.0002869559,-0.0002489941,1,1
0.0003154794,-0.0002705488,1,1
0.0003624784,-0.0002851347,1,1
0.0004148255,-0.0002903207,1,1
0.0004579349,-0.0002663351,1,1
0.0004866205,-0.0001888679,1,1
0.0005185474,-5.338126e-05,1,1
0.0005783495,0.000108522,1,1
0.0006799645,0.0002422259,1,1
0.0008165857,0.0003102934,1,1
0.0009640653,0.0003091589,1,1
0.00109469,0.0002600531,1,1
0.001187554,0.0001914995,1,1
0.001220129,0.0001268354,1,1
0.001172644,7.967438e-05,1,1
0.001043477,5.212327e-05,1,1
0.0008465679,3.786152e-05,1,1
0.0006008766,2.570662e-05,1,1
0.0003294171,9.175954e-06,1,1
6.168512e-05,-1.67545e-05,1,1
-0.0001830335,-4.932962e-05,1,1
-0.0003891806,-8.368748e-05,1,1
-0.0005446012,-0.000112373,1,1
-0.0006390853,-0.0001238797,1,1
-0.0006740913,-9.989401e-05,1,1
-0.0006572366,-3.101625e-05,1,1
-0.0006069963,5.974033e-05,1,1
-0.0005497872,0.0001292664,1,1
-0.0005178604,0.000145635,1,1
-0.0005330946,0.000108522,1,1
-0.0005964621,3.818565e-05,1,1
-0.0006909461,-3.814712e-05,1,1
-0.0007836475,-9.859748e-05,1,1
-0.0008411807,-0.0001352242,1,1
-0.0008442599,-0.0001493239,1,1
-0.0007932093,-0.0001417068,1,1
-0.0007052079,-0.0001105903,1,1
-0.0006045654,-5.402952e-05,1,1
-0.0005052193,1.987227e-05,1,1
-0.0004115456,9.280167e-05,1,1
-0.000325813,0.0001446626,1,1
-0.0002421874,0.0001688103,1,1
-0.000151917,0.0001658931,1,1
-5.532604e-05,0.0001487142,1,1
3.818565e-05,0.0001291043,1,1
0.0001130598,0.0001174356,1,1
0.0001608691,0.0001145184,1,1
0.00018291,0.0001150046,1,1
0.0001911753,0.0001177597,1,1
0.0001949028,0.0001239182,1,1
0.0001987924,0.0001354248,1,1
0.0002122438,0.0001479039,1,1
0.000250005,0.0001563313,1,1
0.0003141829,0.0001566554,1,1
0.0003854917,0.0001477418,1,1
0.000440756,0.000130887,1,1
0.0004733311,0.0001098185,1,1
0.0004892136,9.118101e-05,1,1
0.0004974789,8.064677e-05,1,1
0.000505258,7.821578e-05,1,1
0.000507527,7.886404e-05,1,1
0.0004945617,7.999851e-05,1,1
0.0004543695,8.032264e-05,1,1
0.0003751195,8.307774e-05,1,1
0.0002558394,8.858796e-05,1,1
0.000108522,9.458438e-05,1,1
-4.770897e-05,9.604298e-05,1,1
-0.0001959987,8.84259e-05,1,1
-0.0003250027,7.254349e-05,1,1
-0.0004254832,5.730935e-05,1,1
-0.0004932265,4.434413e-05,1,1
-0.0005301774,2.894792e-05,1,1
-0.0005471942,7.069105e-06,1,1
-0.0005562698,-1.902341e-05,1,1
-0.0005650214,-4.317115e-05,1,1
-0.000573935,-6.569822e-05,1,1
-0.0005792832,-8.984595e-05,1,1
-0.0005805797,-0.0001157764,1,1
-0.0005742591,-0.0001412206,1,1
-0.0005609698,-0.0001634236,1,1
-0.0005428185,-0.0001840059,1,1
-0.0005191569,-0.0002006986,1,1
-0.0004835025,-0.0002125294,1,1
-0.0004337485,-0.0002194982,1,1
-0.000380267,-0.0002233878,1,1
-0.000343154,-0.0002253326,1,1
-0.0003326198,-0.0002219292,1,1
-0.0003426678,-0.0002133397,1,1
-0.0003608192,-0.0002057227,1,1
-0.0003760533,-0.0002011848,1,1
-0.0003797808,-0.0001969711,1,1
-0.0003745947,-0.0001890299,1,1
-0.0003643846,-0.0001723372,1,1
-0.0003444506,-0.0001423551,1,1
-0.0003029619,-9.422172e-05,1,1
-0.0002271153,-2.291298e-05,1,1
-0.0001143178,7.691926e-05,1,1
3.235129e-05,0.000192958,1,1
0.0001973338,0.0002890628,1,1
0.0003592371,0.0003274723,1,1
0.0005128751,0.0002948972,1,1
0.0006616511,0.0002055991,1,1
0.0007981102,9.069481e-05,1,1
0.000903939,-2.015787e-05,1,1
0.0009553138,-0.0001060525,1,1
0.0009451036,-0.0001637477,1,1
0.0008857877,-0.0002002124,1,1
0.0008081583,-0.000223874,1,1
0.0007399287,-0.0002308428,1,1
0.0006848265,-0.0002026434,1,1
0.0006324793,-0.0001232314,1,1
0.0005775391,4.80019e-06,1,1
0.0005281092,0.0001543865,1,1
0.0004914824,0.0002835526,1,1
0.000467983,0.0003569682,1,1
0.0004545315,0.0003582647,1,1
0.0004378388,0.0003013798,1,1
0.0004044533,0.0002164575,1,1
0.0003438409,0.0001341283,1,1
0.0002579462,7.562274e-05,1,1
0.0001618415,4.45062e-05,1,1
7.221937e-05,3.543054e-05,1,1
-8.720959e-07,3.948217e-05,1,1
-5.370539e-05,4.77475e-05,1,1
-9.146661e-05,5.309566e-05,1,1
-0.0001238797,5.277153e-05,1,1
-0.0001566169,4.693717e-05,1,1
-0.0001877334,3.98063e-05,1,1
-0.0002083157,4.110282e-05,1,1
-0.0002105846,5.763349e-05,1,1
-0.0001934057,8.696731e-05,1,1
-0.0001541859,0.0001188942,1,1
-9.454585e-05,0.0001430419,1,1
-2.518189e-05,0.0001545486,1,1
3.688912e-05,0.0001539003,1,1
8.242948e-05,0.0001462832,1,1
0.0001132219,0.0001365593,1,1
0.0001328318,0.0001253768,1,1
0.0001440143,0.000111115,1,1
0.0001485521,9.182927e-05,1,1
0.0001521176,7.221937e-05,1,1
0.0001642725,6.055066e-05,1,1
0.0001887444,6.184718e-05,1,1
0.0002198609,7.043665e-05,1,1
0.0002490327,7.562274e-05,1,1
0.0002668598,7.108491e-05,1,1
0.0002639427,5.925414e-05,1,1
0.000239957,4.320967e-05,1,1
0.0002033302,2.424803e-05,1,1
0.0001642725,2.693341e-06,1,1
0.0001299146,-1.853722e-05,1,1
0.0001028497,-3.960571e-05,1,1
8.064677e-05,-6.099833e-05,1,1
6.427817e-05,-8.838737e-05,1,1
5.844381e-05,-0.0001229073,1,1
6.541262e-05,-0.0001583996,1,1
7.610894e-05,-0.0001796301,1,1
6.525056e-05,-0.0001736337,1,1
1.403791e-05,-0.0001430034,1,1
-8.190475e-05,-0.0001013526,1,1
-0.0002063709,-6.359137e-05,1,1
-0.0003335922,-3.976777e-05,1,1
-0.0004405553,-3.441962e-05,1,1
-0.00051705,-4.657452e-05,1,1
-0.0005648594,-7.18567e-05,1,1
-0.0005950035,-0.0001018388,1,1
-0.0006097514,-0.0001267968,1,1
-0.0005979206,-0.0001441378,1,1
-0.0005415219,-0.00015451,1,1
-0.0004343968,-0.0001596961,1,1
-0.0003013411,-0.0001580754,1,1
-0.0001906506,-0.0001499722,1,1
-0.0001358725,-0.0001387897,1,1
-0.0001350622,-0.000132145,1,1
-0.0001583996,-0.0001313347,1,1
-0.0001802784,-0.0001300382,1,1
-0.0001943781,-0.0001240417,1,1
-0.0002097743,-0.0001143178,1,1
-0.0002300324,-0.0001031353,1,1
-0.0002480217,-9.179074e-05,1,1
-0.0002540181,-8.158062e-05,1,1
-0.0002451045,-7.461182e-05,1,1
-0.000223874,-7.720486e-05,1,1
-0.0002002124,-9.616651e-05,1,1
-0.0001757406,-0.0001314967,1,1
-0.0001488377,-0.0001734716,1,1
-0.0001139937,-0.0002073433,1,1
-7.169464e-05,-0.0002253326,1,1
-2.453363e-05,-0.0002282497,1,1
1.825161e-05,-0.0002277635,1,1
4.596478e-05,-0.0002329496,1,1
5.277153e-05,-0.0002473734,1,1
4.045456e-05,-0.0002629317,1,1
1.889987e-05,-0.0002630937,1,1
5.86492e-07,-0.0002232257,1,1
-2.978945e-06,-0.0001331174,1,1
1.614476e-05,-1.383732e-05,1,1
5.779555e-05,9.31258e-05,1,1
0.0001203528,0.0001527658,1,1
0.0002111094,0.0001563313,1,1
0.0003431926,0.0001201907,1,1
0.0005230852,7.935024e-05,1,1
0.000737984,7.30297e-05,1,1
0.0009653618,0.0001214872,1,1
0.001180261,0.000225209,1,1
0.001360478,0.0003603715,1,1
0.001488185,0.0004875929,1,1
0.001550743,0.0005640878,1,1
0.00153794,0.0005708945,1,1
0.001449938,0.000520168,1,1
0.001295813,0.0004477248,1,1
0.001097121,0.0003908399,1,1
0.0008853014,0.0003628026,1,1
0.0006932539,0.0003568061,1,1
0.0005391297,0.0003563199,1,1
0.0004227667,0.0003501615,1,1
0.0003355756,0.000329255,1,1
0.0002624841,0.0002971661,1,1
0.0001893926,0.0002613496,1,1
0.0001054428,0.0002307193,1,1
7.717366e-06,0.0002112714,1,1
-9.940781e-05,0.0002036544,1,1
-0.0002075054,0.000200413,1,1
-0.0003120375,0.0001939304,1,1
-0.00041268,0.0001770756,1,1
-0.0005074882,0.0001517934,1,1
-0.0005948414,0.0001253768,1,1
-0.0006710121,0.0001043083,1,1
-0.0007251419,8.615699e-05,1,1
-0.0007455621,6.83298e-05,1,1
-0.0007227109,5.325772e-05,1,1
-0.0006538332,4.531652e-05,1,1
-0.000544115,4.564065e-05,1,1
-0.0004207833,4.904402e-05,1,1
-0.0003220855,4.564065e-05,1,1
-0.0002789762,3.154097e-05,1,1
-0.0003000446,7.23117e-06,1,1
-0.0003736223,-1.837515e-05,1,1
-0.0004763717,-3.847125e-05,1,1
-0.000586252,-5.143648e-05,1,1
-0.0006912703,-6.083626e-05,1,1
-0.0007870508,-6.699475e-05,1,1
-0.0008721352,-6.537409e-05,1,1
-0.0009403646,-5.532604e-05,1,1
-0.0009790981,-3.928157e-05,1,1
-0.0009821774,-2.583016e-05,1,1
-0.0009494403,-1.934754e-05,1,1
-0.00088429,-2.161646e-05,1,1
-0.000789968,-3.539201e-05,1,1
-0.0006752257,-5.354332e-05,1,1
-0.0005535148,-6.731888e-05,1,1
-0.0004321279,-7.493595e-05,1,1
-0.0003170615,-7.866345e-05,1,1
-0.0002175534,-7.898758e-05,1,1
-0.0001434896,-7.914964e-05,1,1
-0.0001026491,-8.222889e-05,1,1
-8.887356e-05,-9.081835e-05,1,1
-9.049421e-05,-0.0001086455,1,1
-0.0001007043,-0.000134738,1,1
-0.0001107524,-0.0001616409,1,1
-0.0001096179,-0.0001806025,1,1
-9.081835e-05,-0.00018433,1,1
-5.64605e-05,-0.0001736337,1,1
-1.659243e-05,-0.0001553203,1,1
1.614476e-05,-0.0001402483,1,1
2.586868e-05,-0.000137169,1,1
7.555301e-06,-0.0001467309,1,1
-2.923353e-05,-0.0001634236,1,1
-6.504996e-05,-0.0001773612,1,1
-8.563225e-05,-0.0001757406,1,1
-8.628052e-05,-0.0001561307,1,1
-7.380149e-05,-0.0001282554,1,1
-5.629844e-05,-0.0001054042,1,1
-4.009191e-05,-9.697683e-05,1,1
-2.874733e-05,-9.114248e-05,1,1
-2.031993e-05,-6.39155e-05,1,1
-1.335113e-05,-2.492749e-06,1,1
-7.516774e-06,7.562274e-05,1,1
-1.358292e-06,0.0001378558,1,1
6.90704e-06,0.0001649207,1,1
2.068259e-05,0.0001563313,1,1
3.948217e-05,0.0001273216,1,1
5.325772e-05,9.571884e-05,1,1
5.1475e-05,7.562274e-05,1,1
3.299956e-05,7.140904e-05,1,1
6.744974e-06,7.594687e-05,1,1
-1.432352e-05,8.46984e-05,1,1
-2.404744e-05,9.458438e-05,1,1
-1.821308e-05,0.0001043083,1,1
2.207145e-06,0.0001094944,1,1
3.316162e-05,0.000110953,1,1
8.064677e-05,0.0001119254,1,1
0.0001645966,0.0001148425,1,1
0.0003026763,0.0001198666,1,1
0.0004849998,0.0001242423,1,1
0.0006788301,0.0001279698,1,1
0.0008478644,0.0001329939,1,1
0.0009632549,0.0001373696,1,1
0.001008957,0.0001386662,1,1
0.0009921027,0.0001373696,1,1
0.0009400796,0.0001341283,1,1
0.0008794671,0.000128456,1,1
0.0008151271,0.0001201907,1,1
0.0007397667,0.0001081979,1,1
0.0006571133,9.361199e-05,1,1
0.0005738117,7.837785e-05,1,1
0.0004956961,6.41161e-05,1,1
0.0004227667,5.066468e-05,1,1
0.0003542131,3.915804e-05,1,1
0.0002978143,2.700314e-05,1,1
0.0002650771,6.420843e-06,1,1
0.000259729,-2.664048e-05,1,1
0.0002712356,-6.829127e-05,1,1
0.0002824181,-0.0001114006,1,1
0.0002851732,-0.0001460826,1,1
0.0002773941,-0.0001660166,1,1
0.0002590807,-0.0001802784,1,1
0.0002308813,-0.0002130156,1,1
0.0001940925,-0.0002804347,1,1
0.0001514693,-0.0003673017,1,1
0.0001046324,-0.0004378002,1,1
5.439218e-05,-0.0004538446,1,1
-3.627206e-06,-0.0004070078,1,1
-7.169464e-05,-0.0003139823,1,1
-0.0001512687,-0.0002081536,1,1
-0.0002434839,-0.0001216107,1,1
-0.0003395886,-7.023606e-05,1,1
-0.000422566,-3.863332e-05,1,1
-0.0004669719,1.387585e-05,1,1
-0.0004655133,0.000130725,1,1
-0.0004280762,0.000324393,1,1
-0.0003708672,0.0005495019,1,1
-0.000313334,0.000725667,1,1
-0.0002708729,0.0007879001,1,1
-0.0002392702,0.0007178878,1,1
-0.0002024813,0.0005535535,1,1
-0.0001496481,0.0003569682,1,1
-8.044617e-05,0.000177886,1,1
-3.465141e-06,4.564065e-05,1,1
6.330578e-05,-3.717473e-05,1,1
9.733949e-05,-8.320128e-05,1,1
8.599492e-05,-0.0001118868,1,1
3.154097e-05,-0.0001329553,1,1
-5.937768e-05,-0.0001483515,1,1
-0.0001650443,-0.0001540238,1,1
-0.0002530457,-0.0001512687,1,1
-0.0002985861,-0.0001433275,1,1
-0.0002977757,-0.0001303623,1,1
-0.0002601766,-0.0001128592,1,1
-0.0001998883,-9.827335e-05,1,1
-0.000129714,-9.033215e-05,1,1
-5.727083e-05,-8.563225e-05,1,1
1.744129e-05,-7.979791e-05,1,1
9.993253e-05,-7.250496e-05,1,1
0.000195389,-6.683268e-05,1,1
0.0002973281,-6.278104e-05,1,1
0.0003913261,-5.889148e-05,1,1
0.000473007,-5.159854e-05,1,1
0.000542371,-4.203669e-05,1,1
0.0005952043,-3.377136e-05,1,1
0.0006204865,-2.615429e-05,1,1
0.0006086557,-1.707863e-05,1,1
0.0005561466,-4.437533e-06,1,1
0.0004662003,1.112074e-05,1,1
0.0003537269,2.230325e-05,1,1
0.0002380122,2.408596e-05,1,1
0.0001393144,1.727922e-05,1,1
6.379197e-05,5.934648e-06,1,1
1.063454e-05,-3.951337e-06,1,1
-2.242678e-05,-1.075808e-05,1,1
-3.944364e-05,-1.383732e-05,1,1
-5.095028e-05,-1.3027e-05,1,1
-6.926366e-05,-1.075808e-05,1,1
-0.0001096179,-9.299493e-06,1,1
-0.0001783336,-4.113403e-06,1,1
-0.0002721694,5.448452e-06,1,1
-0.0003728119,2.100672e-05,1,1
-0.0004588687,4.402e-05,1,1
-0.0005202913,7.043665e-05,1,1
-0.000561456,9.733949e-05,1,1
-0.0005964621,0.0001229458,1,1
-0.0006353577,0.0001496866,1,1
-0.0006755499,0.0001801549,1,1
-0.0007133111,0.0002091646,1,1
-0.0007382692,0.0002281262,1,1
-0.0007424829,0.0002292607,1,1
-0.0007261143,0.0002135403,1,1
-0.0006912703,0.0001921477,1,1
-0.0006442713,0.000178048,1,1
-0.0005959758,0.0001694586,1,1
-0.0005523803,0.0001540623,1,1
-0.0005167259,0.0001153287,1,1
-0.0004807475,5.017848e-05,1,1
-0.0004303451,-2.955766e-05,1,1
-0.0003472056,-0.0001029732,1,1
-0.0002135018,-0.0001507825,1,1
-2.226472e-05,-0.0001639098,1,1
0.0002096508,-0.000147055,1,1
0.0004404318,-0.0001175591,1,1
0.0006175694,-9.357346e-05,1,1
0.0007029778,-8.660465e-05,1,1
0.0006977918,-9.227693e-05,1,1
0.0006358828,-8.82253e-05,1,1
0.0005657084,-4.932962e-05,1,1
0.0005281092,2.035846e-05,1,1
0.0005451261,8.680524e-05,1,1
0.0006114109,0.0001096565,1,1
0.000703464,7.481241e-05,1,1
0.0007924379,-5.409925e-06,1,1
0.0008502954,-9.697683e-05,1,1
0.0008517539,-0.0001700683,1,1
0.0007883863,-0.0002099363,1,1
0.0006697544,-0.0002136638,1,1
0.0005208163,-0.000189192,1,1
0.0003793332,-0.0001430034,1,1
0.0002824181,-8.611845e-05,1,1
0.0002427121,-3.425755e-05,1,1
0.0002495189,3.989864e-06,1,1
0.0002736666,3.267542e-05,1,1
0.0002948972,6.071273e-05,1,1
0.0003091589,8.712937e-05,1,1
0.0003219621,0.000103498,1,1
0.0003310377,0.0001022015,1,1
0.0003255275,8.437427e-05,1,1
0.0002900352,5.585077e-05,1,1
0.0002120818,2.197911e-05,1,1
9.118101e-05,-9.947754e-06,1,1
-5.64605e-05,-3.425755e-05,1,1
-0.0002049123,-4.884343e-05,1,1
-0.0003248407,-5.289507e-05,1,1
-0.0003945287,-3.895745e-05,1,1
-0.0004107352,-7.354709e-06,1,1
-0.0003911253,3.073064e-05,1,1
-0.0003587123,6.119892e-05,1,1
-0.0003352128,7.643307e-05,1,1
-0.0003284061,7.886404e-05,1,1
-0.0003387782,7.254349e-05,1,1
-0.0003598467,5.94162e-05,1,1
-0.0003801049,4.320967e-05,1,1
-0.0003865875,2.295151e-05,1,1
-0.0003723258,5.86492e-07,1,1
-0.0003384541,-2.015787e-05,1,1
-0.0002916173,-3.004385e-05,1,1
-0.0002428356,-2.680255e-05,1,1
-0.0001977815,-1.383732e-05,1,1
-0.0001572651,6.90704e-06,1,1
-0.0001186936,3.332369e-05,1,1
-7.688073e-05,6.152305e-05,1,1
-3.26369e-05,9.280167e-05,1,1
8.203562e-06,0.0001302388,1,1
3.429608e-05,0.0001707551,1,1
3.688912e-05,0.0002065715,1,1
1.760335e-05,0.0002316917,1,1
-1.934754e-05,0.0002388225,1,1
-6.715681e-05,0.00022764,1,1
-0.0001186936,0.0002044647,1,1
-0.0001686097,0.0001814514,1,1
-0.0002147983,0.0001657311,1,1
-0.0002540181,0.0001574657,1,1
-0.0002831898,0.0001540623,1,1
-0.0003044204,0.000148228,1,1
-0.0003297026,0.0001349386,1,1
-0.0003624398,0.0001116012,1,1
-0.0003943667,8.242948e-05,1,1
-0.0004165696,5.179914e-05,1,1
-0.0004279142,2.34377e-05,1,1
-0.0004339106,-1.682422e-06,1,1
-0.0004356933,-2.0482e-05,1,1
-0.0004369898,-2.955766e-05,1,1
-0.0004407173,-2.583016e-05,1,1
-0.0004546549,-1.286493e-05,1,1
-0.0004903093,-7.100305e-07,1,1
-0.0005527044,-3.627206e-06,1,1
-0.0006279027,-2.7937e-05,1,1
-0.0006849497,-6.877746e-05,1,1
-0.0006938633,-0.0001154523,1,1
-0.0006439472,-0.0001538618,1,1
-0.0005483287,-0.0001705545,1,1
-0.0004334244,-0.0001556445,1,1
-0.0003147926,-0.0001096179,1,1
-0.0002060468,-4.738484e-05,1,1
-0.0001139937,7.717366e-06,1,1
-3.992984e-05,4.175109e-05,1,1
2.716521e-05,6.703327e-05,1,1
0.0001080358,9.814982e-05,1,1
0.0002148369,0.0001368834,1,1
0.0003388169,0.0001657311,1,1
0.0004589073,0.0001647587,1,1
0.00055955,0.0001279698,1,1
0.000641393,6.330578e-05,1,1
0.0007221015,-1.173047e-05,1,1
0.0008207994,-7.752899e-05,1,1
0.0009421865,-0.0001217728,1,1
0.001078808,-0.0001433275,1,1
0.001222074,-0.0001465688,1,1
0.001353347,-0.0001357104,1,1
0.001436973,-0.0001125351,1,1
0.001439242,-8.595638e-05,1,1
0.001343137,-6.893953e-05,1,1
0.001152385,-6.699475e-05,1,1
0.0008853014,-7.55842e-05,1,1
0.0005736496,-9.000802e-05,1,1
0.0002613496,-0.0001057284,1,1
4.151929e-06,-0.0001165867,1,1
-0.0001543479,-0.0001208004,1,1
-0.0002104225,-0.0001156143,1,1
-0.0002031296,-0.0001016767,1,1
-0.0001869231,-8.368748e-05,1,1
-0.0002073433,-6.618442e-05,1,1
-0.0002729798,-4.997789e-05,1,1
-0.0003517435,-3.571614e-05,1,1
-0.0003972838,-2.388537e-05,1,1
-0.00038286,-1.659243e-05,1,1
-0.0003178718,-1.513384e-05,1,1
-0.0002306807,-1.643037e-05,1,1
-0.0001399241,-1.529591e-05,1,1
-5.856735e-05,-9.461558e-06,1,1
4.47606e-06,7.485573e-07,1,1
4.272347e-05,1.387585e-05,1,1
5.633696e-05,2.76514e-05,1,1
5.017848e-05,3.494434e-05,1,1
3.299956e-05,3.526847e-05,1,1
1.387585e-05,3.332369e-05,1,1
-1.844488e-06,3.445814e-05,1,1
-6.706447e-06,4.402e-05,1,1
-1.358292e-06,6.168512e-05,1,1
3.989864e-06,8.437427e-05,1,1
-2.006553e-06,0.0001049566,1,1
-2.226472e-05,0.0001179218,1,1
-5.370539e-05,0.0001232699,1,1
-8.854943e-05,0.0001235941,1,1
-0.0001144799,0.0001213252,1,1
-0.0001128592,0.0001190562,1,1
-7.720486e-05,0.0001195424,1,1
-1.480971e-05,0.0001239182,1,1
5.131294e-05,0.0001274836,1,1
9.750156e-05,0.0001214872,1,1
0.0001043083,0.0001090082,1,1
6.768154e-05,9.717743e-05,1,1
-5.085794e-06,9.150514e-05,1,1
-9.697683e-05,9.231547e-05,1,1
-0.0001865989,9.733949e-05,1,1
-0.0002559629,0.0001017153,1,1
-0.0002908069,0.0001002567,1,1
-0.0002870794,9.247754e-05,1,1
-0.0002554767,8.680524e-05,1,1
-0.000213988,9.21534e-05,1,1
-0.0001778474,0.0001086841,1,1
-0.0001582375,0.0001244044,1,1
-0.0001532135,0.000125863,1,1
-0.0001681235,0.0001103047,1,1
-0.00021415,8.372601e-05,1,1
-0.0003011791,5.585077e-05,1,1
-0.0004217557,3.510641e-05,1,1
-0.0005505976,2.651694e-05,1,1
-0.0006593434,2.943412e-05,1,1
-0.000720442,3.915804e-05,1,1
-0.0007241695,5.034055e-05,1,1
-0.0006744154,5.471631e-05,1,1
-0.0005856037,4.693717e-05,1,1
-0.0004726442,2.586868e-05,1,1
-0.0003449367,-4.437533e-06,1,1
-0.0002052365,-3.895745e-05,1,1
-4.835724e-05,-7.039812e-05,1,1
0.0001268354,-9.422172e-05,1,1
0.0003057555,-0.0001075111,1,1
0.0004734932,-0.0001075111,1,1
0.0006302104,-9.681477e-05,1,1
0.0007859553,-8.82253e-05,1,1
0.000953369,-8.968389e-05,1,1
0.00113002,-9.746302e-05,1,1
0.001301162,-9.940781e-05,1,1
0.001443779,-8.255302e-05,1,1
0.001537129,-4.868137e-05,1,1
0.001569866,-1.578211e-05,1,1
0.00154345,-7.516774e-06,1,1
0.001467117,-3.069211e-05,1,1
0.001356912,-7.914964e-05,1,1
0.001234229,-0.000134738,1,1
0.001116407,-0.0001806025,1,1
0.001008633,-0.0002104225,1,1
0.0009068561,-0.0002233878,1,1
0.0008065377,-0.0002222533,1,1
0.0007050846,-0.0002084778,1,1
0.0006063868,-0.00018433,1,1
0.00050542,-0.0001533756,1,1
0.0003867882,-0.0001264727,1,1
0.0002359054,-0.0001105903,1,1
4.904402e-05,-0.0001057284,1,1
-0.000166827,-0.0001149661,1,1
-0.0003859393,-0.0001410586,1,1
-0.000576366,-0.0001757406,1,1
-0.0007115284,-0.0002075054,1,1
-0.0007855922,-0.0002227395,1,1
-0.0008081193,-0.0002133397,1,1
-0.0007953162,-0.0001784957,1,1
-0.0007632272,-0.0001216107,1,1
-0.0007241695,-5.565017e-05,1,1
-0.0006836532,3.827799e-06,1,1
-0.0006428128,5.649903e-05,1,1
-0.0006000275,0.0001156529,1,1
-0.0005587008,0.0001864754,1,1
-0.0005227224,0.0002496809,1,1
-0.0005037607,0.0002814457,1,1
-0.0005066779,0.0002736666,1,1
-0.0005199672,0.0002376881,1,1
-0.0005233706,0.0001963614,1,1
-0.0004988988,0.0001662173,1,1
-0.0004426621,0.0001462832,1,1
-0.0003685983,0.0001305629,1,1
-0.0003036101,0.0001132219,1,1
-0.000263742,9.588091e-05,1,1
-0.0002457528,8.696731e-05,1,1
-0.0002282497,0.0001054428,1,1
-0.0001964849,0.0001702689,1,1
-0.0001449482,0.0002832284,1,1
-8.482193e-05,0.0004140152,1,1
-3.134038e-05,0.0005117406,1,1
7.23117e-06,0.0005389676,1,1
3.575467e-05,0.000497803,1,1
5.94162e-05,0.000420984,1,1
8.161915e-05,0.0003399513,1,1
9.847395e-05,0.000272208,1,1
9.782569e-05,0.0002271538,1,1
7.238143e-05,0.0002078681,1,1
2.052053e-05,0.0002135403,1,1
-5.2733e-05,0.000232502,1,1
-0.0001360346,0.0002440086,1,1
-0.0002183637,0.0002294227,1,1
-0.0002911311,0.0001859892,1,1
-0.0003472056,0.0001323456,1,1
-0.00038286,9.620504e-05,1,1
-0.0004053871,8.275361e-05,1,1
-0.0004243487,7.57848e-05,1,1
-0.0004434724,5.666109e-05,1,1
-0.0004590307,2.084466e-05,1,1
-0.0004703753,-2.09682e-05,1,1
-0.0004830164,-5.824322e-05,1,1
-0.0004993849,-8.40116e-05,1,1
-0.0005202913,-9.568031e-05,1,1
-0.000544115,-0.0001008664,1,1
-0.0005731247,-0.000104756,1,1
-0.0006003517,-0.0001094559,1,1
-0.000613803,-0.0001143178,1,1
-0.0005997034,-0.0001185315,1,1
-0.0005460597,-0.0001240417,1,1
-0.0004559515,-0.0001305243,1,1
-0.0003478539,-0.0001396,1,1
-0.0002475355,-0.0001512687,1,1
-0.0001712027,-0.0001621271,1,1
-0.0001203142,-0.0001712027,1,1
-9.29252e-05,-0.0001771992,1,1
-7.898758e-05,-0.0001786577,1,1
-6.991193e-05,-0.0001778474,1,1
-6.294311e-05,-0.0001788198,1,1
-5.986387e-05,-0.0001833576,1,1
-6.359137e-05,-0.0001887058,1,1
-6.926366e-05,-0.0001893541,1,1
-6.197072e-05,-0.0001865989,1,1
-2.858527e-05,-0.0001833576,1,1
3.640293e-05,-0.0001859507,1,1
0.0001304008,-0.000196647,1,1
0.0002420638,-0.0002118811,1,1
0.000356482,-0.0002235498,1,1
0.0004602039,-0.0002261429,1,1
0.0005428572,-0.0002203085,1,1
0.000596825,-0.0002092881,1,1
0.000616759,-0.0001956746,1,1
0.0006080075,-0.0001755785,1,1
0.0005867769,-0.0001457585,1,1
0.0005742979,-0.0001076731,1,1
0.0005811046,-6.764301e-05,1,1
0.000606711,-3.847125e-05,1,1
0.0006392861,-2.728874e-05,1,1
0.0006593822,-2.89094e-05,1,1
0.0006483617,-3.166451e-05,1,1
0.0005997422,-2.84232e-05,1,1
0.0005195198,-1.448558e-05,1,1
0.0004263322,9.338019e-06,1,1
0.0003410858,3.656499e-05,1,1
0.0002790148,5.633696e-05,1,1
0.0002417397,6.573675e-05,1,1
0.0002222919,6.654708e-05,1,1
0.0002107852,6.379197e-05,1,1
0.0002055991,6.330578e-05,1,1
0.0002060853,6.638502e-05,1,1
0.00021273,7.221937e-05,1,1
0.0002188885,8.275361e-05,1,1
0.000215161,9.490851e-05,1,1
0.0001945787,0.0001078737,1,1
0.0001577899,0.0001169494,1,1
0.000113384,0.0001198666,1,1
6.978839e-05,0.0001203528,1,1
4.077869e-05,0.0001320215,1,1
3.283749e-05,0.0001650828,1,1
3.510641e-05,0.0002182402,1,1
2.522042e-05,0.0002782044,1,1
-1.837515e-05,0.0003247172,1,1
-0.0001008664,0.0003397893,1,1
-0.0001985918,0.0003175863,1,1
-0.0002788141,0.0002657254,1,1
-0.0003224097,0.0002005751,1,1
-0.0003327818,0.0001404489,1,1
-0.0003199787,9.798775e-05,1,1
-0.0002921034,7.416415e-05,1,1
-0.0002514251,6.670914e-05,1,1
-0.000191623,6.865393e-05,1,1
-0.0001245279,7.124698e-05,1,1
-7.769106e-05,6.816773e-05,1,1
-7.120844e-05,5.876794e-05,1,1
-9.778715e-05,5.909208e-05,1,1
-0.0001334415,8.74535e-05,1,1
-0.0001496481,0.0001391524,1,1
-0.0001300382,0.0001895547,1,1
-8.044617e-05,0.0002124059,1,1
-2.161646e-05,0.0001965235,1,1
2.878586e-05,0.0001498487,1,1
6.525056e-05,8.923623e-05,1,1
9.280167e-05,3.316162e-05,1,1
0.0001188942,-7.354709e-06,1,1
0.0001492004,-2.728874e-05,1,1
0.0001835583,-2.518189e-05,1,1
0.000217592,-9.785688e-06,1,1
0.0002461155,8.527692e-06,1,1
0.0002668598,2.376183e-05,1,1
0.0002833905,3.397195e-05,1,1
0.0002960316,3.55926e-05,1,1
0.0003018659,2.781346e-05,1,1
0.0002974902,1.193106e-05,1,1
0.0002791768,-7.354709e-06,1,1
0.0002529222,-2.971972e-05,1,1
0.0002331503,-5.516398e-05,1,1
0.0002316917,-8.060823e-05,1,1
0.0002551911,-0.0001057284,1,1
0.00030689,-0.0001332795,1,1
0.0003809539,-0.0001611547,1,1
0.0004637693,-0.0001822232,1,1
0.0005368608,-0.0001951884,1,1
0.0005848321,-0.000201671,1,1
0.0005987698,-0.000206533,1,1
0.0005806184,-0.0002120432,1,1
0.0005339436,-0.0002122053,1,1
0.0004639314,-0.0002008607,1,1
0.0003807918,-0.0001794681,1,1
0.0002966799,-0.0001530514,1,1
0.0002133783,-0.0001258245,1,1
0.0001273216,-9.373552e-05,1,1
3.348575e-05,-5.548811e-05,1,1
-6.48879e-05,-1.351319e-05,1,1
-0.0001624512,2.554455e-05,1,1
-0.0002548284,5.131294e-05,1,1
-0.0003293785,5.860588e-05,1,1
-0.0003726499,4.839576e-05,1,1
-0.0003805911,1.744129e-05,1,1
-0.0003622777,-2.988179e-05,1,1
-0.0003352128,-8.417367e-05,1,1
-0.0003118754,-0.000134576,1,1
-0.0003042584,-0.0001695821,1,1
-0.0003154408,-0.0001820611,1,1
-0.0003368335,-0.0001713648,1,1
-0.0003598467,-0.0001473791,1,1
-0.0003789705,-0.0001183694,1,1
-0.0003920977,-8.709085e-05,1,1
-0.0003875599,-4.90055e-05,1,1
-0.0003557951,6.096713e-06,1,1
-0.0002950206,9.458438e-05,1,1
-0.0002110708,0.0002162954,1,1
-0.0001193418,0.0003383307,1,1
-3.814712e-05,0.0004240633,1,1
1.841368e-05,0.0004576108,1,1
4.434413e-05,0.0004464283,1,1
4.466826e-05,0.0004098015,1,1
2.878586e-05,0.0003624784,1,1
5.772582e-06,0.0003159656,1,1
-1.513384e-05,0.0002783665,1,1
-2.09682e-05,0.0002532463,1,1
-3.627206e-06,0.000235095,1,1
3.170304e-05,0.000217592,1,1
7.400208e-05,0.0001968476,1,1
0.0001101427,0.0001718896,1,1
0.0001339663,0.000145635,1,1
0.0001445005,0.0001197045,1,1
0.0001393144,9.442231e-05,1,1
0.0001197045,7.124698e-05,1,1
9.134307e-05,5.795762e-05,1,1
5.876794e-05,6.281957e-05,1,1
1.792748e-05,8.84259e-05,1,1
-3.166451e-05,0.0001245665,1,1
-8.384954e-05,0.0001519555,1,1
-0.0001287416,0.0001550348,1,1
-0.0001613168,0.0001304008,1,1
-0.0001814128,8.939829e-05,1,1
-0.000194216,4.661304e-05,1,1
-0.0002088019,1.387585e-05,1,1
-0.0002266291,-4.275467e-06,1,1
-0.0002431597,-1.108221e-05,1,1
-0.0002541802,-1.513384e-05,1,1
-0.0002559629,-2.46957e-05,1,1
-0.0002457528,-3.895745e-05,1,1
-0.0002347323,-5.354332e-05,1,1
-0.0002366771,-6.099833e-05,1,1
-0.0002640662,-6.213279e-05,1,1
-0.0003151167,-6.278104e-05,1,1
-0.0003734602,-6.958779e-05,1,1
-0.0004207833,-8.579432e-05,1,1
-0.0004481723,-0.000107349,1,1
-0.0004624341,-0.0001261486,1,1
-0.000477182,-0.0001396,1,1
-0.0005057055,-0.0001468929,1,1
-0.000544277,-0.0001517549,1,1
-0.000571504,-0.0001548341,1,1
-0.0005593491,-0.0001562927,1,1
-0.0004857715,-0.0001587237,1,1
-0.0003591985,-0.0001677994,1,1
-0.000221605,-0.0001807646,1,1
-0.0001225832,-0.0001932436,1,1
-9.373552e-05,-0.0002008607,1,1
-0.0001285796,-0.0001995642,1,1
-0.0001956746,-0.000191623,1,1
-0.0002549905,-0.0001776853,1,1
-0.0002721694,-0.0001598582,1,1
-0.0002301945,-0.0001405724,1,1
-0.0001269589,-0.0001216107,1,1
2.359977e-05,-0.0001041077,1,1
0.0001950649,-9.422172e-05,1,1
0.0003563199,-9.438378e-05,1,1
0.0004837033,-0.0001011905,1,1
0.0005636016,-0.0001070249,1,1
0.0005976353,-0.0001096179,1,1
0.0006034696,-0.0001105903,1,1
0.0006096281,-0.0001076731,1,1
0.0006436619,-9.940781e-05,1,1
0.0007196706,-8.514606e-05,1,1
0.0008217718,-6.715681e-05,1,1
0.0009185249,-4.706071e-05,1,1
0.0009778409,-2.680255e-05,1,1
0.0009839993,-9.299493e-06,1,1
0.0009399176,4.962256e-06,1,1
0.0008660157,1.630683e-05,1,1
0.000797462,2.197911e-05,1,1
0.000755325,2.230325e-05,1,1
0.0007323117,1.857574e-05,1,1
0.0007037881,1.64689e-05,1,1
0.0006545202,2.295151e-05,1,1
0.0005840218,3.996837e-05,1,1
0.0005036374,6.427817e-05,1,1
0.000418553,8.696731e-05,1,1
0.0003284447,0.0001026876,1,1
0.0002302331,0.0001104668,1,1
0.0001235941,0.0001116012,1,1
1.614476e-05,0.0001090082,1,1
-7.817725e-05,0.0001047945,1,1
-0.000144462,9.977047e-05,1,1
-0.0001724993,9.750156e-05,1,1
-0.0001656925,0.0001012291,1,1
-0.0001368449,0.0001094944,1,1
-9.730096e-05,0.0001172735,1,1
-5.451572e-05,0.0001232699,1,1
-9.461558e-06,0.0001271595,1,1
3.251336e-05,0.000133318,1,1
6.119892e-05,0.0001469315,1,1
7.027458e-05,0.0001694586,1,1
5.471631e-05,0.000195389,1,1
1.322759e-05,0.0002124059,1,1
-5.078821e-05,0.0002171058,1,1
-0.000129714,0.0002120818,1,1
-0.0002118811,0.0002064095,1,1
-0.0002929138,0.0002049509,1,1
-0.0003692465,0.0002034923,1,1
-0.0004386105,0.0001914995,1,1
-0.0004937127,0.0001639484,1,1
-0.0005214258,0.0001253768,1,1
-0.0005185087,8.615699e-05,1,1
-0.0004958195,5.341979e-05,1,1
-0.0004695649,3.024445e-05,1,1
-0.0004564377,1.614476e-05,1,1
-0.0004642168,3.989864e-06,1,1
-0.000492092,-9.623623e-06,1,1
-0.0005389289,-2.566809e-05,1,1
-0.0005977586,-3.134038e-05,1,1
-0.0006535091,-1.043395e-05,1,1
-0.0006935392,3.364782e-05,1,1
-0.0007050458,7.643307e-05,1,1
-0.0006776568,9.328786e-05,1,1
-0.0006074825,7.951231e-05,1,1
-0.0005013297,4.677511e-05,1,1
-0.0003844807,9.175954e-06,1,1
-0.0002812451,-2.291298e-05,1,1
-0.000206695,-4.511593e-05,1,1
-0.0001642339,-5.678463e-05,1,1
-0.0001502963,-5.889148e-05,1,1
-0.0001598582,-5.176061e-05,1,1
-0.0001872472,-4.43056e-05,1,1
-0.0002201465,-4.80331e-05,1,1
-0.0002319772,-6.667062e-05,1,1
-0.0001903264,-9.373552e-05,1,1
-8.206682e-05,-0.0001203142,1,1
7.918817e-05,-0.0001391138,1,1
0.0002501671,-0.0001425172,1,1
0.0003843572,-0.000134738,1,1
0.0004542074,-0.0001242038,1,1
0.0004512903,-0.000117235,1,1
0.0003785229,-0.0001157764,1,1
0.0002571359,-0.0001180453,1,1
0.0001185701,-0.000122259,1,1
-7.354709e-06,-0.0001219349,1,1
-0.0001010285,-0.000112211,1,1
-0.0001553203,-8.935975e-05,1,1
-0.0001812508,-6.051213e-05,1,1
-0.000189192,-3.441962e-05,1,1
-0.0001853024,-1.189254e-05,1,1
-0.0001741199,8.851824e-06,1,1
-0.0001574272,2.376183e-05,1,1
-0.0001237176,2.700314e-05,1,1
-5.727083e-05,1.760335e-05,1,1
4.110282e-05,3.827799e-06,1,1
0.0001490383,-7.516774e-06,1,1
0.0002362295,-1.221667e-05,1,1
0.0002861456,-7.840905e-06,1,1
0.0003008936,3.665733e-06,1,1
0.0002908455,2.084466e-05,1,1
0.000259729,4.094075e-05,1,1
0.0002135403,6.136099e-05,1,1
0.000168,7.497447e-05,1,1
0.000143204,7.999851e-05,1,1
0.000155683,7.935024e-05,1,1
0.0002059233,8.097089e-05,1,1
0.0002830664,9.150514e-05,1,1
0.0003715541,0.0001116012,1,1
0.0004584211,0.0001328318,1,1
0.0005371849,0.0001490383,1,1
0.0006029835,0.0001573037,1,1
0.0006477135,0.000158114,1,1
0.0006600305,0.0001545486,1,1
0.0006350724,0.0001522796,1,1
0.0005741358,0.0001526038,1,1
0.0004851619,0.0001526038,1,1
0.0003882468,0.0001503349,1,1
0.0003059176,0.0001462832,1,1
0.000249843,0.0001389903,1,1
0.0002209954,0.0001305629,1,1
0.0002122438,0.0001205148,1,1
0.0002192126,0.0001057669,1,1
0.0002346088,8.194328e-05,1,1
0.0002540567,4.839576e-05,1,1
0.0002712356,1.274139e-05,1,1
0.0002858215,-9.623623e-06,1,1
0.0003125623,-7.030578e-06,1,1
0.0003683128,1.97102e-05,1,1
0.0004469145,6.152305e-05,1,1
0.0005203301,0.0001080358,1,1
0.0005535535,0.0001503349,1,1
0.000534916,0.0001767515,1,1
0.0004837033,0.0001786963,1,1
0.0004290873,0.0001576278,1,1
0.0003848434,0.0001235941,1,1
0.000344165,8.453633e-05,1,1
0.0002906835,4.72613e-05,1,1
0.0002153231,1.54965e-05,1,1
0.0001266733,-8.651231e-06,1,1
5.082674e-05,-2.113026e-05,1,1
1.338965e-05,-2.404744e-05,1,1
1.841368e-05,-2.291298e-05,1,1
5.131294e-05,-2.339918e-05,1,1
8.356394e-05,-3.036798e-05,1,1
8.275361e-05,-4.43056e-05,1,1
3.235129e-05,-5.937768e-05,1,1
-6.764301e-05,-7.104638e-05,1,1
-0.0001989159,-8.093236e-05,1,1
-0.0003335922,-8.854943e-05,1,1
-0.0004470379,-9.584238e-05,1,1
-0.0005279084,-0.0001039456,1,1
-0.0005742591,-0.0001114006,1,1
-0.0005969483,-0.0001170729,1,1
-0.0006094273,-0.0001217728,1,1
-0.0006227166,-0.0001293899,1,1
-0.0006442713,-0.0001400862,1,1
-0.0006768464,-0.0001530514,1,1
-0.0007142835,-0.0001632615,1,1
-0.0007489655,-0.0001658546,1,1
-0.0007758683,-0.0001621271,1,1
-0.000787537,-0.0001566169,1,1
-0.0007758683,-0.0001501342,1,1
-0.0007392416,-0.0001418689,1,1
-0.0006851118,-0.0001353863,1,1
-0.0006279027,-0.0001331174,1,1
-0.0005779866,-0.0001353863,1,1
-0.000534229,-0.0001344139,1,1
-0.0004867439,-0.0001195039,1,1
-0.0004264556,-9.065628e-05,1,1
-0.0003559572,-6.002594e-05,1,1
-0.0002852967,-4.074016e-05,1,1
-0.000224036,-3.814712e-05,1,1
-0.000176875,-4.47918e-05,1,1
-0.0001405724,-4.997789e-05,1,1
-0.0001044318,-4.787104e-05,1,1
-5.759496e-05,-3.879538e-05,1,1
3.503668e-06,-2.275091e-05,1,1
7.173317e-05,-7.678839e-06,1,1
0.000140773,4.47606e-06,1,1
0.000210299,1.533444e-05,1,1
0.0002840388,2.424803e-05,1,1
0.0003606957,2.846173e-05,1,1
0.0004289252,2.635488e-05,1,1
0.0004760863,1.97102e-05,1,1
0.000497803,1.063454e-05,1,1
0.0004987754,2.531276e-06,1,1
0.0004874308,2.623614e-07,1,1
0.0004642555,9.338019e-06,1,1
0.0004310321,3.721326e-05,1,1
0.0003939191,8.307774e-05,1,1
0.0003577785,0.0001399627,1,1
0.0003174242,0.0001945787,1,1
0.0002626462,0.00022764,1,1
0.0001812893,0.0002305572,1,1
7.708133e-05,0.0002081922,1,1
-3.296103e-05,0.000173024,1,1
-0.0001267968,0.0001393144,1,1
-0.0001869231,0.0001112771,1,1
-0.0002088019,9.26396e-05,1,1
-0.0001969711,7.837785e-05,1,1
-0.000166827,6.395404e-05,1,1
-0.0001337657,4.693717e-05,1,1
-0.0001114006,2.700314e-05,1,1
-0.0001041077,8.689758e-06,1,1
-0.000104756,-3.627206e-06,1,1
-0.0001057284,-3.465141e-06,1,1
-0.0001041077,1.614476e-05,1,1
-9.811128e-05,5.730935e-05,1,1
-8.790117e-05,0.0001169494,1,1
-7.623246e-05,0.0001822617,1,1
-6.942573e-05,0.0002381743,1,1
-7.120844e-05,0.000279663,1,1
-8.060823e-05,0.0003171001,1,1
-9.66527e-05,0.0003595612,1,1
-0.0001167488,0.0004008879,1,1
-0.000137169,0.0004157979,1,1
-0.0001580754,0.00038614,1,1
-0.0001840059,0.0003114278,1,1
-0.0002159328,0.0002065715,1,1
-0.0002493182,9.588091e-05,1,1
-0.0002734659,1.720949e-06,1,1
-0.0002752487,-5.613637e-05,1,1
-0.0002459149,-6.780507e-05,1,1
-0.0001825473,-4.074016e-05,1,1
-9.535618e-05,-2.006553e-06,1,1
-6.058186e-06,1.468618e-05,1,1
5.893001e-05,-6.868513e-06,1,1
8.858796e-05,-6.164659e-05,1,1
8.226741e-05,-0.0001245279,1,1
5.228533e-05,-0.0001713648,1,1
1.760335e-05,-0.0001865989,1,1
-5.247859e-06,-0.0001705545,1,1
-8.327101e-06,-0.0001402483,1,1
1.031041e-05,-0.0001156143,1,1
4.888196e-05,-0.0001081593,1,1
0.0001056048,-0.0001206384,1,1
0.0001715654,-0.0001342519,1,1
0.0002334744,-0.0001157764,1,1
0.0002767458,-4.236082e-05,1,1
0.0002908455,7.157111e-05,1,1
0.0002764217,0.0001814514,1,1
0.0002412535,0.0002376881,1,1
0.0001991165,0.0002211574,1,1
0.0001645966,0.0001488763,1,1
0.0001446626,5.730935e-05,1,1
0.0001399627,-2.09682e-05,1,1
0.0001475797,-6.91016e-05,1,1
0.0001636242,-8.854943e-05,1,1
0.0001835583,-8.935975e-05,1,1
0.0002012234,-8.336335e-05,1,1
0.0002090025,-7.963584e-05,1,1
0.0002044647,-8.368748e-05,1,1
0.0001890685,-9.341139e-05,1,1
0.0001707551,-0.0001028112,1,1
0.0001603829,-0.0001089697,1,1
0.0001598967,-0.0001138316,1,1
0.0001626518,-0.0001151281,1,1
0.0001626518,-0.0001104282,1,1
0.000160707,-9.843541e-05,1,1
0.0001560072,-7.979791e-05,1,1
0.000145797,-5.970181e-05,1,1
0.0001248906,-4.511593e-05,1,1
9.31258e-05,-3.620233e-05,1,1
5.504044e-05,-3.279896e-05,1,1
1.727922e-05,-3.393342e-05,1,1
-1.286493e-05,-3.182657e-05,1,1
-2.534396e-05,-1.67545e-05,1,1
-1.659243e-05,1.484824e-05,1,1
2.04508e-06,5.633696e-05,1,1
1.501031e-05,9.16672e-05,1,1
1.387585e-05,0.0001038221,1,1
1.883015e-06,9.231547e-05,1,1
-1.043395e-05,6.508849e-05,1,1
-1.448558e-05,3.624086e-05,1,1
-1.196227e-06,1.938607e-05,1,1
3.445814e-05,1.727922e-05,1,1
9.523264e-05,2.278944e-05,1,1
0.0001757791,2.797553e-05,1,1
0.0002660495,2.846173e-05,1,1
0.0003534027,2.522042e-05,1,1
0.0004251977,2.230325e-05,1,1
0.0004746277,2.003433e-05,1,1
0.0004956961,1.776542e-05,1,1
0.0004890515,1.663096e-05,1,1
0.0004626348,1.387585e-05,1,1
0.0004274666,8.203562e-06,1,1
0.0003971604,-1.682422e-06,1,1
0.0003807918,-1.092015e-05,1,1
0.0003773884,-1.562004e-05,1,1
0.0003832228,-1.497178e-05,1,1
0.0003869503,-9.137427e-06,1,1
0.0003775505,5.86492e-07,1,1
0.0003467581,7.069105e-06,1,1
0.0002953834,1.031041e-05,1,1
0.0002315296,1.468618e-05,1,1
0.0001621656,2.035846e-05,1,1
9.21534e-05,2.359977e-05,1,1
2.81376e-05,1.873781e-05,1,1
-2.939559e-05,3.341602e-06,1,1
-7.866345e-05,-1.853722e-05,1,1
-0.0001266348,-4.090223e-05,1,1
-0.0001796301,-5.451572e-05,1,1
-0.0002415391,-5.759496e-05,1,1
-0.000315765,-5.305713e-05,1,1
-0.0003985804,-4.38194e-05,1,1
-0.0004749131,-3.26369e-05,1,1
-0.0005316359,-2.339918e-05,1,1
-0.0005625904,-1.67545e-05,1,1
-0.0005677765,-1.124428e-05,1,1
-0.0005502735,-7.840905e-06,1,1
-0.0005104054,-4.437533e-06,1,1
-0.0004450931,-5.247859e-06,1,1
-0.0003566054,-1.545797e-05,1,1
-0.0002627696,-3.134038e-05,1,1
-0.0001861127,-4.576419e-05,1,1
-0.0001405724,-5.370539e-05,1,1
-0.0001199901,-5.710876e-05,1,1
-0.0001084835,-6.083626e-05,1,1
-8.952183e-05,-6.456377e-05,1,1
-5.889148e-05,-6.81292e-05,1,1
-2.485776e-05,-6.926366e-05,1,1
-5.409925e-06,-6.942573e-05,1,1
-2.485776e-05,-6.974985e-05,1,1
-9.568031e-05,-7.55842e-05,1,1
-0.0002003745,-8.984595e-05,1,1
-0.0003013411,-0.0001128592,1,1
-0.000365519,-0.0001319829,1,1
-0.0003732982,-0.000129714,1,1
-0.0003267854,-9.211487e-05,1,1
-0.0002480217,-2.923353e-05,1,1
-0.0001726613,2.959619e-05,1,1
-0.0001332795,6.395404e-05,1,1
-0.0001413827,7.513654e-05,1,1
-0.0001739578,7.643307e-05,1,1
-0.0001964849,8.340187e-05,1,1
-0.0001859507,0.0001041462,1,1
-0.0001485136,0.0001329939,1,1
-9.908367e-05,0.000160545,1,1
-4.868137e-05,0.0001822617,1,1
1.002961e-07,0.000195227,1,1
5.536457e-05,0.0001976579,1,1
0.0001201907,0.0001882582,1,1
0.0001939304,0.0001675138,1,1
0.0002679943,0.0001422316,1,1
0.0003324963,0.0001235941,1,1
0.0003890571,0.0001214872,1,1
0.0004503179,0.0001372076,1,1
0.0005153061,0.0001692965,1,1
0.0005653843,0.0002099749,1,1
0.000579646,0.000247412,1,1
0.0005444778,0.0002707494,1,1
0.0004647417,0.0002730183,1,1
0.0003754436,0.0002594049,1,1
0.0003203414,0.0002373639,1,1
0.0003276344,0.0002145127,1,1
0.0003950536,0.0001949028,1,1
0.0004874308,0.0001793446,1,1
0.0005554983,0.0001644345,1,1
0.0005629533,0.0001513072,1,1
0.0005018546,0.0001441764,1,1
0.0003944053,0.0001435281,1,1
0.0002803113,0.000145635,1,1
0.0001905271,0.000143204,1,1
0.0001376938,0.0001320215,1,1
0.0001197045,0.0001137081,1,1
0.0001235941,9.085688e-05,1,1
0.0001388282,6.735741e-05,1,1
0.0001517934,4.596478e-05,1,1
0.0001488763,2.39239e-05,1,1
0.0001240803,-2.978945e-06,1,1
8.097089e-05,-3.231277e-05,1,1
3.073064e-05,-6.0188e-05,1,1
-1.270286e-05,-8.239095e-05,1,1
-4.544006e-05,-9.924574e-05,1,1
-7.18567e-05,-0.0001138316,1,1
-9.794922e-05,-0.0001259865,1,1
-0.0001217728,-0.0001349001,1,1
-0.0001342519,-0.0001397621,1,1
-0.0001230693,-0.000137007,1,1
-8.336335e-05,-0.000114804,1,1
-2.664048e-05,-6.213279e-05,1,1
2.635488e-05,8.851824e-06,1,1
5.309566e-05,6.703327e-05,1,1
3.235129e-05,8.502253e-05,1,1
-5.22468e-05,5.358185e-05,1,1
-0.0002024813,-1.480971e-05,1,1
-0.0003963114,-0.000102325,1,1
-0.0005920863,-0.0001893541,1,1
-0.000747831,-0.0002590421,1,1
-0.0008426392,-0.0002946965,1,1
-0.0008810487,-0.0002899966,1,1
-0.0008782936,-0.0002535319,1,1
-0.0008562527,-0.0002055606,1,1
-0.0008304843,-0.0001726613,1,1
-0.000804716,-0.0001671511,1,1
-0.0007747339,-0.0001809267,1,1
-0.0007298418,-0.0001922712,1,1
-0.0006724707,-0.0001822232,1,1
-0.0006097514,-0.0001408965,1,1
-0.0005489769,-6.553616e-05,1,1
-0.0004959816,2.959619e-05,1,1
-0.0004593548,0.0001125736,1,1
-0.0004467137,0.0001642725,1,1
-0.0004544929,0.0001945787,1,1
-0.0004690787,0.0002193747,1,1
-0.0004786406,0.000242388,1,1
-0.0004749131,0.0002581083,1,1
-0.000447362,0.0002563256,1,1
-0.0003898288,0.0002242366,1,1
-0.0003013411,0.0001624898,1,1
-0.0001912988,8.567078e-05,1,1
-8.222889e-05,1.209313e-05,1,1
-1.844488e-06,-3.944364e-05,1,1
3.494434e-05,-6.051213e-05,1,1
3.364782e-05,-5.451572e-05,1,1
1.64689e-05,-3.733679e-05,1,1
-6.176923e-08,-2.291298e-05,1,1
-2.492749e-06,-1.464765e-05,1,1
1.306552e-05,-3.951337e-06,1,1
4.45062e-05,1.792748e-05,1,1
8.777764e-05,5.115087e-05,1,1
0.0001378558,8.550872e-05,1,1
0.0001869616,0.0001114392,1,1
0.0002312055,0.0001214872,1,1
0.0002688046,0.0001145184,1,1
0.000299597,9.523264e-05,1,1
0.0003239069,7.351589e-05,1,1
0.0003423823,5.682316e-05,1,1
0.0003548613,4.580272e-05,1,1
0.0003647473,3.769945e-05,1,1
0.0003833848,2.862379e-05,1,1
0.0004219564,2.262738e-05,1,1
0.0004798138,2.376183e-05,1,1
0.000542209,2.910999e-05,1,1
0.0005955285,3.462021e-05,1,1
0.0006373413,3.850978e-05,1,1
0.0006668373,4.077869e-05,1,1
0.0006760749,4.061663e-05,1,1
0.0006574374,4.013043e-05,1,1
0.0006110868,4.094075e-05,1,1
0.0005337815,4.320967e-05,1,1
0.0004324906,4.709924e-05,1,1
0.0003148312,5.001642e-05,1,1
0.0001950649,5.131294e-05,1,1
9.004655e-05,5.131294e-05,1,1
8.689758e-06,4.807163e-05,1,1
-5.127441e-05,4.337174e-05,1,1
-9.568031e-05,3.915804e-05,1,1
-0.0001258245,3.656499e-05,1,1
-0.0001368449,3.55926e-05,1,1
-0.0001178833,3.575467e-05,1,1
-5.775702e-05,3.575467e-05,1,1
3.883391e-05,3.283749e-05,1,1
0.0001513072,2.76514e-05,1,1
0.0002605393,2.214118e-05,1,1
0.0003543751,1.614476e-05,1,1
0.0004240633,5.934648e-06,1,1
0.000460528,-8.002969e-06,1,1
0.0004511282,-2.388537e-05,1,1
0.0003939191,-4.122636e-05,1,1
0.000299435,-6.213279e-05,1,1
0.0001923098,-8.384954e-05,1,1
0.0001026876,-0.0001071869,1,1
4.693717e-05,-0.0001336036,1,1
2.068259e-05,-0.0001572651,1,1
4.313994e-06,-0.0001687718,1,1
-2.258885e-05,-0.0001650443,1,1
-6.537409e-05,-0.0001481895,1,1
-0.0001178833,-0.0001336036,1,1
-0.000174282,-0.0001368449,1,1
-0.0002290601,-0.0001622891,1,1
-0.00027849,-0.0002005366,1,1
-0.0003144685,-0.0002379736,1,1
-0.0003284061,-0.0002639041,1,1
-0.0003125237,-0.0002729798,1,1
-0.0002635799,-0.0002652006,1,1
-0.0001809267,-0.0002472114,1,1
-7.590833e-05,-0.0002274394,1,1
3.18651e-05,-0.0002109087,1,1
0.0001148425,-0.000196647,1,1
0.0001550348,-0.0001695821,1,1
0.0001469315,-0.0001101041,1,1
0.0001026876,-1.351319e-05,1,1
4.158902e-05,0.0001012291,1,1
-2.258885e-05,0.0001968476,1,1
-8.093236e-05,0.0002370398,1,1
-0.0001323071,0.0002104611,1,1
-0.0001757406,0.0001351007,1,1
-0.0002068571,4.45062e-05,1,1
-0.0002201465,-3.360929e-05,1,1
-0.0002185258,-8.336335e-05,1,1
-0.0002057227,-9.373552e-05,1,1
-0.0001818991,-5.791909e-05,1,1
-0.0001455964,1.679302e-05,1,1
-0.0001007043,0.000105929,1,1
-5.64605e-05,0.0001752929,1,1
-2.09682e-05,0.0002039785,1,1
8.365628e-06,0.0001950649,1,1
4.207521e-05,0.0001641104,1,1
9.442231e-05,0.0001255389,1,1
0.0001723757,9.26396e-05,1,1
0.0002704253,7.367795e-05,1,1
0.0003744712,7.076078e-05,1,1
0.0004626348,7.756752e-05,1,1
0.0005086614,8.729144e-05,1,1
0.0004965065,9.652917e-05,1,1
0.0004329769,0.0001069013,1,1
0.000349027,0.0001245665,1,1
0.0002785285,0.0001577899,1,1
0.0002448189,0.0002039785,1,1
0.0002513016,0.0002477361,1,1
0.0002885766,0.0002790148,1,1
0.0003449753,0.0002960316,1,1
0.0004065602,0.000299597,1,1
0.0004571246,0.0002884145,1,1
0.0004884033,0.0002645909,1,1
0.0005065545,0.0002342847,1,1
0.0005281092,0.0002081922,1,1
0.0005752703,0.0001897167,1,1
0.0006550064,0.000178048,1,1
0.0007464114,0.0001722137,1,1
0.000814803,0.0001726999,1,1
0.0008331164,0.0001796687,1,1
0.0007903311,0.0001864754,1,1
0.0006947125,0.0001850168,1,1
0.0005608465,0.0001715654,1,1
0.000401212,0.0001462832,1,1
0.0002315296,0.0001122495,1,1
7.30297e-05,8.064677e-05,1,1
-5.678463e-05,6.346784e-05,1,1
-0.0001499722,6.330578e-05,1,1
-0.0002151224,6.78436e-05,1,1
-0.0002626076,6.654708e-05,1,1
-0.0003057169,5.779555e-05,1,1
-0.0003543365,4.855783e-05,1,1
-0.0004144627,4.045456e-05,1,1
-0.0004883645,2.457216e-05,1,1
-0.0005702075,-4.113403e-06,1,1
-0.0006525366,-3.992984e-05,1,1
-0.0007313004,-7.55842e-05,1,1
-0.0008068228,-0.0001058904,1,1
-0.0008724593,-0.0001306864,1,1
-0.0009201065,-0.0001541859,1,1
-0.0009403646,-0.000174282,1,1
-0.0009317751,-0.0001908126,1,1
-0.0009047102,-0.0002028055,1,1
-0.0008755385,-0.0002049123,1,1
-0.0008458805,-0.000191623,1,1
-0.0008133054,-0.0001621271,1,1
-0.0007794338,-0.0001206384,1,1
-0.0007515585,-7.493595e-05,1,1
-0.0007295177,-3.976777e-05,1,1
-0.0007082871,-2.647842e-05,1,1
-0.0006786292,-3.830919e-05,1,1
-0.0006351956,-6.877746e-05,1,1
-0.000573935,-0.0001045939,1,1
-0.000494523,-0.0001314967,1,1
-0.0003917736,-0.0001417068,1,1
-0.0002564491,-0.0001378173,1,1
-8.968389e-05,-0.0001253383,1,1
8.858796e-05,-0.0001125351,1,1
0.000252274,-0.0001057284,1,1
0.000383871,-0.0001068628,1,1
0.0004827309,-0.0001133454,1,1
0.0005503122,-0.0001175591,1,1
0.0005927734,-0.0001151281,1,1
0.0006200004,-0.0001028112,1,1
0.000646417,-8.384954e-05,1,1
0.0006854748,-6.342931e-05,1,1
0.0007467355,-4.85193e-05,1,1
0.0008339267,-4.219875e-05,1,1
0.0009394314,-4.608832e-05,1,1
0.001026136,-6.213279e-05,1,1
0.001047205,-8.530812e-05,1,1
0.0009750858,-0.0001076731,1,1
0.0008109135,-0.0001211246,1,1
0.0005762426,-0.0001216107,1,1
0.0003107795,-0.0001152902,1,1
6.606088e-05,-0.0001101041,1,1
-0.0001096179,-0.0001157764,1,1
-0.0001947022,-0.0001308485,1,1
-0.0001968091,-0.0001402483,1,1
-0.0001475412,-0.000117235,1,1
-8.676672e-05,-4.819517e-05,1,1
-3.928157e-05,5.698522e-05,1,1
-8.327101e-06,0.0001736723,1,1
7.23117e-06,0.0002791768,1,1
2.04508e-06,0.000356644,1,1
-3.296103e-05,0.0003963501,1,1
-0.0001070249,0.0003981328,1,1
-0.0002088019,0.0003756057,1,1
-0.0003128478,0.0003534027,1,1
-0.0003984183,0.0003474063,1,1
-0.0004544929,0.0003534027,1,1
-0.0004776682,0.0003499994,1,1
-0.0004713477,0.0003200173,1,1
-0.0004420138,0.0002642668,1,1
-0.0003974459,0.0001971717,1,1
-0.000342992,0.0001351007,1,1
-0.0002789762,9.16672e-05,1,1
-0.0002024813,6.946425e-05,1,1
-0.0001114006,6.103686e-05,1,1
-7.192643e-06,5.601284e-05,1,1
9.993253e-05,5.163707e-05,1,1
0.0001968476,5.115087e-05,1,1
0.0002793389,5.212327e-05,1,1
0.0003462718,5.179914e-05,1,1
0.0003945674,5.066468e-05,1,1
0.0004128807,4.72613e-05,1,1
0.0003942432,4.175109e-05,1,1
0.0003315239,3.769945e-05,1,1
0.0002308813,3.850978e-05,1,1
0.0001090082,4.385793e-05,1,1
-1.724069e-05,5.066468e-05,1,1
-0.0001379794,5.471631e-05,1,1
-0.0002473734,5.034055e-05,1,1
-0.0003337542,3.672706e-05,1,1
-0.0003804291,1.193106e-05,1,1
-0.0003734602,-2.46957e-05,1,1
-0.0003199787,-6.748094e-05,1,1
-0.0002436459,-0.0001079973,1,1
-0.0001797922,-0.0001408965,1,1
-0.0001556445,-0.0001598582,1,1
-0.0001780095,-0.0001673132,1,1
-0.0002345703,-0.0001708786,1,1
-0.0003029619,-0.0001763888,1,1
-0.0003684362,-0.0001820611,1,1
-0.0004318037,-0.0001794681,1,1
-0.000519481,-0.0001621271,1,1
-0.0006601537,-0.0001357104,1,1
-0.0008554424,-0.0001191798,1,1
-0.001068234,-0.0001235555,1,1
-0.001245534,-0.0001473791,1,1
-0.0013418,-0.000179306,1,1
-0.00134099,-0.0002006986,1,1
-0.001253151,-0.0001932436,1,1
-0.001107292,-0.0001567789,1,1
-0.0009329096,-0.0001067007,1,1
-0.000760148,-6.48879e-05,1,1
-0.0006044033,-4.268495e-05,1,1
-0.0004663236,-4.155049e-05,1,1
-0.0003379679,-5.516398e-05,1,1
-0.0002075054,-7.120844e-05,1,1
-6.748094e-05,-8.44978e-05,1,1
8.907416e-05,-9.179074e-05,1,1
0.0002639427,-8.82253e-05,1,1
0.0004474007,-7.039812e-05,1,1
0.0006229175,-3.992984e-05,1,1
0.0007749349,-6.220252e-06,1,1
0.0009032908,1.938607e-05,1,1
0.00101625,2.781346e-05,1,1
0.001118676,2.165498e-05,1,1
0.001203112,3.989864e-06,1,1
0.001250597,-1.983374e-05,1,1
0.0012587,-3.928157e-05,1,1
0.001245573,-3.620233e-05,1,1
0.001232932,2.04508e-06,1,1
0.001224181,7.011252e-05,1,1
0.001209432,0.0001425557,1,1
0.001178964,0.0001914995,1,1
0.001146551,0.0002062474,1,1
0.001146065,0.0001961994,1,1
0.001208622,0.0001867996,1,1
0.001340706,0.0001916615,1,1
0.001515412,0.0002122438,1,1
0.001680395,0.0002372019,1,1
0.001768721,0.0002508154,1,1
0.00171767,0.0002440086,1,1
0.00150342,0.0002193747,1,1
0.001162109,0.0001876099,1,1
0.0007772038,0.000160545,1,1
0.000435894,0.0001472556,1,1
0.0001866375,0.0001479039,1,1
2.943412e-05,0.0001564933,1,1
-6.39155e-05,0.000162976,1,1
-0.0001282554,0.0001621656,1,1
-0.0001853024,0.0001519555,1,1
-0.0002378116,0.0001370455,1,1
-0.0002838381,0.0001247285,1,1
-0.0003266234,0.0001177597,1,1
-0.0003734602,0.000110953,1,1
-0.0004334244,0.0001000946,1,1
-0.0005076503,8.923623e-05,1,1
-0.0005870623,8.46984e-05,1,1
-0.0006591813,8.583286e-05,1,1
-0.0007137973,8.761557e-05,1,1
-0.0007434553,8.291568e-05,1,1
-0.0007460483,6.687121e-05,1,1
-0.0007261143,3.899597e-05,1,1
-0.0006945116,7.485573e-07,1,1
-0.0006664743,-4.673658e-05,1,1
-0.0006536711,-0.0001039456,1,1
-0.0006632329,-0.0001690959,1,1
-0.0006940254,-0.0002323013,1,1
-0.0007356761,-0.0002804347,1,1
-0.000772465,-0.0003084721,1,1
-0.0007857543,-0.0003185201,1,1
-0.0007635514,-0.0003147926,1,1
-0.0007048837,-0.0002997205,1,1
-0.0006266062,-0.0002630937,1,1
-0.0005551354,-0.0001906506,1,1
-0.0005110537,-8.206682e-05,1,1
-0.0005023021,4.969229e-05,1,1
-0.0005238568,0.0001882582,1,1
-0.0005645352,0.0003145071,1,1
-0.0006076446,0.0004013741,1,1
-0.0006332509,0.0004274666,1,1
-0.0006228787,0.0003853296,1,1
-0.0005734488,0.0002906835,1,1
-0.0004988988,0.0001707551,1,1
-0.0004222419,5.99024e-05,1,1
-0.0003564434,-2.161646e-05,1,1
-0.0003005308,-6.780507e-05,1,1
-0.0002395943,-8.433573e-05,1,1
-0.0001572651,-8.611845e-05,1,1
-5.159854e-05,-8.903562e-05,1,1
6.995045e-05,-9.697683e-05,1,1
0.0001911753,-0.000104756,1,1
0.0002939248,-0.0001063766,1,1
0.0003762539,-0.0001010285,1,1
0.0004427008,-9.276313e-05,1,1
0.0004963444,-8.854943e-05,1,1
0.0005331332,-8.871149e-05,1,1
0.0005486915,-9.486997e-05,1,1
0.0005412365,-0.0001092938,1,1
0.0005219508,-0.0001311726,1,1
0.0005037994,-0.0001562927,1,1
0.0004922928,-0.000176875,1,1
0.0004862963,-0.0001882196,1,1
0.0004760863,-0.0001872472,1,1
0.0004486972,-0.0001741199,1,1
0.0003971604,-0.0001535376,1,1
0.0003205035,-0.0001339277,1,1
0.0002253711,-0.0001177212,1,1
0.0001222976,-9.373552e-05,1,1
2.732727e-05,-4.835724e-05,1,1
-4.219875e-05,2.34377e-05,1,1
-8.109443e-05,0.0001128978,1,1
-9.130454e-05,0.0001957132,1,1
-7.817725e-05,0.0002470879,1,1
-5.013995e-05,0.0002555152,1,1
-2.064406e-05,0.0002239125,1,1
-8.165035e-06,0.0001660552,1,1
-2.242678e-05,9.896015e-05,1,1
-5.759496e-05,4.304761e-05,1,1
-9.033215e-05,1.1769e-05,1,1
-9.454585e-05,5.448452e-06,1,1
-5.710876e-05,1.144487e-05,1,1
2.214118e-05,2.149292e-05,1,1
0.0001312112,3.040651e-05,1,1
0.0002443328,3.688912e-05,1,1
0.0003222862,4.288554e-05,1,1
0.0003412479,5.52025e-05,1,1
0.0003051073,8.956036e-05,1,1
0.0002422259,0.0001551968,1,1
0.0001858272,0.0002440086,1,1
0.0001584381,0.0003263378,1,1
0.0001644345,0.0003676645,1,1
0.0001840444,0.0003487029,1,1
0.0001902029,0.00027707,1,1
0.0001673517,0.0001817755,1,1
0.0001192183,9.652917e-05,1,1
6.444023e-05,4.013043e-05,1,1
2.214118e-05,1.517237e-05,1,1
1.234753e-06,1.679302e-05,1,1
-5.479652e-07,2.943412e-05,1,1
3.179537e-06,3.834771e-05,1,1
-4.113403e-06,3.332369e-05,1,1
-3.21507e-05,1.403791e-05,1,1
-8.02841e-05,-1.497178e-05,1,1
-0.0001365208,-4.495386e-05,1,1
-0.0001869231,-6.44017e-05,1,1
-0.0002224154,-6.326724e-05,1,1
-0.0002360289,-3.198864e-05,1,1
-0.0002254946,3.283749e-05,1,1
-0.0001940539,0.0001120874,1,1
-0.000151917,0.0001743205,1,1
-0.0001165867,0.000192958,1,1
-0.0001024871,0.0001645966,1,1
-0.0001157764,0.0001025256,1,1
-0.0001509446,2.959619e-05,1,1
-0.0001977815,-3.360929e-05,1,1
-0.0002423494,-7.65566e-05,1,1
-0.0002715212,-0.0001003802,1,1
-0.0002746004,-0.0001131834,1,1
-0.0002519113,-0.000119828,1,1
-0.0002062088,-0.000127121,1,1
-0.0001462447,-0.0001404103,1,1
-8.579432e-05,-0.0001559686,1,1
-4.268495e-05,-0.0001695821,1,1
-2.647842e-05,-0.0001770371,1,1
-3.344723e-05,-0.0001788198,1,1
-4.884343e-05,-0.0001771992,1,1
-5.937768e-05,-0.0001755785,1,1
-5.937768e-05,-0.0001741199,1,1
-4.868137e-05,-0.0001733096,1,1
-2.647842e-05,-0.0001759026,1,1
5.610517e-06,-0.0001838438,1,1
4.223728e-05,-0.0001959987,1,1
7.951231e-05,-0.0002058847,1,1
0.0001187321,-0.0002070192,1,1
0.0001652449,-0.0001969711,1,1
0.0002187264,-0.0001741199,1,1
0.0002705873,-0.000137007,1,1
0.0003106175,-8.725291e-05,1,1
0.0003302274,-3.036798e-05,1,1
0.0003284447,2.246531e-05,1,1
0.0003109416,6.800567e-05,1,1
0.0002863077,0.000113384,1,1
0.0002561635,0.0001621656,1,1
0.000217754,0.0002072198,1,1
0.0001735102,0.0002307193,1,1
0.0001344524,0.0002211574,1,1
0.0001125736,0.0001795066,1,1
0.0001086841,0.0001182459,1,1
0.0001161391,5.649903e-05,1,1
0.0001247285,1.047248e-05,1,1
0.0001266733,-1.578211e-05,1,1
0.0001216493,-2.566809e-05,1,1
0.0001086841,-2.453363e-05,1,1
8.972242e-05,-1.432352e-05,1,1
7.351589e-05,4.80019e-06,1,1
6.768154e-05,3.056858e-05,1,1
7.691926e-05,5.633696e-05,1,1
0.0001049566,7.837785e-05,1,1
0.0001453108,9.701536e-05,1,1
0.0001892305,0.0001125736,1,1
0.0002320158,0.0001231079,1,1
0.0002767458,0.0001291043,1,1
0.0003235827,0.0001349386,1,1
0.0003589129,0.0001448246,1,1
0.0003658818,0.0001560072,1,1
0.0003271482,0.0001671896,1,1
0.0002417397,0.0001731861,1,1
0.0001273216,0.0001709172,1,1
1.501031e-05,0.0001592484,1,1
-6.375344e-05,0.0001396385,1,1
-9.308726e-05,0.0001145184,1,1
-8.352541e-05,8.648112e-05,1,1
-5.937768e-05,6.103686e-05,1,1
-4.511593e-05,3.818565e-05,1,1
-5.370539e-05,1.630683e-05,1,1
-8.239095e-05,-1.034161e-06,1,1
-0.0001135075,-1.043395e-05,1,1
-0.0001337657,-1.059602e-05,1,1
-0.0001412206,-8.327101e-06,1,1
-0.0001436516,-1.237873e-05,1,1
-0.0001485136,-2.080613e-05,1,1
-0.0001601823,-2.177852e-05,1,1
-0.0001812508,-3.789272e-06,1,1
-0.0002133397,4.564065e-05,1,1
-0.0002496423,0.0001257009,1,1
-0.0002750866,0.0002164575,1,1
-0.0002663351,0.0002890628,1,1
-0.0002062088,0.0003245551,1,1
-9.811128e-05,0.0003198552,1,1
3.915804e-05,0.0002885766,1,1
0.0001816135,0.0002496809,1,1
0.000309483,0.0002098128,1,1
0.0004148255,0.0001686482,1,1
0.0005067165,0.0001239182,1,1
0.0005835356,7.513654e-05,1,1
0.0006355586,2.376183e-05,1,1
0.0006498204,-3.036798e-05,1,1
0.0006164349,-8.109443e-05,1,1
0.000537509,-0.0001151281,1,1
0.0004251977,-0.0001263107,1,1
0.0002924662,-0.0001188556,1,1
0.0001537382,-0.0001032974,1,1
2.359977e-05,-9.389759e-05,1,1
-9.260107e-05,-9.859748e-05,1,1
-0.0002005366,-0.0001146419,1,1
-0.0003105789,-0.000134576,1,1
-0.0004238625,-0.0001511067,1,1
-0.0005233706,-0.000159372,1,1
-0.0005904656,-0.0001561307,1,1
-0.0006199615,-0.0001425172,1,1
-0.0006244993,-0.0001237176,1,1
-0.0006241752,-0.0001075111,1,1
-0.0006358439,-9.956988e-05,1,1
-0.0006716604,-9.989401e-05,1,1
-0.0007369727,-0.0001042698,1,1
-0.0008241638,-0.0001081593,1,1
-0.0009197823,-0.0001091317,1,1
-0.001002598,-0.0001071869,1,1
-0.001055917,-0.0001060525,1,1
-0.001066289,-0.0001075111,1,1
-0.001029176,-0.0001136696,1,1
-0.0009452265,-0.0001204763,1,1
-0.0008186536,-0.0001267968,1,1
-0.00065594,-0.0001300382,1,1
-0.0004635685,-0.0001287416,1,1
-0.0002504527,-0.0001240417,1,1
-2.907146e-05,-0.0001209625,1,1
0.0001801549,-0.0001211246,1,1
0.0003569682,-0.000122097,1,1
0.0004872688,-0.0001186936,1,1
0.000567005,-0.0001016767,1,1
0.0006063868,-6.650855e-05,1,1
0.0006247002,-9.947754e-06,1,1
0.0006456067,5.682316e-05,1,1
0.0006926056,0.0001193804,1,1
0.0007835244,0.0001668655,1,1
0.0009217662,0.0001918236,1,1
0.001092421,0.0001921477,1,1
0.001274421,0.0001731861,1,1
0.001440862,0.0001440143,1,1
0.001561115,0.0001158149,1,1
0.001609573,0.0001012291,1,1
0.001566139,0.0001054428,1,1
0.001423035,0.0001253768,1,1
0.001191443,0.0001503349,1,1
0.0009057217,0.0001694586,1,1
0.0006112488,0.0001725378,1,1
0.0003454615,0.0001573037,1,1
0.000120839,0.0001305629,1,1
-6.748094e-05,0.0001028497,1,1
-0.0002253326,7.999851e-05,1,1
-0.0003510952,6.379197e-05,1,1
-0.000442338,5.325772e-05,1,1
-0.0004938748,4.35338e-05,1,1
-0.0005128364,3.073064e-05,1,1
-0.0005147812,1.517237e-05,1,1
-0.000511864,1.565857e-05,1,1
-0.0005121881,5.666109e-05,1,1
-0.0005167259,0.0001423936,1,1
-0.0005222362,0.0002467637,1,1
-0.0005256396,0.0003303894,1,1
-0.0005279084,0.0003608578,1,1
-0.0005353634,0.0003281205,1,1
-0.0005543251,0.0002491947,1,1
-0.0005833348,0.0001571416,1,1
-0.0006152617,8.064677e-05,1,1
-0.000643461,3.543054e-05,1,1
-0.0006646916,2.084466e-05,1,1
-0.0006753879,2.181705e-05,1,1
-0.000675712,1.841368e-05,1,1
-0.0006672846,5.86492e-07,1,1
-0.0006561021,-3.101625e-05,1,1
-0.0006411921,-6.342931e-05,1,1
-0.0006194753,-7.736692e-05,1,1
-0.0005851175,-6.44017e-05,1,1
-0.0005264499,-2.858527e-05,1,1
-0.0004429862,1.436204e-05,1,1
-0.0003536883,4.418206e-05,1,1
-0.0002820554,4.758544e-05,1,1
-0.0002452666,2.359977e-05,1,1
-0.0002425115,-1.448558e-05,1,1
-0.0002569353,-5.32192e-05,1,1
-0.0002635799,-8.514606e-05,1,1
-0.0002459149,-0.0001081593,1,1
-0.0002026434,-0.0001243659,1,1
-0.0001478653,-0.0001360346,1,1
-9.843541e-05,-0.0001475412,1,1
-6.310517e-05,-0.0001592099,1,1
-3.717473e-05,-0.0001676373,1,1
-9.947754e-06,-0.00016942,1,1
2.084466e-05,-0.0001634236,1,1
4.920609e-05,-0.0001514308,1,1
6.427817e-05,-0.0001350622,1,1
6.233338e-05,-0.0001186936,1,1
4.888196e-05,-0.0001057284,1,1
3.850978e-05,-9.66527e-05,1,1
4.742337e-05,-9.146661e-05,1,1
7.772959e-05,-9.211487e-05,1,1
0.0001172735,-9.811128e-05,1,1
0.0001522796,-0.0001083214,1,1
0.0001678379,-0.0001162626,1,1
0.0001597346,-0.000114804,1,1
0.0001300767,-0.0001028112,1,1
9.26396e-05,-8.563225e-05,1,1
6.249545e-05,-6.699475e-05,1,1
4.742337e-05,-4.706071e-05,1,1
4.758544e-05,-2.501983e-05,1,1
5.811968e-05,-6.382317e-06,1,1
7.173317e-05,3.341602e-06,1,1
7.967438e-05,5.772582e-06,1,1
8.259155e-05,4.313994e-06,1,1
9.409818e-05,5.286387e-06,1,1
0.0001291043,1.014835e-05,1,1
0.0002018716,1.873781e-05,1,1
0.0003166139,2.829966e-05,1,1
0.0004624728,2.992031e-05,1,1
0.0006224313,1.776542e-05,1,1
0.000772828,-7.030578e-06,1,1
0.0008976185,-4.05781e-05,1,1
0.0009980991,-7.526008e-05,1,1
0.001090638,-0.0001044318,1,1
0.001194685,-0.0001224211,1,1
0.001319151,-0.0001225832,1,1
0.00145091,-0.0001018388,1,1
0.001557712,-6.748094e-05,1,1
0.001605197,-2.826114e-05,1,1
0.001571325,1.355172e-05,1,1
0.001456583,6.087479e-05,1,1
0.001280417,0.000123432,1,1
0.001075728,0.0002075439,1,1
0.00088676,0.0003125623,1,1
0.0007535422,0.0004274666,1,1
0.0006961711,0.0005350781,1,1
0.0006898505,0.0006070351,1,1
0.0006804507,0.0006178935,1,1
0.0006120591,0.0005614947,1,1
0.0004545315,0.0004563143,1,1
0.0002219677,0.0003358997,1,1
-3.279896e-05,0.0002310434,1,1
-0.0002485079,0.000158114,1,1
-0.0003873979,0.0001171115,1,1
-0.0004502792,9.620504e-05,1,1
-0.0004739407,8.323981e-05,1,1
-0.0004985746,7.465034e-05,1,1
-0.0005371462,6.946425e-05,1,1
-0.0005831727,6.78436e-05,1,1
-0.0006267683,6.427817e-05,1,1
-0.00067085,5.52025e-05,1,1
-0.0007214144,3.850978e-05,1,1
-0.0007782993,1.338965e-05,1,1
-0.0008337257,-1.707863e-05,1,1
-0.0008711627,-4.219875e-05,1,1
-0.0008787798,-5.386745e-05,1,1
-0.0008641939,-5.257093e-05,1,1
-0.0008449082,-4.414354e-05,1,1
-0.0008335636,-3.668853e-05,1,1
-0.0008251361,-3.393342e-05,1,1
-0.0008066607,-3.668853e-05,1,1
-0.0007669547,-4.722278e-05,1,1
-0.0007009942,-6.667062e-05,1,1
-0.0006142893,-9.29252e-05,1,1
-0.0005185087,-0.0001225832,1,1
-0.0004233763,-0.0001511067,1,1
-0.0003297026,-0.0001739578,1,1
-0.0002271153,-0.0001849783,1,1
-0.0001089697,-0.0001833576,1,1
1.355172e-05,-0.0001733096,1,1
0.0001137081,-0.000159372,1,1
0.0001608691,-0.0001493239,1,1
0.0001438522,-0.0001473791,1,1
7.076078e-05,-0.000152079,1,1
-3.101625e-05,-0.0001588858,1,1
-0.000122259,-0.0001648822,1,1
-0.0001600202,-0.0001716889,1,1
-0.0001267968,-0.0001784957,1,1
-4.317115e-05,-0.0001823853,1,1
4.77475e-05,-0.0001815749,1,1
0.0001070634,-0.0001749302,1,1
0.0001101427,-0.0001645581,1,1
5.341979e-05,-0.0001507825,1,1
-4.673658e-05,-0.0001349001,1,1
-0.0001551583,-0.0001173971,1,1
-0.000238946,-0.0001034594,1,1
-0.0002833519,-9.568031e-05,1,1
-0.0002934,-9.568031e-05,1,1
-0.0002852967,-0.0001007043,1,1
-0.0002757348,-0.0001034594,1,1
-0.000268604,-9.681477e-05,1,1
-0.0002635799,-7.282909e-05,1,1
-0.0002595283,-3.26369e-05,1,1
-0.0002543422,9.986281e-06,1,1
-0.0002449425,4.191315e-05,1,1
-0.0002357047,5.828175e-05,1,1
-0.0002282497,5.99024e-05,1,1
-0.0002227395,4.985435e-05,1,1
-0.000219012,3.332369e-05,1,1
-0.0002117191,1.857574e-05,1,1
-0.0001937298,1.403791e-05,1,1
-0.0001627754,2.424803e-05,1,1
-0.0001195039,5.1475e-05,1,1
-7.363943e-05,9.085688e-05,1,1
-3.522994e-05,0.0001299146,1,1
-8.813297e-06,0.0001584381,1,1
7.879432e-06,0.000175455,1,1
2.116879e-05,0.0001817755,1,1
3.640293e-05,0.0001825859,1,1
4.985435e-05,0.0001832341,1,1
5.666109e-05,0.0001918236,1,1
5.228533e-05,0.0002143507,1,1
3.526847e-05,0.0002521119,1,1
1.274139e-05,0.0002918179,1,1
-3.951337e-06,0.0003182346,1,1
-5.734056e-06,0.0003232586,1,1
1.22552e-05,0.0003062417,1,1
4.709924e-05,0.0002696149,1,1
8.84259e-05,0.0002237505,1,1
0.0001222976,0.000180479,1,1
0.0001352628,0.0001472556,1,1
0.0001263492,0.000128456,1,1
0.0001041462,0.0001218114,1,1
8.437427e-05,0.0001185701,1,1
7.643307e-05,0.0001073875,1,1
7.805372e-05,8.79397e-05,1,1
7.724339e-05,7.254349e-05,1,1
6.573675e-05,7.724339e-05,1,1
4.807163e-05,0.0001046324,1,1
3.121684e-05,0.0001363972,1,1
1.841368e-05,0.0001522796,1,1
6.096713e-06,0.0001393144,1,1
-5.734056e-06,9.944634e-05,1,1
-1.140634e-05,4.677511e-05,1,1
-4.599598e-06,-4.437533e-06,1,1
1.97102e-05,-4.868137e-05,1,1
5.860588e-05,-8.498399e-05,1,1
0.0001002567,-0.0001156143,1,1
0.000130725,-0.0001413827,1,1
0.0001470936,-0.0001567789,1,1
0.0001608691,-0.0001498101,1,1
0.0001856651,-0.0001156143,1,1
0.0002307193,-6.375344e-05,1,1
0.0002877662,-1.237873e-05,1,1
0.0003412479,2.376183e-05,1,1
0.0003780367,4.013043e-05,1,1
0.0003971604,3.818565e-05,1,1
0.0004101256,2.570662e-05,1,1
0.0004206599,7.555301e-06,1,1
0.0004224426,-1.497178e-05,1,1
0.000406074,-4.203669e-05,1,1
0.0003678266,-7.039812e-05,1,1
0.0003209897,-9.535618e-05,1,1
0.0002783665,-0.0001178833,1,1
0.0002508154,-0.0001423551,1,1
0.0002409294,-0.0001723372,1,1
0.0002402811,-0.0002071812,1,1
0.0002352571,-0.0002407288,1,1
0.0002185644,-0.0002632558,1,1
0.0001869616,-0.0002699005,1,1
0.0001428799,-0.0002617972,1,1
9.442231e-05,-0.0002426735,1,1
5.293359e-05,-0.0002204706,1,1
2.992031e-05,-0.0001997262,1,1
3.283749e-05,-0.0001806025,1,1
6.330578e-05,-0.0001571031,1,1
0.0001093323,-0.0001112386,1,1
0.000158114,-2.761287e-05,1,1
0.0002059233,8.826383e-05,1,1
0.0002571359,0.0002133783,1,1
0.0003114278,0.0003172622,1,1
0.0003621543,0.0003715541,1,1
0.0003974845,0.0003597233,1,1
0.0004096394,0.0002929524,1,1
0.0003958639,0.0002017096,1,1
0.0003692851,0.0001192183,1,1
0.0003420582,6.168512e-05,1,1
0.0003159656,3.721326e-05,1,1
0.0002829043,4.191315e-05,1,1
0.0002373639,6.589881e-05,1,1
0.0001856651,9.863601e-05,1,1
0.0001443384,0.000128294,1,1
0.0001281319,0.0001477418,1,1
0.0001342904,0.0001553589,1,1
0.0001420695,0.0001545486,1,1
0.0001313732,0.0001501728,1,1
9.701536e-05,0.0001487142,1,1
4.35338e-05,0.0001508211,1,1
-9.299493e-06,0.000153252,1,1
-4.641245e-05,0.0001539003,1,1
-6.650855e-05,0.0001503349,1,1
-7.120844e-05,0.0001410971,1,1
-6.342931e-05,0.0001316974,1,1
-5.046408e-05,0.0001265113,1,1
-4.122636e-05,0.0001276457,1,1
-4.85193e-05,0.0001297526,1,1
-6.958779e-05,0.0001281319,1,1
-8.757704e-05,0.0001200286,1,1
-9.179074e-05,0.0001094944,1,1
-8.336335e-05,0.0001004187,1,1
-7.526008e-05,9.182927e-05,1,1
-7.55842e-05,8.291568e-05,1,1
-8.352541e-05,7.367795e-05,1,1
-9.486997e-05,6.541262e-05,1,1
-0.0001088076,5.471631e-05,1,1
-0.0001289037,3.818565e-05,1,1
-0.0001583996,1.54965e-05,1,1
-0.0001935677,-7.516774e-06,1,1
-0.0002282497,-2.210265e-05,1,1
-0.0002558008,-2.372331e-05,1,1
-0.0002758969,-1.383732e-05,1,1
-0.000293562,-7.100305e-07,1,1
-0.0003246786,6.90704e-06,1,1
-0.0003875599,3.017472e-06,1,1
-0.0004875542,-1.432352e-05,1,1
-0.0006121824,-4.05781e-05,1,1
-0.0007334072,-7.363943e-05,1,1
-0.0008235155,-0.000107349,1,1
-0.0008675972,-0.000142031,1,1
-0.0008692179,-0.0001750923,1,1
-0.0008364808,-0.0002044261,1,1
-0.000777651,-0.0002251705,1,1
-0.0007042355,-0.0002361909,1,1
-0.0006283889,-0.0002344082,1,1
-0.0005570802,-0.0002209568,1,1
-0.0004898231,-0.0002010227,1,1
-0.0004167317,-0.0001823853,1,1
-0.0003327818,-0.0001682856,1,1
-0.0002352185,-0.0001554824,1,1
-0.000127121,-0.0001368449,1,1
-2.0482e-05,-0.0001131834,1,1
7.140904e-05,-9.130454e-05,1,1
0.0001396385,-7.979791e-05,1,1
0.0001777239,-8.158062e-05,1,1
0.0001913374,-9.438378e-05,1,1
0.0001908512,-0.0001104282,1,1
0.0001874478,-0.0001229073,1,1
0.0001911753,-0.00012469,1,1
0.0002081922,-0.0001180453,1,1
0.0002420638,-0.0001135075,1,1
0.0002905214,-0.0001217728,1,1
0.0003454615,-0.0001400862,1,1
0.0004047775,-0.0001577513,1,1
0.000482893,-0.0001653684,1,1
0.0005942319,-0.0001596961,1,1
0.0007399287,-0.0001391138,1,1
0.0009034528,-0.0001088076,1,1
0.001051581,-7.363943e-05,1,1
0.001145093,-4.122636e-05,1,1
0.001159678,-1.837515e-05,1,1
0.001088532,1.002961e-07,1,1
0.0009504518,2.586868e-05,1,1
0.0007763935,6.800567e-05,1,1
0.0006041179,0.0001224596,1,1
0.0004561522,0.0001769136,1,1
0.0003418961,0.0002196988,1,1
0.000254867,0.0002457913,1,1
0.0001777239,0.0002558394,1,1
9.21534e-05,0.0002517878,1,1
-9.137427e-06,0.0002323399,1,1
-0.0001238797,0.0002000889,1,1
-0.0002353806,0.0001534141,1,1
-0.0003180339,9.831188e-05,1,1
-0.0003559572,4.855783e-05,1,1
-0.000350609,1.889987e-05,1,1
-0.0003104168,1.857574e-05,1,1
-0.0002496423,4.385793e-05,1,1
-0.0001861127,8.129502e-05,1,1
-0.0001423551,0.0001161391,1,1
-0.0001310105,0.0001363972,1,1
-0.0001512687,0.0001375317,1,1
-0.0001823853,0.0001292664,1,1
-0.0002023193,0.0001346145,1,1
-0.0002002124,0.0001736723,1,1
-0.0001853024,0.0002488706,1,1
-0.0001720131,0.0003376824,1,1
-0.00016942,0.0004016982,1,1
-0.0001828714,0.0004170944,1,1
-0.0002083157,0.0003820883,1,1
-0.0002392702,0.0003154794,1,1
-0.000273628,0.0002389846,1,1
-0.0003118754,0.0001692965,1,1
-0.000350609,0.0001231079,1,1
-0.0003895047,0.0001114392,1,1
-0.0004287245,0.0001310491,1,1
-0.0004642168,0.0001668655,1,1
-0.0004890127,0.0001976579,1,1
-0.0005045711,0.0002031682,1,1
-0.0005204534,0.0001749688,1,1
-0.0005411978,0.0001237561,1,1
-0.0005634008,6.897806e-05,1,1
-0.0005786349,2.716521e-05,1,1
-0.0005749074,4.151929e-06,1,1
-0.0005480045,-2.492749e-06,1,1
-0.0005018159,1.396819e-06,1,1
-0.0004471999,8.203562e-06,1,1
-0.0003945287,1.193106e-05,1,1
-0.0003483401,8.527692e-06,1,1
-0.0003131719,-1.682422e-06,1,1
-0.0002891863,-1.853722e-05,1,1
-0.0002692523,-4.495386e-05,1,1
-0.0002491561,-8.287715e-05,1,1
-0.0002340841,-0.0001303623,1,1
-0.0002186879,-0.0001799543,1,1
-0.00018433,-0.0002248464,1,1
-0.0001000561,-0.0002621213,1,1
5.341979e-05,-0.0002914552,1,1
0.0002657254,-0.0003175477,1,1
0.0005020167,-0.0003528779,1,1
0.0007178878,-0.0004063595,1,1
0.0008669881,-0.0004676201,1,1
0.0009178767,-0.0005024642,1,1
0.0008684467,-0.0004760476,1,1
0.0007467355,-0.0003865875,1,1
0.0006021731,-0.0002577456,1,1
0.0004723587,-0.0001314967,1,1
0.000378847,-4.252288e-05,1,1
0.000324393,-8.002969e-06,1,1
0.0002942489,-2.485776e-05,1,1
0.0002628082,-5.743289e-05,1,1
0.0002119197,-5.2733e-05,1,1
0.000145797,2.100672e-05,1,1
8.550872e-05,0.0001415833,1,1
5.098881e-05,0.0002521119,1,1
5.179914e-05,0.0002997591,1,1
7.983644e-05,0.0002709115,1,1
0.0001141943,0.0001843686,1,1
0.0001354248,7.67572e-05,1,1
0.0001347766,-1.659243e-05,1,1
0.0001088461,-7.623246e-05,1,1
5.050261e-05,-0.0001018388,1,1
-4.317115e-05,-0.0001026491,1,1
-0.0001580754,-8.806324e-05,1,1
-0.0002676316,-6.586029e-05,1,1
-0.0003472056,-3.879538e-05,1,1
-0.0003807532,-1.432352e-05,1,1
-0.0003689224,-2.168618e-06,1,1
-0.0003201407,-5.085794e-06,1,1
-0.0002415391,-8.651231e-06,1,1
-0.0001327933,3.665733e-06,1,1
3.179537e-06,3.640293e-05,1,1
0.0001529279,7.90261e-05,1,1
0.0002924662,0.0001156529,1,1
0.0004002396,0.0001352628,1,1
0.0004637693,0.0001373696,1,1
0.0004775448,0.0001315353,1,1
0.0004388112,0.0001268354,1,1
0.0003569682,0.0001250527,1,1
0.0002628082,0.0001200286,1,1
0.0001996027,0.0001127357,1,1
0.0001986303,0.0001103047,1,1
0.0002619979,0.000121001,1,1
0.000361506,0.0001466074,1,1
0.0004540453,0.000177886,1,1
0.000492779,0.0002018716,1,1
0.0004514523,0.000205275,1,1
0.0003371962,0.0001814514,1,1
0.0001885823,0.0001388282,1,1
5.860588e-05,9.26396e-05,1,1
-1.821308e-05,5.730935e-05,1,1
-3.117831e-05,3.737532e-05,1,1
1.257933e-05,2.878586e-05,1,1
8.696731e-05,2.700314e-05,1,1
0.0001592484,3.040651e-05,1,1
0.0002033302,3.267542e-05,1,1
0.0002072198,2.667901e-05,1,1
0.0001788584,1.452411e-05,1,1
0.0001423936,2.855407e-06,1,1
0.0001180839,-2.330684e-06,1,1
0.0001096565,3.503668e-06,1,1
0.0001091703,2.505836e-05,1,1
0.0001049566,5.536457e-05,1,1
8.194328e-05,8.161915e-05,1,1
3.397195e-05,9.247754e-05,1,1
-2.971972e-05,8.729144e-05,1,1
-9.681477e-05,7.092284e-05,1,1
-0.0001543479,5.082674e-05,1,1
-0.0001929195,2.943412e-05,1,1
-0.0002036158,1.031041e-05,1,1
-0.0001810887,-2.978945e-06,1,1
-0.0001332795,-8.813297e-06,1,1
-7.720486e-05,-1.351319e-05,1,1
-2.46957e-05,-2.275091e-05,1,1
2.100672e-05,-3.782299e-05,1,1
5.228533e-05,-5.921561e-05,1,1
5.601284e-05,-8.320128e-05,1,1
2.554455e-05,-0.0001042698,1,1
-2.89094e-05,-0.0001201522,1,1
-9.130454e-05,-0.0001342519,1,1
-0.0001462447,-0.0001483515,1,1
-0.000176875,-0.0001616409,1,1
-0.0001739578,-0.0001708786,1,1
-0.0001467309,-0.0001726613,1,1
-0.0001021629,-0.0001676373,1,1
-3.036798e-05,-0.000159372,1,1
8.502253e-05,-0.000151917,1,1
0.0002457913,-0.0001457585,1,1
0.0004297355,-0.0001357104,1,1
0.0005874252,-0.0001191798,1,1
0.0006545202,-9.875954e-05,1,1
0.0005819149,-8.02841e-05,1,1
0.0003657197,-6.91016e-05,1,1
5.763349e-05,-6.310517e-05,1,1
-0.0002707109,-5.759496e-05,1,1
-0.0005588629,-4.80331e-05,1,1
-0.0007742477,-3.328516e-05,1,1
-0.0009069791,-1.837515e-05,1,1
-0.0009658089,-6.868513e-06,1,1
-0.0009658089,1.072688e-06,1,1
-0.0009191341,6.258778e-06,1,1
-0.0008288636,6.744974e-06,1,1
-0.0006907841,2.04508e-06,1,1
-0.0004935506,-7.840905e-06,1,1
-0.0002211189,-1.351319e-05,1,1
0.0001279698,-6.544382e-06,1,1
0.0005263265,1.533444e-05,1,1
0.0009318143,4.661304e-05,1,1
0.001298082,8.129502e-05,1,1
0.001587532,0.0001073875,1,1
0.001773259,0.0001213252,1,1
0.001846837,0.0001274836,1,1
0.00181491,0.0001300767,1,1
0.001689471,0.0001295905,1,1
0.001488672,0.0001266733,1,1
0.001233094,0.0001227837,1,1
0.0009452657,0.0001185701,1,1
0.0006441481,0.0001125736,1,1
0.0003534027,0.0001065772,1,1
9.507057e-05,0.0001025256,1,1
-0.0001086455,9.831188e-05,1,1
-0.0002489941,8.923623e-05,1,1
-0.0003295405,7.20573e-05,1,1
-0.0003640605,5.406805e-05,1,1
-0.0003685983,5.504044e-05,1,1
-0.0003583881,8.956036e-05,1,1
-0.0003528779,0.000155521,1,1
-0.0003775118,0.0002316917,1,1
-0.0004506033,0.0002923041,1,1
-0.0005702075,0.0003200173,1,1
-0.0007172007,0.0003130485,1,1
-0.0008628974,0.0002890628,1,1
-0.0009842842,0.0002713977,1,1
-0.001068072,0.0002701012,1,1
-0.001111343,0.0002782044,1,1
-0.001120905,0.0002782044,1,1
-0.001108426,0.0002563256,1,1
-0.001086223,0.0002119197,1,1
-0.001059645,0.000155683,1,1
-0.001029663,0.0001047945,1,1
-0.0009953048,7.059871e-05,1,1
-0.0009594883,5.050261e-05,1,1
-0.0009248063,4.02925e-05,1,1
-0.0008990379,3.624086e-05,1,1
-0.0008935277,3.478228e-05,1,1
-0.0009064929,3.429608e-05,1,1
-0.0009233478,3.089271e-05,1,1
-0.0009299924,1.776542e-05,1,1
-0.0009218892,-1.043395e-05,1,1
-0.0008951484,-4.965376e-05,1,1
-0.0008411807,-9.373552e-05,1,1
-0.000760148,-0.0001332795,1,1
-0.0006679329,-0.000159534,1,1
-0.0005841451,-0.0001684476,1,1
-0.0005233706,-0.0001653684,1,1
-0.0004880404,-0.0001600202,1,1
-0.0004609755,-0.000161965,1,1
-0.0004107352,-0.000176713,1,1
-0.0003143064,-0.0002003745,1,1
-0.0001733096,-0.0002243602,1,1
-1.059602e-05,-0.0002357047,1,1
0.0001516314,-0.0002169052,1,1
0.0002997591,-0.0001627754,1,1
0.0004224426,-8.417367e-05,1,1
0.0005120648,-4.437533e-06,1,1
0.0005650602,5.277153e-05,1,1
0.0005867769,7.481241e-05,1,1
0.0005947181,6.427817e-05,1,1
0.0006080075,3.948217e-05,1,1
0.0006368551,1.614476e-05,1,1
0.000678668,-1.358292e-06,1,1
0.0007180499,-1.837515e-05,1,1
0.0007389564,-4.171256e-05,1,1
0.0007321496,-7.18567e-05,1,1
0.0007000606,-0.0001021629,1,1
0.0006525755,-0.0001251762,1,1
0.0005989318,-0.000137169,1,1
0.0005496639,-0.0001379794,1,1
0.0005143337,-0.0001259865,1,1
0.0004896998,-0.0001058904,1,1
0.0004564763,-8.741498e-05,1,1
0.0003940812,-7.688073e-05,1,1
0.0003028383,-7.18567e-05,1,1
0.0002083542,-7.056019e-05,1,1
0.0001394765,-7.007399e-05,1,1
0.0001153287,-6.44017e-05,1,1
0.0001380179,-5.581224e-05,1,1
0.0001869616,-4.657452e-05,1,1
0.0002388225,-3.798505e-05,1,1
0.0002731804,-2.356124e-05,1,1
0.0002782044,9.66215e-06,1,1
0.0002558394,7.30297e-05,1,1
0.0002188885,0.0001488763,1,1
0.0001833962,0.0002091646,1,1
0.0001644345,0.0002365536,1,1
0.0001633001,0.0002297469,1,1
0.0001756171,0.0002000889,1,1
0.00019782,0.0001620036,1,1
0.0002334744,0.0001281319,1,1
0.0002819319,0.0001002567,1,1
0.000339141,7.951231e-05,1,1
0.0003929467,6.914012e-05,1,1
0.0004216323,6.816773e-05,1,1
0.0004128807,7.643307e-05,1,1
0.0003668542,9.555677e-05,1,1
0.0002947351,0.0001320215,1,1
0.0002122438,0.00018291,1,1
0.0001344524,0.0002313675,1,1
8.113296e-05,0.000259729,1,1
6.314371e-05,0.0002577842,1,1
7.513654e-05,0.0002287745,1,1
0.0001054428,0.0001843686,1,1
0.0001496866,0.0001375317,1,1
0.0002115956,0.0001013911,1,1
0.0002885766,8.064677e-05,1,1
0.0003587509,6.946425e-05,1,1
0.0003872744,5.747142e-05,1,1
0.0003488649,4.045456e-05,1,1
0.000249843,1.954813e-05,1,1
0.0001214872,-6.176923e-08,1,1
3.989864e-06,-1.643037e-05,1,1
-7.801519e-05,-3.085418e-05,1,1
-0.0001238797,-4.560212e-05,1,1
-0.0001464067,-6.423963e-05,1,1
-0.0001624512,-8.790117e-05,1,1
-0.0001770371,-0.0001104282,1,1
-0.0001885437,-0.0001243659,1,1
-0.0001979435,-0.0001245279,1,1
-0.0002055606,-0.000114804,1,1
-0.0002104225,-0.000104918,1,1
-0.0002104225,-0.0001034594,1,1
-0.0002026434,-0.0001101041,1,1
-0.0001904885,-0.0001208004,1,1
-0.0001773612,-0.0001306864,1,1
-0.0001656925,-0.0001373311,1,1
-0.0001579134,-0.0001423551,1,1
-0.0001524032,-0.0001475412,1,1
-0.0001418689,-0.0001527273,1,1
-0.0001188556,-0.000156941,1,1
-7.898758e-05,-0.0001546721,1,1
-2.583016e-05,-0.0001454344,1,1
2.457216e-05,-0.0001305243,1,1
5.649903e-05,-0.0001133454,1,1
6.022653e-05,-9.778715e-05,1,1
4.35338e-05,-8.968389e-05,1,1
1.663096e-05,-8.514606e-05,1,1
-1.383732e-05,-7.477388e-05,1,1
-4.187462e-05,-5.143648e-05,1,1
-6.051213e-05,-1.399939e-05,1,1
-5.824322e-05,3.024445e-05,1,1
-3.21507e-05,6.978839e-05,1,1
1.014835e-05,9.21534e-05,1,1
5.957827e-05,8.988449e-05,1,1
0.000105929,6.978839e-05,1,1
0.0001440143,4.45062e-05,1,1
0.0001688103,2.197911e-05,1,1
0.0001749688,6.744974e-06,1,1
0.0001610312,7.485573e-07,1,1
0.000135749,4.244267e-07,1,1
0.0001069013,3.017472e-06,1,1
7.059871e-05,4.80019e-06,1,1
2.424803e-05,-1.034161e-06,1,1
-2.874733e-05,-1.416145e-05,1,1
-8.303922e-05,-3.198864e-05,1,1
-0.0001277692,-5.2733e-05,1,1
-0.000156941,-7.623246e-05,1,1
-0.0001671511,-9.924574e-05,1,1
-0.0001551583,-0.0001112386,1,1
-0.0001253383,-0.0001060525,1,1
-9.2439e-05,-9.049421e-05,1,1
-6.278104e-05,-7.444975e-05,1,1
-3.68506e-05,-5.467778e-05,1,1
-1.286493e-05,-1.62683e-05,1,1
1.031041e-05,5.293359e-05,1,1
3.121684e-05,0.0001459591,1,1
4.72613e-05,0.0002414156,1,1
5.260946e-05,0.0003172622,1,1
4.402e-05,0.0003589129,1,1
2.829966e-05,0.0003571303,1,1
1.614476e-05,0.0003127243,1,1
1.873781e-05,0.0002438466,1,1
3.834771e-05,0.0001843686,1,1
6.849186e-05,0.000160707,1,1
9.652917e-05,0.0001741585,1,1
0.0001185701,0.0002096508,1,1
0.0001393144,0.0002478982,1,1
0.0001676758,0.0002785285,1,1
0.000200251,0.0002910076,1,1
0.0002203471,0.0002773941,1,1
0.0002078681,0.0002407673,1,1
0.0001566554,0.0001906891,1,1
7.351589e-05,0.0001401247,1,1
-1.983374e-05,9.896015e-05,1,1
-0.0001029732,6.930219e-05,1,1
-0.0001635857,4.920609e-05,1,1
-0.000199078,3.251336e-05,1,1
-0.0002188499,1.533444e-05,1,1
-0.0002366771,-4.275467e-06,1,1
-0.0002655248,-2.404744e-05,1,1
-0.0003105789,-4.268495e-05,1,1
-0.000365519,-5.678463e-05,1,1
-0.0004193247,-6.375344e-05,1,1
-0.0004608134,-6.132246e-05,1,1
-0.0004828543,-5.078821e-05,1,1
-0.0004813957,-3.620233e-05,1,1
-0.000457248,-2.339918e-05,1,1
-0.0004081422,-1.691656e-05,1,1
-0.0003316474,-2.09682e-05,1,1
-0.0002293842,-3.555408e-05,1,1
-0.0001114006,-5.257093e-05,1,1
1.209313e-05,-6.504996e-05,1,1
0.0001263492,-7.18567e-05,1,1
0.0002185644,-7.542214e-05,1,1
0.0002942489,-7.60704e-05,1,1
0.0003777126,-7.493595e-05,1,1
0.0004971547,-7.493595e-05,1,1
0.000659058,-7.882551e-05,1,1
0.0008434886,-8.222889e-05,1,1
0.001007661,-8.109443e-05,1,1
0.001103117,-7.18567e-05,1,1
0.001094528,-6.035007e-05,1,1
0.0009726548,-5.483985e-05,1,1
0.0007614834,-5.921561e-05,1,1
0.000512713,-6.877746e-05,1,1
0.00027707,-7.639453e-05,1,1
8.145709e-05,-7.995997e-05,1,1
-6.002594e-05,-7.688073e-05,1,1
-0.0001421931,-7.039812e-05,1,1
-0.0001673132,-6.521203e-05,1,1
-0.000152079,-6.229485e-05,1,1
-0.0001152902,-5.64605e-05,1,1
-6.116039e-05,-4.462973e-05,1,1
6.582909e-06,-2.453363e-05,1,1
6.914012e-05,-5.247859e-06,1,1
0.0001044704,7.879432e-06,1,1
0.0001075496,1.209313e-05,1,1
8.534666e-05,1.144487e-05,1,1
4.531652e-05,9.013889e-06,1,1
-6.706447e-06,7.879432e-06,1,1
-6.715681e-05,1.014835e-05,1,1
-0.0001282554,1.484824e-05,1,1
-0.0001822232,2.116879e-05,1,1
-0.0002199844,2.700314e-05,1,1
-0.0002353806,2.959619e-05,1,1
-0.0002253326,3.121684e-05,1,1
-0.0001888679,3.867184e-05,1,1
-0.0001282554,5.471631e-05,1,1
-4.495386e-05,7.513654e-05,1,1
5.439218e-05,9.68533e-05,1,1
0.0001602208,0.0001112771,1,1
0.0002582704,0.0001122495,1,1
0.0003328204,0.0001004187,1,1
0.0003686369,8.486046e-05,1,1
0.000356482,7.254349e-05,1,1
0.0002966799,6.881599e-05,1,1
0.0002047888,7.076078e-05,1,1
9.977047e-05,7.254349e-05,1,1
-7.100305e-07,6.670914e-05,1,1
-8.368748e-05,4.402e-05,1,1
-0.000144462,-7.100305e-07,1,1
-0.000186761,-6.148453e-05,1,1
-0.0002206326,-0.0001217728,1,1
-0.0002580697,-0.0001606685,1,1
-0.0003040963,-0.0001713648,1,1
-0.0003577399,-0.0001606685,1,1
-0.0004094387,-0.0001431655,1,1
-0.0004507654,-0.0001313347,1,1
-0.0004825302,-0.0001261486,1,1
-0.0005053814,-0.0001104282,1,1
-0.0005202913,-5.824322e-05,1,1
-0.0005269361,4.628891e-05,1,1
-0.0005321222,0.0001945787,1,1
-0.0005473563,0.0003574544,1,1
-0.0005809038,0.0004986133,1,1
-0.0006267683,0.0005835356,1,1
-0.0006651777,0.0005885597,1,1
-0.0006779809,0.0005166026,1,1
-0.0006588572,0.0003965121,1,1
-0.000616234,0.0002739907,1,1
-0.0005695592,0.0001856651,1,1
-0.0005415219,0.0001430419,1,1
-0.0005489769,0.0001352628,1,1
-0.0005901415,0.0001417454,1,1
-0.0006548056,0.0001409351,1,1
-0.000722873,0.0001231079,1,1
-0.0007813785,9.247754e-05,1,1
-0.0008257844,5.552663e-05,1,1
-0.0008543079,1.954813e-05,1,1
-0.0008620871,-8.975362e-06,1,1
-0.0008338877,-3.344723e-05,1,1
-0.0007512344,-5.548811e-05,1,1
-0.000608617,-7.639453e-05,1,1
-0.0004245108,-9.956988e-05,1,1
-0.0002306807,-0.0001276072,1,1
-5.662256e-05,-0.0001553203,1,1
8.518459e-05,-0.0001778474,1,1
0.0002057612,-0.0001971332,1,1
0.0003237448,-0.0002177155,1,1
0.0004443214,-0.0002431597,1,1
0.0005636016,-0.0002720074,1,1
0.0006731578,-0.0002968033,1,1
0.0007660213,-0.000310741,1,1
0.0008402473,-0.000310903,1,1
0.0008971323,-0.0003006929,1,1
0.0009342453,-0.0002830278,1,1
0.0009527208,-0.0002566112,1,1
0.000953207,-0.0002211189,1,1
0.0009282488,-0.0001765509,1,1
0.0008718501,-0.0001229073,1,1
0.0007940586,-5.678463e-05,1,1
0.0007091364,1.679302e-05,1,1
0.0006383138,8.502253e-05,1,1
0.0006034696,0.0001279698,1,1
0.000614166,0.0001316974,1,1
0.0006567892,0.0001015532,1,1
0.0006948746,5.698522e-05,1,1
0.0006919574,1.501031e-05,1,1
0.0006328035,-1.886135e-05,1,1
0.0005266506,-4.819517e-05,1,1
0.0003957018,-7.60704e-05,1,1
0.0002571359,-9.438378e-05,1,1
0.0001245665,-8.887356e-05,1,1
2.052053e-05,-5.370539e-05,1,1
-3.150244e-05,3.503668e-06,1,1
-1.562004e-05,6.217132e-05,1,1
7.238143e-05,9.588091e-05,1,1
0.000220185,9.344993e-05,1,1
0.0003944053,6.265751e-05,1,1
0.0005564707,2.181705e-05,1,1
0.0006644063,-8.975362e-06,1,1
0.0006896885,-2.064406e-05,1,1
0.0006229175,-1.3027e-05,1,1
0.0004806241,6.744974e-06,1,1
0.0002968419,2.975825e-05,1,1
0.0001098185,5.050261e-05,1,1
-5.970181e-05,6.444023e-05,1,1
-0.0002113949,6.865393e-05,1,1
-0.0003538503,6.768154e-05,1,1
-0.0004869059,6.978839e-05,1,1
-0.0005967862,7.983644e-05,1,1
-0.0006706879,9.458438e-05,1,1
-0.0007056941,0.0001098185,1,1
-0.0007042355,0.0001205148,1,1
-0.0006716604,0.0001261871,1,1
-0.0006163961,0.000130887,1,1
-0.0005458977,0.0001410971,1,1
-0.0004744269,0.0001573037,1,1
-0.0004147869,0.000173024,1,1
-0.0003711913,0.0001770756,1,1
-0.0003428299,0.0001645966,1,1
-0.000320789,0.0001419075,1,1
-0.0002942103,0.0001137081,1,1
-0.0002528836,8.74535e-05,1,1
-0.0001912988,7.059871e-05,1,1
-0.000117235,6.103686e-05,1,1
-4.203669e-05,5.19612e-05,1,1
2.910999e-05,3.543054e-05,1,1
0.0001078737,1.306552e-05,1,1
0.000207706,-9.461558e-06,1,1
0.0003286068,-2.615429e-05,1,1
0.0004498317,-3.766092e-05,1,1
0.0005464226,-4.576419e-05,1,1
0.0006071971,-4.770897e-05,1,1
0.0006302104,-4.544006e-05,1,1
0.0006125454,-4.203669e-05,1,1
0.00055955,-3.992984e-05,1,1
0.0004887274,-3.911951e-05,1,1
0.0004444835,-3.474375e-05,1,1
0.0004733311,-2.275091e-05,1,1
0.0005806184,-7.516774e-06,1,1
0.0007212912,4.962256e-06,1,1
0.0008339267,4.962256e-06,1,1
0.000869257,-8.651231e-06,1,1
0.0008088066,-3.312309e-05,1,1
0.0006595443,-5.69467e-05,1,1
0.0004519385,-7.153257e-05,1,1
0.0002214815,-7.785312e-05,1,1
2.855407e-06,-7.736692e-05,1,1
-0.0001859507,-7.396356e-05,1,1
-0.0003413713,-7.315322e-05,1,1
-0.0004674581,-7.866345e-05,1,1
-0.0005698834,-8.644259e-05,1,1
-0.0006561021,-8.887356e-05,1,1
-0.0007261143,-8.384954e-05,1,1
-0.0007632272,-7.461182e-05,1,1
-0.0007426449,-6.796714e-05,1,1
-0.0006489712,-6.504996e-05,1,1
-0.0004940368,-5.727083e-05,1,1
-0.000310903,-3.296103e-05,1,1
-0.0001442999,1.063454e-05,1,1
-2.501983e-05,6.314371e-05,1,1
4.953022e-05,0.0001104668,1,1
0.0001138702,0.000138342,1,1
0.0002107852,0.0001373696,1,1
0.0003632887,0.0001091703,1,1
0.0005514466,6.508849e-05,1,1
0.0007164293,1.663096e-05,1,1
0.0008008654,-2.599222e-05,1,1
0.0007788245,-5.840528e-05,1,1
0.0006726716,-8.222889e-05,1,1
0.0005245438,-0.0001007043,1,1
0.0003697714,-0.0001199901,1,1
0.0002247229,-0.0001410586,1,1
9.474644e-05,-0.0001635857,1,1
-1.480971e-05,-0.0001802784,1,1
-9.632857e-05,-0.0001861127,1,1
-0.0001468929,-0.0001827094,1,1
-0.0001731475,-0.0001731475,1,1
-0.0001846542,-0.0001601823,1,1
-0.0001890299,-0.0001384655,1,1
-0.0001912988,-0.0001021629,1,1
-0.0001995642,-4.544006e-05,1,1
-0.0002185258,4.110282e-05,1,1
-0.0002480217,0.0001626518,1,1
-0.0002836761,0.0003031625,1,1
-0.0003241924,0.0004268184,1,1
-0.0003664914,0.0004990995,1,1
-0.0004060354,0.0005026649,1,1
-0.0004394208,0.0004443214,1,1
-0.0004791268,0.0003449753,1,1
-0.000544115,0.0002337985,1,1
-0.0006403818,0.0001367214,1,1
-0.0007590136,7.448828e-05,1,1
-0.0008802384,5.601284e-05,1,1
-0.000978774,7.465034e-05,1,1
-0.001031931,0.0001145184,1,1
-0.001025287,0.0001592484,1,1
-0.0009620814,0.0001939304,1,1
-0.0008554424,0.00021273,1,1
-0.0007249799,0.0002159713,1,1
-0.0005847933,0.0002054371,1,1
-0.0004455793,0.0001905271,1,1
-0.0003173856,0.000180479,1,1
-0.0002086398,0.0001791825,1,1
-0.0001224211,0.0001851789,1,1
-4.770897e-05,0.000190365,1,1
3.13789e-05,0.0001872858,1,1
0.0001224596,0.0001756171,1,1
0.0002229401,0.0001563313,1,1
0.0003256896,0.0001321835,1,1
0.0004336251,0.0001065772,1,1
0.0005469088,8.405014e-05,1,1
0.0006481997,6.930219e-05,1,1
0.0007076777,5.957827e-05,1,1
0.0007049226,5.179914e-05,1,1
0.0006397723,4.45062e-05,1,1
0.0005255162,3.867184e-05,1,1
0.0003832228,3.218923e-05,1,1
0.0002360674,2.311357e-05,1,1
0.0001088461,1.063454e-05,1,1
2.100672e-05,-6.220252e-06,1,1
-2.42095e-05,-2.7937e-05,1,1
-3.798505e-05,-4.835724e-05,1,1
-3.717473e-05,-6.423963e-05,1,1
-3.21507e-05,-7.736692e-05,1,1
-2.939559e-05,-8.919769e-05,1,1
-3.409549e-05,-9.989401e-05,1,1
-5.889148e-05,-0.0001096179,1,1
-0.0001126972,-0.0001183694,1,1
-0.0001955125,-0.0001242038,1,1
-0.0002898345,-0.0001255003,1,1
