EMG1,EMG2,class,user
6.103686e-05,-0.0001460826,1,1
9.912221e-05,-0.000129714,1,1
0.0001396385,-0.0001102662,1,1
0.0001793446,-8.871149e-05,1,1
0.0002125679,-6.81292e-05,1,1
0.0002334744,-5.370539e-05,1,1
0.0002414156,-4.884343e-05,1,1
0.0002367157,-5.338126e-05,1,1
0.0002216436,-6.553616e-05,1,1
0.0001973338,-8.07703e-05,1,1
0.0001683241,-9.859748e-05,1,1
0.0001409351,-0.0001180453,1,1
0.0001166253,-0.000137169,1,1
9.782569e-05,-0.0001517549,1,1
8.631905e-05,-0.0001579134,1,1
8.356394e-05,-0.0001572651,1,1
8.307774e-05,-0.0001535376,1,1
7.756752e-05,-0.0001515928,1,1
6.055066e-05,-0.0001564548,1,1
2.959619e-05,-0.0001656925,1,1
-1.432352e-05,-0.0001726613,1,1
-6.051213e-05,-0.0001681235,1,1
-9.568031e-05,-0.0001454344,1,1
-0.000104918,-0.0001091317,1,1
-8.984595e-05,-6.829127e-05,1,1
-6.002594e-05,-3.539201e-05,1,1
-3.053005e-05,-1.805102e-05,1,1
-1.270286e-05,-1.092015e-05,1,1
-4.275467e-06,-3.951337e-06,1,1
3.017472e-06,1.112074e-05,1,1
2.133085e-05,4.337174e-05,1,1
6.427817e-05,9.507057e-05,1,1
0.0001461212,0.0001662173,1,1
0.0002650771,0.0002454672,1,1
0.0003906778,0.0003175863,1,1
0.0004812723,0.000363937,1,1
0.0005122268,0.0003743092,1,1
0.0004840274,0.0003485408,1,1
0.000425846,0.0002984626,1,1
0.0003700955,0.0002427121,1,1
0.0003250413,0.0001934442,1,1
0.0002859836,0.0001563313,1,1
0.0002482223,0.0001323456,1,1
0.0002075439,0.0001180839,1,1
0.000162976,0.0001081979,1,1
0.0001151667,9.588091e-05,1,1
6.362991e-05,7.821578e-05,1,1
4.962256e-06,5.94162e-05,1,1
-5.856735e-05,4.612685e-05,1,1
-0.0001263107,4.045456e-05,1,1
-0.0001964849,3.996837e-05,1,1
-0.000266173,4.142696e-05,1,1
-0.000330675,4.645098e-05,1,1
-0.0003873979,5.682316e-05,1,1
-0.0004309934,7.173317e-05,1,1
-0.0004580583,9.020862e-05,1,1
-0.000474589,0.0001091703,1,1
-0.0004860956,0.0001221355,1,1
-0.0004930644,0.0001221355,1,1
-0.0004953333,0.0001125736,1,1
-0.0004906334,0.0001033359,1,1
-0.0004747511,0.0001044704,1,1
-0.0004340726,0.0001182459,1,1
-0.0003577399,0.0001352628,1,1
-0.0002420253,0.0001430419,1,1
-9.989401e-05,0.0001339663,1,1
4.191315e-05,0.0001065772,1,1
0.0001501728,6.298164e-05,1,1
0.0001997648,1.565857e-05,1,1
0.0001908512,-2.696461e-05,1,1
0.000140773,-5.937768e-05,1,1
7.837785e-05,-8.433573e-05,1,1
3.267542e-05,-0.0001079973,1,1
2.408596e-05,-0.0001352242,1,1
6.233338e-05,-0.0001635857,1,1
0.0001436902,-0.0001851404,1,1
0.0002457913,-0.000194216,1,1
0.000331686,-0.0001935677,1,1
0.0003710679,-0.0001875713,1,1
0.0003482167,-0.0001809267,1,1
0.0002726942,-0.000176875,1,1
0.0001707551,-0.0001788198,1,1
6.136099e-05,-0.0001872472,1,1
-4.446767e-05,-0.0002011848,1,1
-0.0001404103,-0.0002170672,1,1
-0.0002180396,-0.0002269532,1,1
-0.0002664971,-0.0002233878,1,1
-0.0002862691,-0.0002047502,1,1
-0.0002922655,-0.0001776853,1,1
-0.0003092824,-0.0001533756,1,1
-0.0003494746,-0.0001373311,1,1
-0.0004086284,-0.0001298761,1,1
-0.0004642168,-0.0001308485,1,1
-0.0005010056,-0.0001332795,1,1
-0.0005164018,-0.0001248521,1,1
-0.0005233706,-9.811128e-05,1,1
-0.0005384427,-6.164659e-05,1,1
-0.0005705316,-2.858527e-05,1,1
-0.0006129927,-8.813297e-06,1,1
-0.00064103,-7.678839e-06,1,1
-0.0006301716,-2.599222e-05,1,1
-0.000568911,-5.710876e-05,1,1
-0.0004627582,-8.579432e-05,1,1
-0.0003301888,-9.438378e-05,1,1
-0.0001900023,-7.688073e-05,1,1
-4.722278e-05,-3.328516e-05,1,1
9.993253e-05,3.591673e-05,1,1
0.0002480603,0.0001351007,1,1
0.0003916502,0.000252436,1,1
0.0005162785,0.0003561579,1,1
0.0006063868,0.0004094774,1,1
0.0006511169,0.0003976466,1,1
0.0006503066,0.0003333067,1,1
0.0006149763,0.0002482223,1,1
0.0005637637,0.0001717275,1,1
0.0005172509,0.0001257009,1,1
0.0004919686,0.0001153287,1,1
0.0004950479,0.0001329939,1,1
0.000522599,0.0001598967,1,1
0.0005584154,0.0001775618,1,1
0.00058937,0.0001709172,1,1
0.0006081695,0.0001355869,1,1
0.0006154625,7.999851e-05,1,1
0.0006169211,2.327564e-05,1,1
0.00061919,-1.756482e-05,1,1
0.0006264829,-3.782299e-05,1,1
0.0006347483,-4.025397e-05,1,1
0.0006368551,-2.7937e-05,1,1
0.0006295622,-6.220252e-06,1,1
0.000609304,2.116879e-05,1,1
0.000572029,4.72613e-05,1,1
0.0005193577,6.865393e-05,1,1
0.0004610142,8.275361e-05,1,1
0.0004015361,9.101894e-05,1,1
0.0003226103,9.604298e-05,1,1
0.0001942546,0.0001005808,1,1
-7.100305e-07,0.0001154908,1,1
-0.0002483458,0.0001428799,1,1
-0.0005061917,0.0001761032,1,1
-0.0007259523,0.0002010613,1,1
-0.0008679214,0.0002080301,1,1
-0.0009102205,0.0001918236,1,1
-0.0008502563,0.0001561692,1,1
-0.0007087733,0.0001075496,1,1
-0.0005215878,5.682316e-05,1,1
-0.0003237062,1.22552e-05,1,1
-0.0001384655,-1.25408e-05,1,1
2.554455e-05,-7.678839e-06,1,1
0.0001739964,2.846173e-05,1,1
0.0003124002,8.696731e-05,1,1
0.0004373526,0.0001498487,1,1
0.0005332953,0.0001916615,1,1
0.0005827253,0.0001934442,1,1
0.0005864528,0.000155521,1,1
0.0005658705,9.426025e-05,1,1
0.000542209,3.251336e-05,1,1
0.0005221128,-9.785688e-06,1,1
0.0005010443,-2.388537e-05,1,1
0.0004712243,-1.351319e-05,1,1
0.0004256839,4.80019e-06,1,1
0.0003640991,1.306552e-05,1,1
0.0002879283,1.396819e-06,1,1
0.0002033302,-2.907146e-05,1,1
0.0001146805,-6.974985e-05,1,1
2.084466e-05,-0.0001125351,1,1
-7.65566e-05,-0.0001541859,1,1
-0.0001754164,-0.0001951884,1,1
-0.0002733039,-0.0002327876,1,1
-0.0003666535,-0.0002642282,1,1
-0.000447362,-0.0002882139,1,1
-0.0005084606,-0.0003031239,1,1
-0.0005538389,-0.0003074997,1,1
-0.0005898174,-0.0003016653,1,1
-0.0006180168,-0.0002865932,1,1
-0.0006366542,-0.0002643903,1,1
-0.000643461,-0.0002368392,1,1
-0.0006360059,-0.0002049123,1,1
-0.0006144513,-0.000171851,1,1
-0.000578797,-0.0001430034,1,1
-0.0005313118,-0.0001230693,1,1
-0.0004792889,-0.0001117248,1,1
-0.0004337485,-0.0001057284,1,1
-0.00039777,-0.0001052422,1,1
-0.0003732982,-0.0001104282,1,1
-0.0003637363,-0.0001165867,1,1
-0.0003676259,-0.0001159385,1,1
-0.000370543,-0.0001086455,1,1
-0.0003587123,-0.0001002181,1,1
-0.000335699,-9.2439e-05,1,1
-0.0003123616,-7.866345e-05,1,1
-0.000303286,-5.078821e-05,1,1
-0.0003165753,-2.492749e-06,1,1
-0.0003493125,6.03886e-05,1,1
-0.0003870737,0.000125863,1,1
-0.0004049009,0.0001751309,1,1
-0.0003885323,0.0001932822,1,1
-0.0003395886,0.0001790204,1,1
-0.0002663351,0.0001474177,1,1
-0.000184168,0.0001138702,1,1
-0.0001104282,9.16672e-05,1,1
-5.921561e-05,8.113296e-05,1,1
-3.004385e-05,7.805372e-05,1,1
-1.189254e-05,7.6271e-05,1,1
1.209313e-05,7.448828e-05,1,1
4.72613e-05,7.886404e-05,1,1
8.567078e-05,0.0001018773,1,1
0.0001094944,0.0001464453,1,1
0.0001013911,0.0001992786,1,1
5.666109e-05,0.0002372019,1,1
-1.464765e-05,0.0002529222,1,1
-0.0001008664,0.0002516257,1,1
-0.000186761,0.0002430362,1,1
-0.0002548284,0.0002334744,1,1
-0.0002958309,0.0002237505,1,1
-0.0003018274,0.0002068957,1,1
-0.0002721694,0.0001741585,1,1
-0.0002107467,0.0001248906,1,1
-0.0001251762,6.492643e-05,1,1
-1.821308e-05,8.041497e-06,1,1
0.0001086841,-2.404744e-05,1,1
0.0002477361,-1.513384e-05,1,1
0.0003906778,3.089271e-05,1,1
0.0005310264,8.826383e-05,1,1
0.0006582477,0.0001287802,1,1
0.0007585663,0.0001378558,1,1
0.0008300372,0.0001190562,1,1
0.0008794671,8.631905e-05,1,1
0.000918687,5.487838e-05,1,1
0.0009517483,3.526847e-05,1,1
0.000973303,2.878586e-05,1,1
0.0009739513,2.732727e-05,1,1
0.0009478587,2.084466e-05,1,1
0.0008961599,4.151929e-06,1,1
0.0008229063,-2.113026e-05,1,1
0.0007340944,-4.80331e-05,1,1
0.000631669,-7.104638e-05,1,1
0.0005164405,-8.82253e-05,1,1
0.0003871123,-0.0001032974,1,1
0.0002443328,-0.0001203142,1,1
9.182927e-05,-0.0001374932,1,1
-6.164659e-05,-0.000149486,1,1
-0.0001953505,-0.0001540238,1,1
-0.0002796244,-0.0001536997,1,1
-0.000293562,-0.0001524032,1,1
-0.0002407288,-0.0001498101,1,1
-0.0001498101,-0.0001391138,1,1
-5.921561e-05,-0.0001190177,1,1
5.610517e-06,-9.503204e-05,1,1
2.473423e-05,-7.250496e-05,1,1
-5.734056e-06,-4.657452e-05,1,1
-7.720486e-05,-8.489166e-06,1,1
-0.0001700683,4.288554e-05,1,1
-0.0002572594,9.863601e-05,1,1
-0.0003193304,0.0001435281,1,1
-0.0003536883,0.0001652449,1,1
-0.0003671397,0.0001660552,1,1
-0.0003648708,0.0001650828,1,1
-0.0003473677,0.0001808031,1,1
-0.0003162512,0.0002120818,1,1
-0.0002770314,0.0002373639,1,1
-0.000236353,0.0002381743,1,1
-0.0001977815,0.0002046267,1,1
-0.0001640719,0.0001472556,1,1
-0.0001361966,8.696731e-05,1,1
-0.0001149661,4.02925e-05,1,1
-0.0001013526,1.193106e-05,1,1
-9.649064e-05,7.485573e-07,1,1
-9.778715e-05,-1.844488e-06,1,1
-0.0001042698,-2.654814e-06,1,1
-0.0001180453,-3.627206e-06,1,1
-0.000137007,-2.492749e-06,1,1
-0.0001517549,-7.100305e-07,1,1
-0.0001499722,-2.238346e-07,1,1
-0.000129714,-6.868513e-06,1,1
-0.0001042698,-2.323711e-05,1,1
-9.2439e-05,-4.738484e-05,1,1
-0.0001079973,-7.623246e-05,1,1
-0.0001472171,-9.875954e-05,1,1
-0.0001987538,-0.0001063766,1,1
-0.0002535319,-9.276313e-05,1,1
-0.000303448,-5.64605e-05,1,1
-0.000333106,-7.192643e-06,1,1
-0.0003245165,4.288554e-05,1,1
-0.0002690902,7.90261e-05,1,1
-0.000174282,9.199134e-05,1,1
-6.116039e-05,8.129502e-05,1,1
5.19612e-05,5.034055e-05,1,1
0.0001543865,1.371378e-05,1,1
0.0002386605,9.106227e-07,1,1
0.0003008936,4.175109e-05,1,1
0.0003474063,0.0001461212,1,1
0.0003953777,0.0002903593,1,1
0.0004546936,0.000423415,1,1
0.0005182233,0.0005016926,1,1
0.0005660325,0.0005072028,1,1
0.0005841838,0.000455666,1,1
0.0005717048,0.0003791712,1,1
0.0005344298,0.0003059176,1,1
0.000482893,0.0002433604,1,1
0.000428439,0.0001871237,1,1
0.000381278,0.0001321835,1,1
0.0003475684,8.129502e-05,1,1
0.0003260137,4.077869e-05,1,1
0.00030689,8.041497e-06,1,1
0.0002739907,-2.550602e-05,1,1
0.0002179161,-6.423963e-05,1,1
0.0001470936,-0.0001042698,1,1
8.356394e-05,-0.0001413827,1,1
4.709924e-05,-0.0001746061,1,1
3.705119e-05,-0.0002019951,1,1
3.721326e-05,-0.0002222533,1,1
3.18651e-05,-0.0002326255,1,1
1.468618e-05,-0.0002344082,1,1
-1.643037e-05,-0.0002308428,1,1
-6.0188e-05,-0.0002243602,1,1
-0.0001139937,-0.0002154466,1,1
-0.0001739578,-0.000206533,1,1
-0.0002357047,-0.0002006986,1,1
-0.0002922655,-0.0001974573,1,1
-0.0003397507,-0.0001955125,1,1
-0.000372974,-0.0001930815,1,1
-0.0003901529,-0.0001903264,1,1
-0.0003945287,-0.0001887058,1,1
-0.0003841565,-0.0001882196,1,1
-0.000355633,-0.0001882196,1,1
-0.0003076617,-0.000186761,1,1
-0.0002402425,-0.0001835197,1,1
-0.0001571031,-0.0001820611,1,1
-7.120844e-05,-0.0001833576,1,1
8.041497e-06,-0.0001865989,1,1
7.6271e-05,-0.0001885437,1,1
0.0001338042,-0.0001893541,1,1
0.0001840444,-0.000191785,1,1
0.0002229401,-0.0001922712,1,1
0.0002438466,-0.0001896782,1,1
0.0002464396,-0.0001885437,1,1
0.000234933,-0.0001882196,1,1
0.0002245608,-0.0001861127,1,1
0.0002367157,-0.0001747682,1,1
0.0002760976,-0.0001509446,1,1
0.0003264999,-0.0001173971,1,1
0.0003589129,-7.914964e-05,1,1
0.000351458,-4.414354e-05,1,1
0.0002987867,-1.578211e-05,1,1
0.0002234263,1.396819e-06,1,1
0.0001573037,9.824215e-06,1,1
0.0001216493,1.711715e-05,1,1
0.0001166253,3.786152e-05,1,1
0.0001195424,8.583286e-05,1,1
0.0001069013,0.0001573037,1,1
6.622294e-05,0.0002312055,1,1
7.485573e-07,0.0002840388,1,1
-7.60704e-05,0.0002991108,1,1
-0.0001407345,0.0002735045,1,1
-0.0001749302,0.0002198609,1,1
-0.000171851,0.0001576278,1,1
-0.0001405724,0.0001057669,1,1
-0.0001000561,7.935024e-05,1,1
-6.48879e-05,8.42122e-05,1,1
-3.847125e-05,0.0001120874,1,1
-1.529591e-05,0.0001406109,1,1
9.175954e-06,0.0001522796,1,1
3.753739e-05,0.0001449867,1,1
6.946425e-05,0.0001273216,1,1
0.0001038221,0.0001088461,1,1
0.0001401247,9.750156e-05,1,1
0.0001707551,9.474644e-05,1,1
0.0001876099,0.0001007429,1,1
0.0001859892,0.0001163011,1,1
0.0001697827,0.0001435281,1,1
0.0001435281,0.000178048,1,1
0.0001130598,0.0002109473,1,1
8.761557e-05,0.0002337985,1,1
7.432621e-05,0.0002360674,1,1
6.589881e-05,0.0002120818,1,1
4.839576e-05,0.0001662173,1,1
6.744974e-06,0.0001148425,1,1
-6.407757e-05,7.448828e-05,1,1
-0.000159372,5.876794e-05,1,1
-0.0002648765,6.914012e-05,1,1
-0.0003674638,9.555677e-05,1,1
-0.0004625961,0.0001271595,1,1
-0.0005499493,0.0001587623,1,1
-0.0006230408,0.0001926339,1,1
-0.0006677708,0.0002256952,1,1
-0.0006749016,0.0002456293,1,1
-0.0006413542,0.0002380122,1,1
-0.0005781487,0.0001965235,1,1
-0.0004948471,0.000130725,1,1
-0.000402794,6.427817e-05,1,1
-0.0003118754,1.501031e-05,1,1
-0.0002329496,-1.221667e-05,1,1
-0.0001705545,-2.161646e-05,1,1
-0.0001269589,-2.761287e-05,1,1
-9.486997e-05,-3.911951e-05,1,1
-5.64605e-05,-6.051213e-05,1,1
-3.303076e-06,-8.628052e-05,1,1
6.087479e-05,-0.0001110765,1,1
0.0001177597,-0.0001284175,1,1
0.0001428799,-0.000137007,1,1
0.0001261871,-0.0001412206,1,1
7.319176e-05,-0.0001475412,1,1
3.341602e-06,-0.0001567789,1,1
-6.180866e-05,-0.0001656925,1,1
-0.0001044318,-0.0001702304,1,1
-0.0001149661,-0.0001697442,1,1
-9.584238e-05,-0.0001648822,1,1
-5.581224e-05,-0.0001579134,1,1
-7.030578e-06,-0.0001524032,1,1
3.478228e-05,-0.0001498101,1,1
4.742337e-05,-0.0001475412,1,1
9.175954e-06,-0.0001423551,1,1
-8.44978e-05,-0.000134738,1,1
-0.0002079916,-0.0001259865,1,1
-0.0003139823,-0.0001164247,1,1
-0.0003650328,-0.000112211,1,1
-0.0003509331,-0.0001128592,1,1
-0.0002890242,-0.00010978,1,1
-0.0002076674,-0.0001008664,1,1
-0.0001337657,-8.628052e-05,1,1
-7.671866e-05,-6.991193e-05,1,1
-3.328516e-05,-5.046408e-05,1,1
5.286387e-06,-2.923353e-05,1,1
5.52025e-05,-8.327101e-06,1,1
0.000125863,1.193106e-05,1,1
0.0002248849,3.267542e-05,1,1
0.000354051,5.228533e-05,1,1
0.0004952099,6.897806e-05,1,1
0.0006159487,7.918817e-05,1,1
0.0006853127,8.550872e-05,1,1
0.0007013571,9.150514e-05,1,1
0.0006832058,0.0001007429,1,1
0.0006554927,0.0001145184,1,1
0.0006337758,0.0001305629,1,1
0.0006214589,0.0001469315,1,1
0.0006138419,0.0001613553,1,1
0.0005864528,0.0001718896,1,1
0.0005135234,0.0001793446,1,1
0.0003869503,0.0001856651,1,1
0.0002232643,0.0001900409,1,1
5.893001e-05,0.0001924718,1,1
-6.44017e-05,0.000195389,1,1
-0.0001237176,0.0001986303,1,1
-0.0001319829,0.0002010613,1,1
-0.000119828,0.000202682,1,1
-0.0001135075,0.0002067336,1,1
-0.0001250141,0.0002143507,1,1
-0.0001447861,0.0002219677,1,1
-0.0001541859,0.0002255332,1,1
-0.0001383035,0.000222616,1,1
-9.308726e-05,0.0002117576,1,1
-2.307504e-05,0.0001950649,1,1
6.071273e-05,0.0001748067,1,1
0.000145635,0.0001524417,1,1
0.0002185644,0.0001302388,1,1
0.0002681563,0.000111115,1,1
0.0002837146,9.896015e-05,1,1
0.0002576221,9.231547e-05,1,1
0.0001863134,8.46984e-05,1,1
7.772959e-05,7.286763e-05,1,1
-4.544006e-05,5.99024e-05,1,1
-0.000159534,4.920609e-05,1,1
-0.0002478596,4.077869e-05,1,1
-0.0003016653,3.332369e-05,1,1
-0.0003159271,2.781346e-05,1,1
-0.0002844864,2.181705e-05,1,1
-0.0002096122,8.203562e-06,1,1
-0.000112373,-1.983374e-05,1,1
-2.680255e-05,-6.553616e-05,1,1
1.047248e-05,-0.0001232314,1,1
-1.173047e-05,-0.0001822232,1,1
-8.012204e-05,-0.000231329,1,1
-0.0001639098,-0.0002640662,1,1
-0.0002241981,-0.0002814071,1,1
-0.0002348944,-0.0002869174,1,1
-0.0001937298,-0.0002878898,1,1
-0.0001133454,-0.0002906449,1,1
-1.027188e-05,-0.0002968033,1,1
9.458438e-05,-0.0002966413,1,1
0.0001769136,-0.0002695764,1,1
0.0002237505,-0.000201671,1,1
0.0002383363,-9.470791e-05,1,1
0.0002321778,2.878586e-05,1,1
0.0002222919,0.0001320215,1,1
0.0002198609,0.0001864754,1,1
0.0002284504,0.0001911753,1,1
0.0002414156,0.0001671896,1,1
0.0002545429,0.0001402868,1,1
0.0002701012,0.0001237561,1,1
0.0002864697,0.0001146805,1,1
0.0002961937,0.0001028497,1,1
0.0002837146,7.951231e-05,1,1
0.0002256952,4.35338e-05,1,1
0.0001114392,-3.14101e-06,1,1
-5.046408e-05,-5.678463e-05,1,1
-0.0002316531,-0.0001143178,1,1
-0.0003950149,-0.00016942,1,1
-0.0005125122,-0.0002135018,1,1
-0.0005671282,-0.0002447804,1,1
-0.0005674524,-0.0002642282,1,1
-0.0005407116,-0.0002739521,1,1
-0.0005110537,-0.0002747625,1,1
-0.0004904714,-0.0002695764,1,1
-0.0004708614,-0.0002619593,1,1
-0.000432452,-0.0002485079,1,1
-0.0003608192,-0.0002149604,1,1
-0.0002596904,-0.0001434896,1,1
-0.0001434896,-3.393342e-05,1,1
-3.053005e-05,8.923623e-05,1,1
6.314371e-05,0.0001892305,1,1
0.0001315353,0.0002376881,1,1
0.0001820997,0.0002342847,1,1
0.0002297469,0.0002065715,1,1
0.0002854973,0.0001914995,1,1
0.0003464339,0.0002073819,1,1
0.0004013741,0.0002464396,1,1
0.0004467524,0.0002869559,1,1
0.0004846757,0.0003122381,1,1
0.0005136854,0.0003161277,1,1
0.0005208163,0.0002992729,1,1
0.0004922928,0.0002712356,1,1
0.0004255218,0.0002404432,1,1
0.0003394651,0.000210137,1,1
0.0002744769,0.0001772377,1,1
0.0002694529,0.0001370455,1,1
0.000334117,8.486046e-05,1,1
0.0004404318,2.197911e-05,1,1
0.0005409124,-4.009191e-05,1,1
0.0005911527,-9.000802e-05,1,1
0.0005660325,-0.0001203142,1,1
0.0004619866,-0.0001314967,1,1
0.0002971661,-0.0001308485,1,1
0.0001002567,-0.0001274451,1,1
-9.697683e-05,-0.0001302002,1,1
-0.0002650386,-0.0001392759,1,1
-0.0003804291,-0.0001449482,1,1
-0.0004309934,-0.0001251762,1,1
-0.0004168937,-5.824322e-05,1,1
-0.0003522297,6.298164e-05,1,1
-0.0002598524,0.0002081922,1,1
-0.000156941,0.0003313618,1,1
-5.69467e-05,0.0003905157,1,1
2.327564e-05,0.0003733368,1,1
6.233338e-05,0.0003025142,1,1
5.293359e-05,0.0002128921,1,1
6.420843e-06,0.0001334801,1,1
-5.402952e-05,7.740546e-05,1,1
-0.0001037836,4.288554e-05,1,1
-0.0001261486,2.197911e-05,1,1
-0.0001216107,9.175954e-06,1,1
-0.0001008664,2.693341e-06,1,1
-8.190475e-05,1.720949e-06,1,1
-7.882551e-05,-6.176923e-08,1,1
-9.551824e-05,-1.173047e-05,1,1
-0.0001289037,-3.360929e-05,1,1
-0.0001733096,-6.002594e-05,1,1
-0.000221443,-8.433573e-05,1,1
-0.0002729798,-9.973194e-05,1,1
-0.0003285682,-0.0001079973,1,1
-0.0003880461,-0.0001156143,1,1
-0.0004429862,-0.0001269589,1,1
-0.0004826922,-0.0001408965,1,1
-0.000504409,-0.0001530514,1,1
-0.000514295,-0.0001601823,1,1
-0.0005207775,-0.0001558065,1,1
-0.0005246671,-0.000142031,1,1
-0.000524181,-0.0001242038,1,1
-0.0005189948,-0.0001070249,1,1
-0.0005112157,-9.324933e-05,1,1
-0.0005026262,-8.40116e-05,1,1
-0.0004940368,-8.190475e-05,1,1
-0.0004802613,-8.968389e-05,1,1
-0.0004502792,-0.0001063766,1,1
-0.000395177,-0.0001295519,1,1
-0.0003121996,-0.0001561307,1,1
-0.000206695,-0.0001723372,1,1
-9.19528e-05,-0.000169258,1,1
1.565857e-05,-0.0001468929,1,1
0.0001026876,-0.0001149661,1,1
0.0001577899,-8.384954e-05,1,1
0.0001777239,-5.548811e-05,1,1
0.0001710792,-2.485776e-05,1,1
0.0001574657,1.031041e-05,1,1
0.0001616794,5.034055e-05,1,1
0.0001950649,9.21534e-05,1,1
0.0002555152,0.0001297526,1,1
0.0003344411,0.0001574657,1,1
0.0004123946,0.000170431,1,1
0.0004660382,0.0001707551,1,1
0.0004720346,0.0001641104,1,1
0.0004216323,0.0001539003,1,1
0.0003239069,0.0001425557,1,1
0.000205275,0.0001271595,1,1
9.814982e-05,0.000111115,1,1
2.700314e-05,9.750156e-05,1,1
-5.479652e-07,9.020862e-05,1,1
5.934648e-06,8.956036e-05,1,1
1.906194e-05,9.523264e-05,1,1
8.851824e-06,0.0001028497,1,1
-3.652646e-05,0.0001069013,1,1
-0.0001018388,0.0001028497,1,1
-0.0001567789,9.361199e-05,1,1
-0.0001801163,8.405014e-05,1,1
-0.0001726613,7.481241e-05,1,1
-0.0001535376,6.444023e-05,1,1
-0.0001485136,5.131294e-05,1,1
-0.0001731475,3.640293e-05,1,1
-0.0002211189,1.857574e-05,1,1
-0.0002671454,-2.978945e-06,1,1
-0.0002814071,-2.307504e-05,1,1
-0.000243808,-3.409549e-05,1,1
-0.0001423551,-3.506788e-05,1,1
2.311357e-05,-2.971972e-05,1,1
0.0002393087,-2.339918e-05,1,1
0.0004809482,-2.161646e-05,1,1
0.0007148086,-2.858527e-05,1,1
0.0009044252,-4.106429e-05,1,1
0.001027433,-4.706071e-05,1,1
0.001079294,-3.182657e-05,1,1
0.001076539,8.851824e-06,1,1
0.001040884,6.541262e-05,1,1
0.0009895095,0.000115977,1,1
0.0009319764,0.0001398006,1,1
0.0008687708,0.0001325077,1,1
0.0007909794,0.0001015532,1,1
0.0006880678,6.41161e-05,1,1
0.0005542018,3.737532e-05,1,1
0.0003934329,3.073064e-05,1,1
0.0002256952,4.418206e-05,1,1
6.670914e-05,6.881599e-05,1,1
-6.991193e-05,9.134307e-05,1,1
-0.0001750923,0.0001013911,1,1
-0.0002460769,9.750156e-05,1,1
-0.000286107,8.615699e-05,1,1
-0.000310903,7.092284e-05,1,1
-0.0003428299,5.471631e-05,1,1
-0.0003950149,3.834771e-05,1,1
-0.0004585445,2.003433e-05,1,1
-0.0005091089,-2.492749e-06,1,1
-0.0005251534,-3.053005e-05,1,1
-0.0005006815,-6.310517e-05,1,1
-0.000444769,-9.519411e-05,1,1
-0.0003750809,-0.0001211246,1,1
-0.0003052308,-0.0001384655,1,1
-0.0002525595,-0.0001454344,1,1
-0.0002274394,-0.0001457585,1,1
-0.0002277635,-0.0001465688,1,1
-0.0002494803,-0.0001501342,1,1
-0.0002865932,-0.0001558065,1,1
-0.0003292164,-0.0001566169,1,1
-0.0003664914,-0.0001425172,1,1
-0.0003898288,-0.0001091317,1,1
-0.0003950149,-6.342931e-05,1,1
-0.0003801049,-1.594417e-05,1,1
-0.000335699,1.760335e-05,1,1
-0.0002532078,3.024445e-05,1,1
-0.0001358725,2.181705e-05,1,1
3.665733e-06,4.244267e-07,1,1
0.000148228,-2.275091e-05,1,1
0.0002791768,-4.009191e-05,1,1
0.0003816021,-4.576419e-05,1,1
0.0004511282,-3.960571e-05,1,1
0.0004832171,-2.372331e-05,1,1
0.0004674968,4.244267e-07,1,1
0.000396188,2.846173e-05,1,1
0.0002812837,5.017848e-05,1,1
0.0001517934,5.99024e-05,1,1
2.992031e-05,5.811968e-05,1,1
-7.688073e-05,5.471631e-05,1,1
-0.0001645581,5.925414e-05,1,1
-0.000223874,7.481241e-05,1,1
-0.0002417012,9.507057e-05,1,1
-0.0002096122,0.0001081979,1,1
-0.0001357104,0.0001047945,1,1
-4.106429e-05,8.340187e-05,1,1
5.390598e-05,4.904402e-05,1,1
0.0001396385,1.22552e-05,1,1
0.0002205092,-1.643037e-05,1,1
0.0002958695,-3.425755e-05,1,1
0.000353889,-4.106429e-05,1,1
0.0003833848,-4.511593e-05,1,1
0.0003895433,-5.581224e-05,1,1
0.0003858158,-7.55842e-05,1,1
0.0003884089,-9.859748e-05,1,1
0.0004029947,-0.0001141558,1,1
0.0004248736,-0.0001029732,1,1
0.0004472386,-4.722278e-05,1,1
0.0004723587,5.471631e-05,1,1
0.0005097958,0.0001832341,1,1
0.0005582534,0.0003004074,1,1
0.000602011,0.0003699334,1,1
0.0006250244,0.0003841952,1,1
0.0006250244,0.0003731747,1,1
0.0006083316,0.0003722023,1,1
0.0005760806,0.0003906778,1,1
0.0005190336,0.0004088291,1,1
0.0004235771,0.0004038051,1,1
0.0002867939,0.000363937,1,1
0.0001218114,0.0002992729,1,1
-4.38194e-05,0.0002310434,1,1
-0.0001854645,0.0001733481,1,1
-0.0002971275,0.0001313732,1,1
-0.0003883702,0.0001096565,1,1
-0.0004737787,0.0001137081,1,1
-0.0005578905,0.0001409351,1,1
-0.0006275786,0.0001736723,1,1
-0.0006640433,0.0001882582,1,1
-0.0006578848,0.000173024,1,1
-0.0006079687,0.0001334801,1,1
-0.0005173742,8.518459e-05,1,1
-0.0003888564,4.288554e-05,1,1
-0.0002241981,9.66215e-06,1,1
-3.749886e-05,-1.902341e-05,1,1
0.0001344524,-4.868137e-05,1,1
0.0002469258,-8.141856e-05,1,1
0.0002760976,-0.0001114006,1,1
0.0002198609,-0.0001279313,1,1
0.0001000946,-0.0001256624,1,1
-5.289507e-05,-0.0001063766,1,1
-0.000206533,-8.02841e-05,1,1
-0.0003326198,-6.261898e-05,1,1
-0.0004207833,-6.359137e-05,1,1
-0.0004766958,-8.255302e-05,1,1
-0.0005060296,-0.0001094559,1,1
-0.000509595,-0.0001342519,1,1
-0.0004891749,-0.0001528894,1,1
-0.0004554653,-0.000169258,1,1
-0.0004154351,-0.0001864369,1,1
-0.0003716775,-0.0001981056,1,1
-0.0003199787,-0.0001948643,1,1
-0.000258718,-0.0001737958,1,1
-0.0001958367,-0.0001438137,1,1
-0.0001447861,-0.0001156143,1,1
-0.0001227452,-9.713889e-05,1,1
-0.0001436516,-9.276313e-05,1,1
-0.0002105846,-0.0001016767,1,1
-0.0003063652,-0.0001157764,1,1
-0.0004039285,-0.0001224211,1,1
-0.000479613,-0.0001157764,1,1
-0.0005227224,-0.0001020008,1,1
-0.0005374703,-9.146661e-05,1,1
-0.0005330946,-8.790117e-05,1,1
-0.0005125122,-9.081835e-05,1,1
-0.0004768579,-9.908367e-05,1,1
-0.000427428,-0.0001065387,1,1
-0.0003708672,-0.0001112386,1,1
-0.000310741,-0.0001136696,1,1
-0.0002481838,-0.0001138316,1,1
-0.0001791439,-0.0001101041,1,1
-9.843541e-05,-0.0001003802,1,1
-5.409925e-06,-8.757704e-05,1,1
9.53947e-05,-7.315322e-05,1,1
0.0002020337,-5.678463e-05,1,1
0.000311914,-3.652646e-05,1,1
0.0004149876,-1.189254e-05,1,1
0.0004950479,1.501031e-05,1,1
0.0005430193,4.013043e-05,1,1
0.0005661946,6.071273e-05,1,1
0.0005832114,7.30297e-05,1,1
0.0006076833,7.724339e-05,1,1
0.000643986,7.935024e-05,1,1
0.0006806127,8.615699e-05,1,1
0.0006982779,0.0001017153,1,1
0.0006752646,0.0001224596,1,1
0.0006034696,0.0001402868,1,1
0.0004911583,0.0001470936,1,1
0.0003637749,0.0001420695,1,1
0.0002516257,0.0001295905,1,1
0.0001694586,0.0001197045,1,1
0.0001137081,0.0001172735,1,1
7.059871e-05,0.0001200286,1,1
1.808955e-05,0.0001222976,1,1
-5.905355e-05,0.0001245665,1,1
-0.0001616409,0.0001273216,1,1
-0.0002674695,0.0001274836,1,1
-0.000353202,0.0001240803,1,1
-0.0004060354,0.0001156529,1,1
-0.0004295348,0.0001007429,1,1
-0.0004331002,8.032264e-05,1,1
-0.0004256453,5.56887e-05,1,1
-0.0004086284,3.154097e-05,1,1
-0.0003765395,9.986281e-06,1,1
-0.0003342404,-5.89612e-06,1,1
-0.000293562,-1.335113e-05,1,1
-0.0002639041,-1.3027e-05,1,1
-0.0002455907,-5.57199e-06,1,1
-0.0002318152,5.286387e-06,1,1
-0.0002207947,1.306552e-05,1,1
-0.0002104225,1.565857e-05,1,1
-0.0002039399,1.679302e-05,1,1
-0.0002062088,2.34377e-05,1,1
-0.000219012,3.462021e-05,1,1
-0.0002344082,4.499239e-05,1,1
-0.0002382978,4.758544e-05,1,1
-0.0002186879,3.883391e-05,1,1
-0.0001724993,2.295151e-05,1,1
-0.0001199901,6.90704e-06,1,1
-9.146661e-05,-5.89612e-06,1,1
-0.0001008664,-1.075808e-05,1,1
-0.0001332795,-5.734056e-06,1,1
-0.0001533756,2.855407e-06,1,1
-0.0001300382,2.04508e-06,1,1
-5.824322e-05,-2.080613e-05,1,1
4.304761e-05,-6.602235e-05,1,1
0.000153252,-0.0001235555,1,1
0.000262322,-0.0001802784,1,1
0.0003642611,-0.0002272773,1,1
0.0004559901,-0.0002652006,1,1
0.0005344298,-0.0003000446,1,1
0.0005974732,-0.0003395886,1,1
0.0006407447,-0.0003825359,1,1
0.000661165,-0.0004217557,1,1
0.0006645683,-0.0004501171,1,1
0.0006556547,-0.0004630823,1,1
0.0006422033,-0.0004556273,1,1
0.0006363689,-0.0004180282,1,1
0.0006503066,-0.0003392644,1,1
0.0006880678,-0.0002130156,1,1
0.0007428459,-4.722278e-05,1,1
0.0007987585,0.0001406109,1,1
0.0008392748,0.0003284447,1,1
0.0008546711,0.0005012064,1,1
0.0008483506,0.0006417171,1,1
0.0008219338,0.0007310151,1,1
0.0007759072,0.0007519216,1,1
0.000713188,0.0006992503,1,1
0.0006341,0.0005851563,1,1
0.0005392918,0.0004352458,1,1
0.0004305459,0.0002838767,1,1
0.0003156415,0.0001602208,1,1
0.0002067336,7.853991e-05,1,1
0.0001127357,4.434413e-05,1,1
3.170304e-05,5.098881e-05,1,1
-5.159854e-05,8.583286e-05,1,1
-0.0001538618,0.0001278078,1,1
-0.0002841623,0.0001598967,1,1
-0.0004355313,0.0001731861,1,1
-0.0005870623,0.0001684862,1,1
-0.0007047217,0.0001513072,1,1
-0.0007518827,0.0001274836,1,1
-0.000713149,0.0001047945,1,1
-0.000601162,8.615699e-05,1,1
-0.000449793,7.335383e-05,1,1
-0.0002992343,6.638502e-05,1,1
-0.0001836818,6.298164e-05,1,1
-0.0001139937,6.006447e-05,1,1
-7.947377e-05,5.56887e-05,1,1
-5.775702e-05,5.034055e-05,1,1
-1.934754e-05,4.677511e-05,1,1
4.871989e-05,4.499239e-05,1,1
0.000135911,4.239934e-05,1,1
0.0002111094,4.126489e-05,1,1
0.0002527602,4.110282e-05,1,1
0.0002594049,4.142696e-05,1,1
0.0002388225,3.802358e-05,1,1
0.0001960373,2.910999e-05,1,1
0.0001347766,1.695509e-05,1,1
5.487838e-05,2.855407e-06,1,1
-4.819517e-05,-1.221667e-05,1,1
-0.0001684476,-2.388537e-05,1,1
-0.0002896725,-2.971972e-05,1,1
-0.0003891806,-2.939559e-05,1,1
-0.0004457413,-2.356124e-05,1,1
-0.0004531963,-1.756482e-05,1,1
-0.0004235384,-1.578211e-05,1,1
-0.0003781601,-1.983374e-05,1,1
-0.000333106,-2.550602e-05,1,1
-0.0002974516,-2.84232e-05,1,1
-0.0002674695,-3.150244e-05,1,1
-0.0002345703,-3.733679e-05,1,1
-0.0002023193,-5.078821e-05,1,1
-0.0001830335,-6.893953e-05,1,1
-0.000186761,-8.854943e-05,1,1
-0.000206533,-0.0001070249,1,1
-0.000216581,-0.0001276072,1,1
-0.0001904885,-0.0001512687,1,1
-0.0001237176,-0.0001757406,1,1
-4.284701e-05,-0.0001948643,1,1
1.663096e-05,-0.0002053985,1,1
4.272347e-05,-0.000206533,1,1
4.580272e-05,-0.0002000504,1,1
4.580272e-05,-0.0001935677,1,1
4.985435e-05,-0.0001895161,1,1
5.082674e-05,-0.0001864369,1,1
4.580272e-05,-0.0001707166,1,1
3.494434e-05,-0.0001374932,1,1
1.22552e-05,-9.519411e-05,1,1
-3.069211e-05,-5.824322e-05,1,1
-9.924574e-05,-3.587821e-05,1,1
-0.0001806025,-3.733679e-05,1,1
-0.0002496423,-7.153257e-05,1,1
-0.0002854588,-0.0001360346,1,1
-0.0002820554,-0.0002126914,1,1
-0.0002454286,-0.0002763831,1,1
-0.0001861127,-0.0003149546,1,1
-0.000114804,-0.0003227338,1,1
-3.506788e-05,-0.0003047445,1,1
5.52025e-05,-0.0002694143,1,1
0.0001576278,-0.0002269532,1,1
0.000267184,-0.0001895161,1,1
0.0003785229,-0.0001658546,1,1
0.0004793275,-0.0001504584,1,1
0.0005506363,-0.0001264727,1,1
0.0005718669,-6.829127e-05,1,1
0.0005256782,4.223728e-05,1,1
0.00041596,0.0001910133,1,1
0.0002666978,0.0003373583,1,1
0.0001062531,0.0004298976,1,1
-3.733679e-05,0.0004435111,1,1
-0.0001438137,0.000383871,1,1
-0.0002062088,0.0002843629,1,1
-0.0002194982,0.0001871237,1,1
-0.0001929195,0.0001245665,1,1
-0.0001454344,0.0001049566,1,1
-9.681477e-05,0.0001175977,1,1
-6.342931e-05,0.0001443384,1,1
-5.289507e-05,0.0001718896,1,1
-6.002594e-05,0.0001924718,1,1
-6.991193e-05,0.0002059233,1,1
-7.056019e-05,0.000217592,1,1
-5.889148e-05,0.0002313675,1,1
-3.360929e-05,0.0002495189,1,1
-1.196227e-06,0.0002679943,1,1
2.781346e-05,0.0002817699,1,1
4.612685e-05,0.0002833905,1,1
5.131294e-05,0.0002683184,1,1
4.239934e-05,0.0002397949,1,1
1.711715e-05,0.0002047888,1,1
-2.501983e-05,0.0001710792,1,1
-7.995997e-05,0.0001451488,1,1
-0.0001387897,0.0001245665,1,1
-0.0001874093,0.0001039842,1,1
-0.0002160948,8.437427e-05,1,1
-0.000224036,6.719535e-05,1,1
-0.0002182017,5.61749e-05,1,1
-0.0002070192,5.52025e-05,1,1
-0.0002034537,5.909208e-05,1,1
-0.0002149604,6.298164e-05,1,1
-0.0002374874,5.957827e-05,1,1
-0.000261311,4.953022e-05,1,1
-0.0002796244,3.380988e-05,1,1
-0.0002946965,1.501031e-05,1,1
-0.0003159271,-3.789272e-06,1,1
-0.0003497987,-2.080613e-05,1,1
-0.0003867496,-3.895745e-05,1,1
-0.0004107352,-6.164659e-05,1,1
-0.0004143007,-8.547019e-05,1,1
-0.0003967976,-0.000104756,1,1
-0.0003617915,-0.0001165867,1,1
-0.0003196545,-0.0001206384,1,1
-0.0002818933,-0.0001203142,1,1
-0.0002561249,-0.0001253383,1,1
-0.0002360289,-0.0001410586,1,1
-0.0002029675,-0.000164396,1,1
-0.0001431655,-0.0001896782,1,1
-5.808115e-05,-0.0002055606,1,1
3.040651e-05,-0.0002005366,1,1
9.037068e-05,-0.0001734716,1,1
0.0001056048,-0.0001319829,1,1
9.004655e-05,-9.29252e-05,1,1
7.594687e-05,-7.266703e-05,1,1
8.74535e-05,-7.60704e-05,1,1
0.0001253768,-9.535618e-05,1,1
0.0001696206,-0.0001126972,1,1
0.0002007372,-0.0001139937,1,1
0.0002106232,-9.324933e-05,1,1
0.0002043026,-6.051213e-05,1,1
0.0001931201,-3.036798e-05,1,1
0.0001914995,-9.947754e-06,1,1
0.0002184023,-1.682422e-06,1,1
0.0002960316,2.623614e-07,1,1
0.0004276287,1.234753e-06,1,1
0.0005832114,4.313994e-06,1,1
0.0007139983,7.879432e-06,1,1
0.0007869278,8.365628e-06,1,1
0.0008054032,3.989864e-06,1,1
0.0007995688,-1.844488e-06,1,1
0.0008016757,-3.303076e-06,1,1
0.0008196649,6.420843e-06,1,1
0.0008389507,2.230325e-05,1,1
0.0008423541,4.191315e-05,1,1
0.0008264717,5.957827e-05,1,1
0.0008041067,7.124698e-05,1,1
0.000795031,7.57848e-05,1,1
0.00080751,7.52986e-05,1,1
0.0008267959,7.140904e-05,1,1
0.0008209614,6.314371e-05,1,1
0.0007640765,5.341979e-05,1,1
0.0006567892,4.969229e-05,1,1
0.0005234093,5.293359e-05,1,1
0.0003966742,6.233338e-05,1,1
0.0002963557,7.286763e-05,1,1
0.000225047,7.853991e-05,1,1
0.0001746447,7.448828e-05,1,1
0.0001316974,5.585077e-05,1,1
8.79397e-05,2.311357e-05,1,1
4.110282e-05,-9.461558e-06,1,1
-6.544382e-06,-2.323711e-05,1,1
-4.43056e-05,-4.275467e-06,1,1
-5.370539e-05,4.693717e-05,1,1
-2.777494e-05,0.0001201907,1,1
1.54965e-05,0.0001944166,1,1
4.466826e-05,0.0002482223,1,1
3.591673e-05,0.0002764217,1,1
-3.166451e-05,0.0002880904,1,1
-0.0001580754,0.0002914938,1,1
-0.0003233821,0.0002850112,1,1
-0.0004933886,0.0002712356,1,1
-0.0006337371,0.0002550291,1,1
-0.0007233592,0.0002367157,1,1
-0.0007598239,0.0002187264,1,1
-0.0007520447,0.0002000889,1,1
-0.00071558,0.0001819376,1,1
-0.0006601537,0.0001684862,1,1
-0.0005930586,0.000160707,1,1
-0.0005223983,0.0001550348,1,1
-0.0004585445,0.0001438522,1,1
-0.0004060354,0.0001224596,1,1
-0.0003572537,9.16672e-05,1,1
-0.0003029619,5.957827e-05,1,1
-0.0002457528,3.283749e-05,1,1
-0.000194216,1.727922e-05,1,1
-0.0001556445,1.079661e-05,1,1
-0.0001386276,8.527692e-06,1,1
-0.0001483515,6.420843e-06,1,1
-0.0001846542,3.827799e-06,1,1
-0.0002423494,-3.858999e-07,1,1
-0.0003128478,-1.20546e-05,1,1
-0.0003784843,-3.21507e-05,1,1
-0.0004091146,-5.013995e-05,1,1
-0.0003747568,-4.90055e-05,1,1
-0.0002679557,-2.550602e-05,1,1
-0.0001157764,6.582909e-06,1,1
3.073064e-05,3.13789e-05,1,1
0.000121001,3.818565e-05,1,1
0.0001226217,2.700314e-05,1,1
4.191315e-05,2.207145e-06,1,1
-8.757704e-05,-2.566809e-05,1,1
-0.0002222533,-4.916756e-05,1,1
-0.0003272716,-6.456377e-05,1,1
-0.0003995528,-7.153257e-05,1,1
-0.0004565997,-7.428769e-05,1,1
-0.0005176983,-7.688073e-05,1,1
-0.000588845,-8.07703e-05,1,1
-0.000658371,-8.741498e-05,1,1
-0.000710556,-9.438378e-05,1,1
-0.0007291936,-9.730096e-05,1,1
-0.0007063423,-9.324933e-05,1,1
-0.0006442713,-8.676672e-05,1,1
-0.0005507597,-8.44978e-05,1,1
-0.0004347209,-9.341139e-05,1,1
-0.0003026377,-0.0001139937,1,1
-0.0001583996,-0.0001425172,1,1
-6.868513e-06,-0.0001734716,1,1
0.0001386662,-0.0002011848,1,1
0.0002660495,-0.0002194982,1,1
0.0003715541,-0.0002297083,1,1
0.0004537212,-0.000231491,1,1
0.0005112545,-0.0002261429,1,1
0.0005402642,-0.0002180396,1,1
0.0005420469,-0.0002071812,1,1
0.000517575,-0.0001932436,1,1
0.0004623107,-0.0001741199,1,1
0.000378685,-0.0001533756,1,1
0.0002806354,-0.0001349001,1,1
0.0001924718,-0.0001211246,1,1
0.0001315353,-0.0001104282,1,1
0.0001075496,-9.859748e-05,1,1
0.0001172735,-8.676672e-05,1,1
0.000145635,-7.363943e-05,1,1
0.0001684862,-5.565017e-05,1,1
0.0001676758,-2.955766e-05,1,1
0.000135749,4.151929e-06,1,1
8.161915e-05,3.721326e-05,1,1
2.586868e-05,6.265751e-05,1,1
-9.947754e-06,8.064677e-05,1,1
-1.156841e-05,9.393612e-05,1,1
1.954813e-05,0.0001062531,1,1
6.978839e-05,0.0001166253,1,1
0.0001310491,0.000123432,1,1
0.0001949028,0.0001310491,1,1
0.0002558394,0.0001385041,1,1
0.0003156415,0.0001436902,1,1
0.0003822504,0.0001485521,1,1
0.0004673347,0.0001534141,1,1
0.0005765668,0.0001600588,1,1
0.0007096225,0.0001649207,1,1
0.0008532125,0.0001689724,1,1
0.0009852959,0.0001767515,1,1
0.001080915,0.0001949028,1,1
0.001116245,0.0002229401,1,1
0.001072163,0.0002496809,1,1
0.0009446174,0.0002611876,1,1
0.000755325,0.000249843,1,1
0.0005477191,0.0002205092,1,1
0.0003686369,0.0001842065,1,1
0.0002417397,0.0001522796,1,1
0.0001611932,0.0001315353,1,1
0.0001070634,0.0001221355,1,1
5.893001e-05,0.0001185701,1,1
1.002961e-07,0.0001114392,1,1
-9.114248e-05,9.458438e-05,1,1
-0.0002254946,6.946425e-05,1,1
-0.0003895047,4.110282e-05,1,1
-0.000551732,1.679302e-05,1,1
-0.0006736051,-5.085794e-06,1,1
-0.0007325969,-2.858527e-05,1,1
-0.0007236833,-5.338126e-05,1,1
-0.0006624226,-7.55842e-05,1,1
-0.0005752315,-8.903562e-05,1,1
-0.0004909576,-8.968389e-05,1,1
-0.0004316416,-7.914964e-05,1,1
-0.000407656,-5.64605e-05,1,1
-0.0004183523,-2.518189e-05,1,1
-0.0004481723,8.689758e-06,1,1
-0.000467134,3.462021e-05,1,1
-0.0004425001,4.35338e-05,1,1
-0.0003622777,3.332369e-05,1,1
-0.0002421874,8.365628e-06,1,1
-0.0001245279,-3.166451e-05,1,1
-5.095028e-05,-8.644259e-05,1,1
-3.279896e-05,-0.0001533756,1,1
-5.59743e-05,-0.0002292221,1,1
-9.454585e-05,-0.0003053928,1,1
-0.0001250141,-0.0003763774,1,1
-0.0001327933,-0.0004331002,1,1
-0.0001190177,-0.0004642168,1,1
-8.984595e-05,-0.0004590307,1,1
-5.192267e-05,-0.0004173799,1,1
-1.010982e-05,-0.0003541745,1,1
3.526847e-05,-0.0002852967,1,1
9.507057e-05,-0.0002211189,1,1
0.0001871237,-0.0001522411,1,1
0.0003200173,-6.602235e-05,1,1
0.0004794896,5.001642e-05,1,1
0.0006467411,0.0001940925,1,1
0.0007984344,0.0003506476,1,1
0.0009105837,0.000487755,1,1
0.0009697376,0.0005739738,1,1
0.0009762202,0.0005927734,1,1
0.0009455899,0.0005477191,1,1
0.0008977805,0.0004585832,1,1
0.000839437,0.0003508097,1,1
0.0007705591,0.0002459534,1,1
0.0006888782,0.0001603829,1,1
0.0005989318,9.912221e-05,1,1
0.0005068787,6.087479e-05,1,1
0.0004141773,4.094075e-05,1,1
0.0003196932,3.413401e-05,1,1
0.0002221298,3.543054e-05,1,1
0.0001171115,4.013043e-05,1,1
-2.978945e-06,4.272347e-05,1,1
-0.000144624,4.158902e-05,1,1
-0.0003073376,3.93201e-05,1,1
-0.000474589,3.656499e-05,1,1
-0.0006240131,3.251336e-05,1,1
-0.0007379451,2.603075e-05,1,1
-0.0008126572,1.987227e-05,1,1
-0.0008504183,1.9224e-05,1,1
-0.0008541459,2.651694e-05,1,1
-0.0008252983,4.061663e-05,1,1
-0.0007680892,5.374392e-05,1,1
-0.0006902979,5.974033e-05,1,1
-0.0006008379,5.19612e-05,1,1
-0.0005034366,3.089271e-05,1,1
-0.0003998769,4.151929e-06,1,1
-0.0002968033,-2.113026e-05,1,1
-0.0002047502,-3.68506e-05,1,1
-0.0001405724,-3.960571e-05,1,1
-0.000119828,-3.231277e-05,1,1
-0.0001434896,-1.788895e-05,1,1
-0.0001955125,1.002961e-07,1,1
-0.0002564491,1.906194e-05,1,1
-0.0003079858,3.640293e-05,1,1
-0.0003400748,5.050261e-05,1,1
-0.0003507711,6.541262e-05,1,1
-0.0003497987,8.42122e-05,1,1
-0.0003507711,0.000105929,1,1
-0.0003598467,0.0001193804,1,1
-0.0003779981,0.0001175977,1,1
-0.0004049009,0.0001023635,1,1
-0.0004321279,8.04847e-05,1,1
-0.0004478482,5.876794e-05,1,1
-0.0004457413,3.575467e-05,1,1
-0.0004285624,8.041497e-06,1,1
-0.000400201,-2.453363e-05,1,1
-0.0003638984,-6.132246e-05,1,1
-0.0003279199,-9.276313e-05,1,1
-0.0003018274,-0.0001071869,1,1
-0.0002980999,-0.0001018388,1,1
-0.0003246786,-8.02841e-05,1,1
-0.0003779981,-5.2733e-05,1,1
-0.0004426621,-2.809907e-05,1,1
-0.0004929024,-1.432352e-05,1,1
-0.0005000332,-1.237873e-05,1,1
-0.0004506033,-1.934754e-05,1,1
-0.00035304,-2.826114e-05,1,1
-0.0002276015,-3.474375e-05,1,1
-9.389759e-05,-3.312309e-05,1,1
3.818565e-05,-2.080613e-05,1,1
0.0001626518,-5.085794e-06,1,1
0.0002751252,5.124321e-06,1,1
0.0003666921,4.151929e-06,1,1
0.0004389733,-1.043395e-05,1,1
0.0005015305,-3.798505e-05,1,1
0.0005642498,-7.33153e-05,1,1
0.000626807,-0.0001089697,1,1
0.0006788301,-0.0001400862,1,1
0.0007136742,-0.0001629374,1,1
0.0007305289,-0.0001794681,1,1
0.0007313393,-0.0001898403,1,1
0.0007242084,-0.0001961608,1,1
0.000725667,-0.0001955125,1,1
0.0007465734,-0.0001872472,1,1
0.0007742866,-0.0001708786,1,1
0.0007797969,-0.000149486,1,1
0.0007421977,-0.0001261486,1,1
0.0006582477,-0.0001032974,1,1
0.0005318367,-8.498399e-05,1,1
0.0003653956,-7.363943e-05,1,1
0.0001573037,-6.926366e-05,1,1
-7.461182e-05,-6.845333e-05,1,1
-0.0002921034,-6.472583e-05,1,1
-0.000457248,-5.354332e-05,1,1
-0.0005449253,-3.68506e-05,1,1
-0.0005424943,-1.821308e-05,1,1
-0.0004502792,-2.330684e-06,1,1
-0.0002888622,8.527692e-06,1,1
-8.498399e-05,1.776542e-05,1,1
0.0001368834,2.927205e-05,1,1
0.0003571303,4.337174e-05,1,1
0.0005579292,5.893001e-05,1,1
0.0007211292,7.319176e-05,1,1
0.0008308475,8.42122e-05,1,1
0.0008763879,9.134307e-05,1,1
0.000864557,9.231547e-05,1,1
0.0008175581,9.134307e-05,1,1
0.0007621317,9.16672e-05,1,1
0.0007186982,9.409818e-05,1,1
0.0006916333,9.847395e-05,1,1
0.0006707268,0.0001022015,1,1
0.0006366931,0.0001038221,1,1
0.0005668429,0.000111115,1,1
0.0004529109,0.0001342904,1,1
0.0003033245,0.0001696206,1,1
0.0001404489,0.0002072198,1,1
-7.354709e-06,0.0002339606,1,1
-0.0001212866,0.0002443328,1,1
-0.0002002124,0.000237526,1,1
-0.0002608248,0.0002180782,1,1
-0.0003235441,0.0001918236,1,1
-0.0003993907,0.0001621656,1,1
-0.0004880404,0.0001329939,1,1
-0.0005901415,0.0001081979,1,1
-0.0007090974,8.891209e-05,1,1
-0.0008382635,7.432621e-05,1,1
-0.0009590021,6.703327e-05,1,1
-0.001048786,6.654708e-05,1,1
-0.001085251,7.108491e-05,1,1
-0.001057214,7.270556e-05,1,1
-0.0009656468,6.330578e-05,1,1
-0.000819788,4.337174e-05,1,1
-0.0006334129,2.81376e-05,1,1
-0.00042759,3.494434e-05,1,1
-0.000231491,7.30297e-05,1,1
-7.623246e-05,0.0001304008,1,1
1.047248e-05,0.0001872858,1,1
2.230325e-05,0.0002258573,1,1
-3.668853e-05,0.0002367157,1,1
-0.0001677994,0.0002231022,1,1
-0.0003702189,0.0001942546,1,1
-0.0006196374,0.0001592484,1,1
-0.0008599802,0.0001273216,1,1
-0.001023342,0.000101067,1,1
-0.001062886,7.821578e-05,1,1
-0.0009615952,5.277153e-05,1,1
-0.0007376209,2.295151e-05,1,1
-0.0004371519,-9.623623e-06,1,1
-0.000122259,-4.495386e-05,1,1
0.0001560072,-8.417367e-05,1,1
0.0003744712,-0.0001219349,1,1
0.0005307022,-0.0001528894,1,1
0.0006323173,-0.000176875,1,1
0.000688554,-0.0001951884,1,1
0.0007204809,-0.0002070192,1,1
0.0007477079,-0.0002152845,1,1
0.0007768797,-0.0002233878,1,1
0.0008028102,-0.0002292221,1,1
0.0008149651,-0.000231491,1,1
0.0008128582,-0.0002318152,1,1
0.0008088066,-0.0002274394,1,1
0.0008201511,-0.0002178775,1,1
0.0008522401,-0.0002039399,1,1
0.0008992391,-0.0001848162,1,1
0.000938459,-0.0001603444,1,1
0.000953207,-0.0001327933,1,1
0.0009405658,-0.0001020008,1,1
0.0009159319,-6.974985e-05,1,1
0.0009028045,-3.863332e-05,1,1
0.000918687,-1.869928e-05,1,1
0.0009624446,-2.210265e-05,1,1
0.001018519,-5.419158e-05,1,1
0.001066005,-0.0001055663,1,1
0.00108837,-0.0001551583,1,1
0.001073297,-0.0001822232,1,1
0.001007013,-0.0001747682,1,1
0.000889029,-0.0001378173,1,1
0.0007266394,-8.854943e-05,1,1
0.0005284334,-3.652646e-05,1,1
0.0002999212,1.792748e-05,1,1
5.341979e-05,7.594687e-05,1,1
-0.000191785,0.0001380179,1,1
-0.0004115456,0.0002051129,1,1
-0.0005786349,0.0002863077,1,1
-0.0006685811,0.0003858158,1,1
-0.0006656639,0.0004914824,1,1
-0.0005757177,0.0005707325,1,1
-0.0004366657,0.0005914768,1,1
-0.0003029619,0.0005433434,1,1
-0.0002156086,0.0004430249,1,1
-0.0001911368,0.0003248792,1,1
-0.0002196603,0.0002187264,1,1
-0.0002801106,0.000143204,1,1
-0.0003519055,9.944634e-05,1,1
-0.0004164075,8.080883e-05,1,1
-0.0004650271,7.335383e-05,1,1
-0.0004995471,6.265751e-05,1,1
-0.0005248293,4.207521e-05,1,1
-0.0005481666,1.322759e-05,1,1
-0.0005742591,-1.221667e-05,1,1
-0.000606186,-2.858527e-05,1,1
-0.0006437852,-3.474375e-05,1,1
-0.0006851118,-3.604027e-05,1,1
-0.0007262764,-3.847125e-05,1,1
-0.0007596618,-3.830919e-05,1,1
-0.0007791097,-3.036798e-05,1,1
-0.0007881853,-7.678839e-06,1,1
-0.0007974231,3.316162e-05,1,1
-0.0008131433,8.826383e-05,1,1
-0.0008337257,0.0001469315,1,1
-0.0008484736,0.0001963614,1,1
-0.000842153,0.0002253711,1,1
-0.0008071469,0.0002237505,1,1
-0.0007419967,0.0001893926,1,1
-0.0006603158,0.0001302388,1,1
-0.0005749074,6.055066e-05,1,1
-0.0004891749,-3.14101e-06,1,1
-0.0004008493,-5.095028e-05,1,1
-0.0003134961,-8.07703e-05,1,1
-0.0002355427,-9.649064e-05,1,1
-0.0001770371,-0.0001036215,1,1
-0.0001439758,-0.0001079973,1,1
-0.0001327933,-0.0001136696,1,1
-0.0001326312,-0.0001211246,1,1
-0.0001318209,-0.0001293899,1,1
-0.00012469,-0.0001337657,1,1
-0.0001126972,-0.0001332795,1,1
-9.551824e-05,-0.000127121,1,1
-7.153257e-05,-0.0001195039,1,1
-3.895745e-05,-0.0001143178,1,1
-3.14101e-06,-0.000112211,1,1
2.846173e-05,-0.000112373,1,1
5.471631e-05,-0.0001165867,1,1
8.259155e-05,-0.0001237176,1,1
0.0001172735,-0.0001295519,1,1
0.0001500107,-0.0001332795,1,1
0.0001688103,-0.0001353863,1,1
0.0001765894,-0.0001379794,1,1
0.0001874478,-0.000144624,1,1
0.0002075439,-0.0001504584,1,1
0.0002310434,-0.0001512687,1,1
0.0002384984,-0.0001473791,1,1
0.0002075439,-0.0001396,1,1
0.0001271595,-0.0001358725,1,1
-2.238346e-07,-0.000137007,1,1
-0.0001548341,-0.0001410586,1,1
-0.0003099306,-0.0001426792,1,1
-0.0004395829,-0.0001404103,1,1
-0.0005227224,-0.0001379794,1,1
-0.0005504355,-0.0001366828,1,1
-0.0005340669,-0.0001379794,1,1
-0.0004917679,-0.0001430034,1,1
-0.0004363416,-0.0001504584,1,1
-0.0003687603,-0.0001580754,1,1
-0.000283514,-0.0001572651,1,1
-0.000174282,-0.0001387897,1,1
-4.317115e-05,-9.486997e-05,1,1
0.0001067393,-2.858527e-05,1,1
0.0002769079,4.82337e-05,1,1
0.0004660382,0.0001185701,1,1
0.0006629477,0.0001676758,1,1
0.0008417058,0.0001957132,1,1
0.0009760582,0.0002112714,1,1
0.00105547,0.000220185,1,1
0.001094852,0.0002234263,1,1
0.00111981,0.0002216436,1,1
0.001149144,0.0002188885,1,1
0.001180585,0.0002166196,1,1
0.001203274,0.0002117576,1,1
0.001203598,0.0002034923,1,1
0.001173778,0.0001960373,1,1
0.001106521,0.0001942546,1,1
0.001008471,0.0001955511,1,1
0.0008948633,0.0001936063,1,1
0.0007890346,0.0001867996,1,1
0.0007097846,0.0001762653,1,1
0.0006626236,0.000168162,1,1
0.0006358828,0.000165569,1,1
0.0006036317,0.0001660552,1,1
0.0005396159,0.0001665414,1,1
0.0004298976,0.0001628139,1,1
0.0002811216,0.0001535762,1,1
0.0001122495,0.0001410971,1,1
-4.770897e-05,0.0001289422,1,1
-0.0001632615,0.0001221355,1,1
-0.0002081536,0.0001222976,1,1
-0.0001789819,0.0001266733,1,1
-0.000102325,0.0001269974,1,1
-2.404744e-05,0.0001150046,1,1
2.116879e-05,9.134307e-05,1,1
2.700314e-05,6.184718e-05,1,1
5.934648e-06,3.575467e-05,1,1
-3.279896e-05,1.630683e-05,1,1
-8.417367e-05,1.072688e-06,1,1
-0.0001381414,-1.156841e-05,1,1
-0.0001830335,-2.210265e-05,1,1
-0.0002088019,-2.826114e-05,1,1
-0.0002068571,-2.971972e-05,1,1
-0.0001770371,-2.696461e-05,1,1
-0.0001358725,-2.388537e-05,1,1
-0.0001065387,-2.566809e-05,1,1
-0.0001010285,-3.231277e-05,1,1
-0.0001083214,-4.090223e-05,1,1
-0.000112373,-5.095028e-05,1,1
-0.000119666,-5.856735e-05,1,1
-0.0001488377,-6.504996e-05,1,1
-0.0002096122,-7.23429e-05,1,1
-0.0002887001,-8.271508e-05,1,1
-0.0003574158,-9.778715e-05,1,1
-0.0003849669,-0.0001125351,1,1
-0.0003611433,-0.0001201522,1,1
-0.000298424,-0.0001203142,1,1
-0.000224036,-0.0001169109,1,1
-0.0001671511,-0.0001159385,1,1
-0.0001533756,-0.000119666,1,1
-0.0001875713,-0.0001292278,1,1
-0.0002532078,-0.0001426792,1,1
-0.0003196545,-0.0001574272,1,1
-0.0003627639,-0.0001686097,1,1
-0.0003797808,-0.0001781716,1,1
-0.0003726499,-0.0001833576,1,1
-0.0003434782,-0.0001815749,1,1
-0.0002985861,-0.0001720131,1,1
-0.0002506147,-0.0001588858,1,1
-0.0002110708,-0.0001481895,1,1
-0.0001880575,-0.0001407345,1,1
-0.0001853024,-0.0001327933,1,1
-0.0001989159,-0.0001193418,1,1
-0.0002185258,-0.0001010285,1,1
-0.0002293842,-8.336335e-05,1,1
-0.0002157707,-6.748094e-05,1,1
-0.0001705545,-5.127441e-05,1,1
-0.0001032974,-2.728874e-05,1,1
-5.062615e-05,9.986281e-06,1,1
-4.932962e-05,5.957827e-05,1,1
-0.0001152902,0.0001096565,1,1
-0.000231491,0.0001461212,1,1
-0.0003600088,0.0001633001,1,1
-0.000457248,0.0001642725,1,1
-0.0004953333,0.0001524417,1,1
-0.0004729683,0.0001360731,1,1
-0.0004006872,0.0001222976,1,1
-0.000288538,0.000113384,1,1
-0.0001465688,0.0001101427,1,1
7.069105e-06,0.0001077117,1,1
0.0001553589,0.0001000946,1,1
0.0002880904,8.648112e-05,1,1
0.0003957018,7.513654e-05,1,1
0.0004713863,7.124698e-05,1,1
0.0005114165,7.740546e-05,1,1
0.0005123889,8.875003e-05,1,1
0.0004777069,0.0001005808,1,1
0.0004208219,0.0001104668,1,1
0.0003508097,0.0001120874,1,1
0.0002558394,9.847395e-05,1,1
0.0001180839,6.525056e-05,1,1
-6.44017e-05,1.760335e-05,1,1
-0.000261311,-2.129233e-05,1,1
-0.0004334244,-2.615429e-05,1,1
-0.0005538389,7.717366e-06,1,1
-0.0006191512,6.249545e-05,1,1
-0.0006360059,0.0001127357,1,1
-0.0006078067,0.0001417454,1,1
-0.0005431426,0.0001495245,1,1
-0.0004530343,0.0001527658,1,1
-0.0003535262,0.0001782101,1,1
-0.0002507768,0.0002456293,1,1
-0.0001318209,0.0003589129,1,1
1.825161e-05,0.0004918066,1,1
0.0001910133,0.0005976353,1,1
0.0003660439,0.0006352345,1,1
0.0005264886,0.0005926113,1,1
0.0006682958,0.0004895377,1,1
0.0007940586,0.000361506,1,1
0.0009096113,0.000242388,1,1
0.001018195,0.0001519555,1,1
0.001119972,9.361199e-05,1,1
0.001206515,6.136099e-05,1,1
0.001258863,4.547859e-05,1,1
0.001254001,3.834771e-05,1,1
0.001186581,3.154097e-05,1,1
0.00106876,1.679302e-05,1,1
0.0009209559,-9.461558e-06,1,1
0.0007540284,-4.884343e-05,1,1
0.0005755944,-9.762509e-05,1,1
0.0003992672,-0.0001462447,1,1
0.0002384984,-0.0001820611,1,1
0.0001067393,-0.0001932436,1,1
1.403791e-05,-0.0001776853,1,1
-3.312309e-05,-0.0001462447,1,1
-2.534396e-05,-0.0001169109,1,1
3.98063e-05,-0.0001058904,1,1
0.0001535762,-0.0001209625,1,1
0.0002830664,-0.000159534,1,1
0.0003799815,-0.0002138259,1,1
0.0004005638,-0.0002767073,1,1
0.0003274723,-0.000333106,1,1
0.0001726999,-0.0003611433,1,1
-2.955766e-05,-0.0003485022,1,1
-0.0002352185,-0.0003015032,1,1
-0.000407656,-0.0002431597,1,1
-0.0005212637,-0.0001997262,1,1
-0.00056648,-0.0001859507,1,1
-0.0005582146,-0.0001977815,1,1
-0.0005277464,-0.0002227395,1,1
-0.0005071641,-0.0002470493,1,1
-0.0005128364,-0.0002616352,1,1
-0.0005463839,-0.0002690902,1,1
-0.0005872243,-0.0002671454,1,1
-0.0006048895,-0.0002567732,1,1
-0.0005867381,-0.0002392702,1,1
-0.000539253,-0.0002170672,1,1
-0.000477182,-0.0001955125,1,1
-0.0004170558,-0.0001801163,1,1
-0.0003763774,-0.0001697442,1,1
-0.0003726499,-0.00015451,1,1
-0.0004138145,-0.000122259,1,1
-0.0004893369,-5.710876e-05,1,1
-0.0005693972,4.547859e-05,1,1
-0.0006180168,0.0001636242,1,1
-0.0006204477,0.0002675081,1,1
-0.0005883588,0.0003321722,1,1
-0.0005630766,0.0003470822,1,1
-0.0005865761,0.0003208276,1,1
-0.0006745775,0.0002754493,1,1
-0.0008027712,0.0002363916,1,1
-0.0009290201,0.0002187264,1,1
-0.001010539,0.0002206712,1,1
-0.001015725,0.0002303951,1,1
-0.0009188099,0.0002362295,1,1
-0.000707963,0.0002336365,1,1
-0.0003872358,0.0002269918,1,1
1.792748e-05,0.0002216436,1,1
0.0004459421,0.0002203471,1,1
0.0008060515,0.0002195368,1,1
0.001020302,0.0002158093,1,1
0.001063411,0.0002038164,1,1
0.000975572,0.0001832341,1,1
0.0008340888,0.0001566554,1,1
0.000708326,0.000128456,1,1
0.0006289139,0.0001026876,1,1
0.0005877494,8.340187e-05,1,1
0.0005684635,7.20573e-05,1,1
0.0005592257,6.768154e-05,1,1
0.0005392918,6.492643e-05,1,1
0.0004916445,5.828175e-05,1,1
0.0004094774,4.742337e-05,1,1
0.0003034866,3.948217e-05,1,1
0.0001850168,4.02925e-05,1,1
4.612685e-05,4.953022e-05,1,1
-0.0001274451,5.828175e-05,1,1
-0.000338292,5.666109e-05,1,1
-0.0005616181,4.191315e-05,1,1
-0.0007518827,1.776542e-05,1,1
-0.0008627353,-1.286493e-05,1,1
-0.0008674352,-4.138842e-05,1,1
-0.0007713305,-6.132246e-05,1,1
-0.0006069963,-7.137051e-05,1,1
-0.0004206212,-7.477388e-05,1,1
-0.0002533699,-7.914964e-05,1,1
-0.0001319829,-8.628052e-05,1,1
-6.81292e-05,-9.600444e-05,1,1
-5.095028e-05,-0.0001107524,1,1
-5.500191e-05,-0.0001302002,1,1
-5.905355e-05,-0.0001478653,1,1
-5.078821e-05,-0.0001605064,1,1
-2.242678e-05,-0.0001676373,1,1
3.040651e-05,-0.0001707166,1,1
0.0001033359,-0.0001705545,1,1
0.0001814514,-0.0001639098,1,1
0.000244981,-0.0001506204,1,1
0.0002791768,-0.0001303623,1,1
0.0002848491,-0.0001079973,1,1
0.00027707,-8.725291e-05,1,1
0.0002702632,-6.958779e-05,1,1
0.0002731804,-5.856735e-05,1,1
0.0002829043,-5.483985e-05,1,1
0.0002858215,-6.116039e-05,1,1
0.0002694529,-7.315322e-05,1,1
0.0002381743,-8.384954e-05,1,1
0.000210137,-9.081835e-05,1,1
0.0001944166,-9.746302e-05,1,1
0.0001921477,-0.0001079973,1,1
0.0001940925,-0.0001167488,1,1
0.0001842065,-0.0001169109,1,1
0.0001558451,-0.0001120489,1,1
0.0001091703,-0.0001120489,1,1
5.082674e-05,-0.0001217728,1,1
-5.89612e-06,-0.0001344139,1,1
-4.138842e-05,-0.000137169,1,1
-3.928157e-05,-0.0001240417,1,1
4.47606e-06,-9.843541e-05,1,1
7.740546e-05,-6.699475e-05,1,1
0.0001451488,-3.652646e-05,1,1
0.0001718896,-1.237873e-05,1,1
0.000145797,7.717366e-06,1,1
8.680524e-05,3.543054e-05,1,1
2.975825e-05,9.426025e-05,1,1
3.341602e-06,0.0001893926,1,1
1.403791e-05,0.0002944109,1,1
4.677511e-05,0.0003670162,1,1
7.967438e-05,0.0003806297,1,1
0.0001031738,0.0003410858,1,1
0.0001216493,0.0002717218,1,1
0.0001430419,0.0002031682,1,1
0.0001710792,0.0001563313,1,1
0.000200251,0.00013818,1,1
0.000210137,0.0001469315,1,1
0.0001756171,0.0001712413,1,1
9.101894e-05,0.0002023578,1,1
-2.42095e-05,0.0002286124,1,1
-0.0001415448,0.0002410915,1,1
-0.0002279256,0.0002359054,1,1
-0.0002564491,0.0002180782,1,1
-0.0002243602,0.0001984683,1,1
-0.0001524032,0.00018291,1,1
-6.91016e-05,0.0001743205,1,1
3.341602e-06,0.0001717275,1,1
6.346784e-05,0.0001726999,1,1
0.0001240803,0.0001723757,1,1
0.0001996027,0.0001692965,1,1
0.0002906835,0.0001620036,1,1
0.0003877606,0.0001550348,1,1
0.0004824068,0.000150659,1,1
0.0005674912,0.000148228,1,1
0.0006402585,0.0001436902,1,1
0.0006955228,0.0001355869,1,1
0.0007097846,0.0001252147,1,1
0.0006491721,0.0001151667,1,1
0.0004824068,0.0001056048,1,1
0.0002047888,9.31258e-05,1,1
-0.0001478653,7.384002e-05,1,1
-0.0005001953,5.066468e-05,1,1
-0.0007735994,2.359977e-05,1,1
-0.0009259408,-3.789272e-06,1,1
-0.0009638641,-2.745081e-05,1,1
-0.0009366371,-4.511593e-05,1,1
-0.0009129756,-5.872941e-05,1,1
-0.0009269132,-6.877746e-05,1,1
-0.0009632158,-7.688073e-05,1,1
-0.0009675916,-8.871149e-05,1,1
-0.0008883416,-0.0001031353,1,1
-0.0007039114,-0.0001185315,1,1
-0.0004306693,-0.0001327933,1,1
-9.956988e-05,-0.0001459206,1,1
0.000252274,-0.0001562927,1,1
0.0005804563,-0.0001601823,1,1
0.0008558056,-0.000159372,1,1
0.001067787,-0.0001517549,1,1
0.001226774,-0.0001421931,1,1
0.001352374,-0.0001358725,1,1
0.001466144,-0.0001355484,1,1
0.001580077,-0.0001368449,1,1
0.001683799,-0.0001368449,1,1
0.001751704,-0.0001358725,1,1
0.001759321,-0.000137169,1,1
0.001700005,-0.0001455964,1,1
0.001579753,-0.0001608306,1,1
0.001413959,-0.0001796301,1,1
0.001221588,-0.0001950263,1,1
0.001019978,-0.0001963229,1,1
0.0008293889,-0.000176875,1,1
0.0006652166,-0.0001407345,1,1
0.0005222749,-9.940781e-05,1,1
0.0003793332,-6.667062e-05,1,1
0.0002090025,-4.916756e-05,1,1
-5.085794e-06,-4.171256e-05,1,1
-0.0002609869,-2.971972e-05,1,1
-0.0005301774,-7.678839e-06,1,1
-0.0007637134,2.068259e-05,1,1
-0.0009188099,4.499239e-05,1,1
-0.0009776396,5.325772e-05,1,1
-0.0009549505,4.239934e-05,1,1
-0.0008838038,1.063454e-05,1,1
-0.0008043919,-3.571614e-05,1,1
-0.0007397278,-8.190475e-05,1,1
-0.0006890013,-0.0001102662,1,1
-0.0006405439,-0.0001109144,1,1
-0.000586414,-9.2439e-05,1,1
-0.0005275843,-6.472583e-05,1,1
-0.000469727,-2.939559e-05,1,1
-0.0004219178,1.614476e-05,1,1
-0.0003891806,6.962632e-05,1,1
-0.0003721637,0.0001328318,1,1
-0.000370543,0.000210137,1,1
-0.0003838324,0.0002974902,1,1
-0.0004047388,0.0003754436,1,1
-0.0004288866,0.0004247115,1,1
-0.0004569239,0.000435732,1,1
-0.0004941989,0.0004154738,1,1
-0.0005436288,0.0003723644,1,1
-0.0005977586,0.0003162898,1,1
-0.0006431369,0.000254867,1,1
-0.0006651777,0.000200251,1,1
-0.0006488092,0.0001594105,1,1
-0.0005907898,0.0001342904,1,1
-0.0005074882,0.0001218114,1,1
-0.0004287245,0.0001171115,1,1
-0.0003857772,0.0001078737,1,1
-0.0003990665,8.79397e-05,1,1
-0.0004612996,5.893001e-05,1,1
-0.0005484907,2.781346e-05,1,1
-0.0006313061,2.855407e-06,1,1
-0.0006898117,-1.659243e-05,1,1
-0.00072028,-3.571614e-05,1,1
-0.0007283832,-5.727083e-05,1,1
-0.0007243316,-8.02841e-05,1,1
-0.0007084492,-9.940781e-05,1,1
-0.0006718224,-0.0001105903,1,1
-0.000601162,-0.0001156143,1,1
-0.0004903093,-0.0001133454,1,1
-0.0003472056,-0.0001076731,1,1
-0.0001914609,-0.0001018388,1,1
-4.625038e-05,-9.746302e-05,1,1
7.189524e-05,-9.065628e-05,1,1
0.0001391524,-7.380149e-05,1,1
0.0001399627,-4.268495e-05,1,1
8.04847e-05,-2.168618e-06,1,1
-2.006553e-06,3.478228e-05,1,1
-6.083626e-05,5.050261e-05,1,1
-6.148453e-05,3.688912e-05,1,1
3.341602e-06,-1.196227e-06,1,1
0.0001193804,-4.754691e-05,1,1
0.0002600531,-8.903562e-05,1,1
0.0003921364,-0.0001139937,1,1
0.0004777069,-0.0001225832,1,1
0.0004882411,-0.0001208004,1,1
0.0004221185,-0.0001161005,1,1
0.0002971661,-0.0001144799,1,1
0.0001446626,-0.0001203142,1,1
5.86492e-07,-0.0001308485,1,1
-9.260107e-05,-0.0001428413,1,1
-9.568031e-05,-0.0001515928,1,1
6.096713e-06,-0.0001556445,1,1
0.0001863134,-0.0001532135,1,1
0.0003884089,-0.0001396,1,1
0.0005503122,-0.0001154523,1,1
0.0006225934,-8.838737e-05,1,1
0.0005809425,-6.748094e-05,1,1
0.0004341113,-6.051213e-05,1,1
0.0002286124,-6.731888e-05,1,1
2.829966e-05,-7.817725e-05,1,1
-0.0001224211,-8.303922e-05,1,1
-0.0002136638,-7.769106e-05,1,1
-0.0002664971,-5.970181e-05,1,1
-0.0003144685,-3.393342e-05,1,1
-0.0003839945,-7.192643e-06,1,1
-0.000477182,1.403791e-05,1,1
-0.0005583767,2.538249e-05,1,1
-0.0005852795,2.81376e-05,1,1
-0.0005322842,2.473423e-05,1,1
-0.0003955011,1.695509e-05,1,1
-0.0001848162,1.371378e-05,1,1
7.367795e-05,1.938607e-05,1,1
0.0003414099,3.462021e-05,1,1
0.0005811046,5.61749e-05,1,1
0.000772666,7.983644e-05,1,1
0.0009097734,9.977047e-05,1,1
0.0009961543,0.0001164632,1,1
0.001046881,0.0001323456,1,1
0.001078321,0.0001495245,1,1
0.001107331,0.0001668655,1,1
0.001143958,0.0001833962,1,1
0.001191119,0.0001986303,1,1
0.001249625,0.0002104611,1,1
0.001313965,0.0002184023,1,1
0.001381384,0.0002232643,1,1
0.001451721,0.0002248849,1,1
0.00151914,0.0002203471,1,1
0.001572135,0.0002115956,1,1
0.001584939,0.0002059233,1,1
0.001530971,0.0002065715,1,1
0.001392891,0.00021273,1,1
0.001162434,0.0002198609,1,1
0.000837168,0.0002209954,1,1
0.0004300596,0.0002135403,1,1
-1.756482e-05,0.0002012234,1,1
-0.000449955,0.0001856651,1,1
-0.0008212466,0.000168162,1,1
-0.001098054,0.0001509831,1,1
-0.00126174,0.0001375317,1,1
-0.001309711,0.0001295905,1,1
-0.001253475,0.0001227837,1,1
-0.00112204,0.0001150046,1,1
-0.0009440921,0.0001026876,1,1
-0.0007445897,8.583286e-05,1,1
-0.0005399013,7.027458e-05,1,1
-0.0003428299,5.909208e-05,1,1
-0.0001611547,5.115087e-05,1,1
5.772582e-06,4.175109e-05,1,1
0.0001571416,2.910999e-05,1,1
0.0002884145,1.533444e-05,1,1
0.000401212,5.610517e-06,1,1
0.0004947237,-1.358292e-06,1,1
0.000564574,-7.192643e-06,1,1
0.000609466,-1.286493e-05,1,1
0.0006297242,-2.161646e-05,1,1
0.0006211348,-3.360929e-05,1,1
0.0005789978,-4.932962e-05,1,1
0.0004939134,-6.423963e-05,1,1
0.0003572923,-7.850138e-05,1,1
0.0001848548,-9.098041e-05,1,1
1.160693e-05,-0.0001060525,1,1
-0.0001366828,-0.0001243659,1,1
-0.0002523975,-0.0001454344,1,1
-0.0003416954,-0.000169258,1,1
-0.0004107352,-0.0001972953,1,1
-0.0004668098,-0.0002297083,1,1
-0.0005238568,-0.000266011,1,1
-0.0005904656,-0.0003002067,1,1
-0.0006653398,-0.0003238683,1,1
-0.0007369727,-0.0003271096,1,1
-0.0007894818,-0.0003062031,1,1
-0.0008094159,-0.000261311,1,1
-0.0007860785,-0.0002000504,1,1
-0.0007170386,-0.000144462,1,1
-0.0006133168,-0.000119828,1,1
-0.000489661,-0.0001240417,1,1
-0.0003596847,-0.0001342519,1,1
-0.0002345703,-0.0001216107,1,1
-0.0001190177,-6.456377e-05,1,1
-1.610624e-05,3.55926e-05,1,1
7.108491e-05,0.0001461212,1,1
0.0001370455,0.000222616,1,1
0.0001644345,0.0002380122,1,1
0.0001375317,0.0001987924,1,1
6.184718e-05,0.0001367214,1,1
-3.63644e-05,8.615699e-05,1,1
-0.0001269589,6.930219e-05,1,1
-0.000194216,9.296373e-05,1,1
-0.0002481838,0.0001406109,1,1
-0.0003045825,0.000185341,1,1
-0.0003723258,0.0002078681,1,1
-0.0004470379,0.0002049509,1,1
-0.0005084606,0.0001822617,1,1
-0.000539253,0.0001466074,1,1
-0.0005322842,0.0001088461,1,1
-0.0004985746,7.319176e-05,1,1
-0.0004570859,3.786152e-05,1,1
-0.00042759,5.934648e-06,1,1
-0.0004198109,-1.724069e-05,1,1
-0.000439907,-3.101625e-05,1,1
-0.0004953333,-3.441962e-05,1,1
-0.0005784728,-2.939559e-05,1,1
-0.0006603158,-2.0482e-05,1,1
-0.0007069906,-1.967167e-05,1,1
-0.0007021286,-3.328516e-05,1,1
-0.0006551297,-5.808115e-05,1,1
-0.0005830107,-7.039812e-05,1,1
-0.0005003574,-3.944364e-05,1,1
-0.0004193247,4.35338e-05,1,1
-0.0003481781,0.0001574657,1,1
-0.0002849726,0.0002592428,1,1
-0.0002125294,0.0003125623,1,1
-0.0001178833,0.0003015418,1,1
2.693341e-06,0.0002367157,1,1
0.0001386662,0.0001446626,1,1
0.0002744769,5.666109e-05,1,1
0.0003892192,-8.813297e-06,1,1
0.0004673347,-4.576419e-05,1,1
0.0005057442,-5.986387e-05,1,1
0.0005141716,-5.840528e-05,1,1
0.0005153061,-4.80331e-05,1,1
0.0005459364,-3.117831e-05,1,1
0.000634262,-4.275467e-06,1,1
0.0007836864,4.223728e-05,1,1
0.0009624446,0.000113384,1,1
0.001108952,0.0001973338,1,1
0.001168106,0.0002658874,1,1
0.001126941,0.0002903593,1,1
0.00102014,0.0002621599,1,1
0.0008924323,0.0001965235,1,1
0.0007622938,0.0001213252,1,1
0.0006153004,6.217132e-05,1,1
0.0004329769,2.943412e-05,1,1
0.0002153231,1.679302e-05,1,1
-1.934754e-05,1.12828e-05,1,1
-0.000246401,4.313994e-06,1,1
-0.0004408794,-7.192643e-06,1,1
-0.0005836589,-2.550602e-05,1,1
-0.0006640433,-4.819517e-05,1,1
-0.0006867325,-7.104638e-05,1,1
-0.000668257,-9.373552e-05,1,1
-0.0006304958,-0.0001154523,1,1
-0.0005932208,-0.000134576,1,1
-0.0005687489,-0.0001486757,1,1
-0.0005663179,-0.0001527273,1,1
-0.0005904656,-0.0001413827,1,1
-0.0006348715,-0.0001109144,1,1
-0.0006828429,-6.877746e-05,1,1
-0.0007078009,-3.63644e-05,1,1
-0.0006875428,-3.26369e-05,1,1
-0.0006055377,-6.342931e-05,1,1
-0.0004551412,-0.0001156143,1,1
-0.0002454286,-0.0001710407,1,1
-2.81688e-06,-0.0002193361,1,1
0.0002373639,-0.0002556388,1,1
0.0004405939,-0.0002768693,1,1
0.0005817529,-0.000281083,1,1
0.0006517651,-0.0002655248,1,1
0.0006629477,-0.0002352185,1,1
0.0006430136,-0.0002006986,1,1
0.0006148142,-0.0001703924,1,1
0.0005903424,-0.0001459206,1,1
0.000572029,-0.0001306864,1,1
0.0005580913,-0.0001212866,1,1
0.0005436675,-0.0001105903,1,1
0.0005268127,-9.162867e-05,1,1
0.000502827,-6.634648e-05,1,1
0.0004822447,-4.122636e-05,1,1
0.0004843516,-2.404744e-05,1,1
0.0005227611,-1.821308e-05,1,1
0.0005861287,-2.09682e-05,1,1
0.000636531,-2.696461e-05,1,1
0.0006344241,-3.004385e-05,1,1
0.000562143,-2.291298e-05,1,1
0.0004295735,-4.275467e-06,1,1
0.0002730183,2.052053e-05,1,1
0.0001341283,4.45062e-05,1,1
3.753739e-05,6.508849e-05,1,1
-2.226472e-05,7.999851e-05,1,1
-6.634648e-05,8.939829e-05,1,1
-0.000114804,9.458438e-05,1,1
-0.0001663408,9.993253e-05,1,1
-0.0002044261,0.0001107909,1,1
-0.0002105846,0.0001291043,1,1
-0.0001765509,0.0001470936,1,1
-0.0001063766,0.0001582761,1,1
-1.221667e-05,0.0001582761,1,1
8.777764e-05,0.0001511452,1,1
0.0001654069,0.0001451488,1,1
0.0001940925,0.0001453108,1,1
0.0001697827,0.0001495245,1,1
0.0001107909,0.00015309,1,1
4.628891e-05,0.0001534141,1,1
2.207145e-06,0.0001547106,1,1
-1.20546e-05,0.0001598967,1,1
-5.409925e-06,0.0001696206,1,1
6.582909e-06,0.0001817755,1,1
1.047248e-05,0.0001944166,1,1
2.855407e-06,0.000202844,1,1
-1.562004e-05,0.0002038164,1,1
-4.090223e-05,0.0001997648,1,1
-7.250496e-05,0.0001910133,1,1
-0.0001070249,0.0001757791,1,1
-0.0001402483,0.0001561692,1,1
-0.0001707166,0.0001380179,1,1
-0.00019924,0.0001269974,1,1
-0.0002253326,0.0001260251,1,1
-0.0002483458,0.000133318,1,1
-0.000268604,0.0001419075,1,1
-0.0002852967,0.0001420695,1,1
-0.000303448,0.0001276457,1,1
-0.00032322,0.0001025256,1,1
-0.0003457471,7.173317e-05,1,1
-0.0003687603,4.077869e-05,1,1
-0.0003849669,1.64689e-05,1,1
-0.0003833462,5.286387e-06,1,1
-0.000360333,3.989864e-06,1,1
-0.0003267854,5.286387e-06,1,1
-0.0002993964,5.610517e-06,1,1
-0.0002840002,1.883015e-06,1,1
-0.0002703867,-9.785688e-06,1,1
-0.0002397564,-2.923353e-05,1,1
-0.0001828714,-5.030202e-05,1,1
-0.000104918,-6.634648e-05,1,1
-1.772689e-05,-7.363943e-05,1,1
6.03886e-05,-7.282909e-05,1,1
0.0001188942,-7.072225e-05,1,1
0.0001644345,-7.428769e-05,1,1
0.0002106232,-8.563225e-05,1,1
0.0002668598,-0.000102325,1,1
0.0003388169,-0.0001214487,1,1
0.0004266563,-0.0001405724,1,1
0.0005245438,-0.0001582375,1,1
0.0006334517,-0.0001733096,1,1
0.0007483562,-0.000184168,1,1
0.0008640709,-0.0001955125,1,1
0.000968279,-0.0002107467,1,1
0.001046557,-0.0002246843,1,1
0.001082697,-0.0002316531,1,1
0.001041046,-0.0002290601,1,1
0.0008789809,-0.0002149604,1,1
0.0005934216,-0.0001888679,1,1
0.0002268297,-0.0001517549,1,1
-0.0001548341,-0.0001037836,1,1
-0.0004875542,-4.868137e-05,1,1
-0.000727897,4.80019e-06,1,1
-0.0008609526,4.936815e-05,1,1
-0.0008993621,8.080883e-05,1,1
-0.000871811,9.782569e-05,1,1
-0.000807471,0.000106091,1,1
-0.0007209282,0.0001094944,1,1
-0.0006170443,0.0001088461,1,1
-0.0004919299,0.0001046324,1,1
-0.0003339163,9.701536e-05,1,1
-0.0001433275,8.502253e-05,1,1
7.416415e-05,7.124698e-05,1,1
0.0003081865,6.006447e-05,1,1
0.0005420469,5.94162e-05,1,1
0.0007418735,7.108491e-05,1,1
0.000874281,9.085688e-05,1,1
0.0009209559,0.0001124116,1,1
0.0008882187,0.0001299146,1,1
0.0008002172,0.0001417454,1,1
0.0006832058,0.0001453108,1,1
0.0005580913,0.000145797,1,1
0.0004396215,0.0001433661,1,1
0.0003397893,0.0001386662,1,1
0.000262322,0.000130887,1,1
0.0002120818,0.0001201907,1,1
0.0002034923,0.0001096565,1,1
0.0002485465,0.0001028497,1,1
0.0003420582,0.0001025256,1,1
0.0004540453,0.0001049566,1,1
0.0005370228,0.0001116012,1,1
0.0005503122,0.000123432,1,1
0.0004812723,0.0001389903,1,1
0.0003496752,0.0001492004,1,1
0.0001902029,0.000145797,1,1
3.802358e-05,0.0001291043,1,1
-8.498399e-05,0.0001101427,1,1
-0.000171851,9.814982e-05,1,1
-0.0002263049,9.458438e-05,1,1
-0.0002546664,9.652917e-05,1,1
-0.0002690902,9.68533e-05,1,1
-0.0002888622,9.053275e-05,1,1
-0.0003240303,7.465034e-05,1,1
-0.0003731361,5.406805e-05,1,1
-0.0004321279,3.267542e-05,1,1
-0.0005018159,1.306552e-05,1,1
-0.0005823624,-6.382317e-06,1,1
-0.0006742534,-2.501983e-05,1,1
-0.0007771649,-4.300908e-05,1,1
-0.000884128,-5.435365e-05,1,1
-0.0009841222,-6.180866e-05,1,1
-0.001053162,-6.780507e-05,1,1
-0.001065803,-7.33153e-05,1,1
-0.001004056,-7.33153e-05,1,1
-0.0008815349,-6.245691e-05,1,1
-0.0007460483,-3.701266e-05,1,1
-0.0006523746,-3.789272e-06,1,1
-0.0006418404,2.700314e-05,1,1
-0.0007272488,4.677511e-05,1,1
-0.0008899623,4.72613e-05,1,1
-0.001080551,2.457216e-05,1,1
-0.001244075,-1.335113e-05,1,1
-0.001338721,-4.949169e-05,1,1
-0.001338721,-7.250496e-05,1,1
-0.001240672,-8.222889e-05,1,1
-0.001056565,-8.336335e-05,1,1
-0.0008094159,-8.109443e-05,1,1
-0.0005285567,-7.785312e-05,1,1
-0.0002449425,-7.55842e-05,1,1
1.857574e-05,-7.60704e-05,1,1
0.0002443328,-8.07703e-05,1,1
0.0004198496,-9.2439e-05,1,1
0.000549826,-0.0001050801,1,1
0.0006517651,-0.0001050801,1,1
0.0007464114,-8.255302e-05,1,1
0.0008383025,-3.879538e-05,1,1
0.0009182008,1.160693e-05,1,1
0.0009684411,5.082674e-05,1,1
0.0009778409,6.444023e-05,1,1
0.0009473725,4.693717e-05,1,1
0.0008838429,5.448452e-06,1,1
0.0008008654,-4.349527e-05,1,1
0.0007067053,-8.352541e-05,1,1
0.000609304,-0.0001055663,1,1
0.0005138475,-0.0001105903,1,1
0.0004195254,-0.0001068628,1,1
0.0003203414,-0.000102325,1,1
0.00021273,-9.746302e-05,1,1
0.0001026876,-9.357346e-05,1,1
-1.520357e-06,-9.146661e-05,1,1
-8.903562e-05,-9.260107e-05,1,1
-0.0001562927,-9.730096e-05,1,1
-0.000201509,-0.0001003802,1,1
-0.0002182017,-9.827335e-05,1,1
-0.0002068571,-8.482193e-05,1,1
-0.0001844921,-5.662256e-05,1,1
-0.0001684476,-2.194059e-05,1,1
-0.0001592099,4.962256e-06,1,1
-0.0001451102,1.306552e-05,1,1
-0.0001229073,8.689758e-06,1,1
-8.903562e-05,2.693341e-06,1,1
-3.539201e-05,5.610517e-06,1,1
4.320967e-05,1.760335e-05,1,1
0.0001370455,3.154097e-05,1,1
0.0002269918,4.320967e-05,1,1
0.0002992729,5.682316e-05,1,1
0.0003498373,8.226741e-05,1,1
0.0003882468,0.000118408,1,1
0.0004290873,0.0001470936,1,1
0.0004783552,0.0001466074,1,1
0.0005315126,0.0001098185,1,1
0.000574622,5.082674e-05,1,1
0.0005974732,-8.002969e-06,1,1
0.000599418,-4.722278e-05,1,1
0.000586939,-5.775702e-05,1,1
0.00056976,-4.657452e-05,1,1
0.0005629533,-2.777494e-05,1,1
0.0005738117,-4.923729e-06,1,1
0.0005986077,2.797553e-05,1,1
0.00061919,7.691926e-05,1,1
0.0006086557,0.0001410971,1,1
0.0005514466,0.0002156472,1,1
0.0004475628,0.0002819319,1,1
0.0003030004,0.0003230965,1,1
0.0001242423,0.0003333067,1,1
-7.866345e-05,0.0003183966,1,1
-0.0002974516,0.0002897111,1,1
-0.0005262878,0.0002525981,1,1
-0.0007496137,0.0002073819,1,1
-0.0009405267,0.0001550348,1,1
-0.001073258,9.896015e-05,1,1
-0.001131602,4.807163e-05,1,1
-0.00112366,8.851824e-06,1,1
-0.001070989,-1.610624e-05,1,1
-0.0009936841,-2.971972e-05,1,1
-0.0008988759,-3.474375e-05,1,1
-0.0007860785,-3.733679e-05,1,1
-0.0006588572,-4.641245e-05,1,1
-0.0005198052,-6.731888e-05,1,1
-0.0003650328,-9.973194e-05,1,1
-0.0001896782,-0.0001353863,1,1
1.720949e-06,-0.0001608306,1,1
0.0001924718,-0.0001710407,1,1
0.0003519442,-0.0001640719,1,1
0.0004538833,-0.0001467309,1,1
0.0004992616,-0.0001316588,1,1
0.0005153061,-0.0001261486,1,1
0.0005357263,-0.0001290658,1,1
0.0005700842,-0.0001352242,1,1
0.0006110868,-0.0001394379,1,1
0.0006428516,-0.0001397621,1,1
0.0006639201,-0.0001336036,1,1
0.0006986021,-0.000119828,1,1
0.0007708832,-9.956988e-05,1,1
0.0008801154,-7.720486e-05,1,1
0.0009951819,-5.629844e-05,1,1
0.001077187,-3.830919e-05,1,1
0.001102956,-2.080613e-05,1,1
0.001066653,-1.358292e-06,1,1
0.000973141,1.906194e-05,1,1
0.0008287407,3.818565e-05,1,1
0.0006472273,5.504044e-05,1,1
0.00046069,6.816773e-05,1,1
0.0003055935,7.659513e-05,1,1
0.0001968476,7.837785e-05,1,1
0.000128456,7.108491e-05,1,1
8.761557e-05,5.61749e-05,1,1
6.022653e-05,3.948217e-05,1,1
4.02925e-05,2.295151e-05,1,1
2.424803e-05,1.322759e-05,1,1
4.962256e-06,1.663096e-05,1,1
-2.84232e-05,3.624086e-05,1,1
-8.725291e-05,6.541262e-05,1,1
-0.0001771992,9.620504e-05,1,1
-0.0002925897,0.0001175977,1,1
-0.000422566,0.0001247285,1,1
-0.0005497872,0.0001232699,1,1
-0.0006564262,0.0001177597,1,1
-0.0007337314,0.0001154908,1,1
-0.0007831613,0.0001245665,1,1
-0.0008158985,0.0001448246,1,1
-0.0008402083,0.0001738343,1,1
-0.0008562527,0.0002012234,1,1
-0.000859494,0.0002180782,1,1
-0.0008517149,0.0002218057,1,1
-0.0008301602,0.0002169437,1,1
-0.0007974231,0.0002070577,1,1
-0.0007661444,0.000195389,1,1
-0.0007457242,0.000180479,1,1
-0.000740214,0.0001613553,1,1
-0.000740214,0.0001363972,1,1
-0.0007189835,0.0001096565,1,1
-0.0006494574,8.84259e-05,1,1
-0.0005230465,7.821578e-05,1,1
-0.0003476919,8.129502e-05,1,1
-0.0001423551,9.053275e-05,1,1
7.189524e-05,9.750156e-05,1,1
0.0002739907,0.0001041462,1,1
0.0004461041,0.0001132219,1,1
0.0005726772,0.0001257009,1,1
0.000654034,0.000135911,1,1
0.00071335,0.0001367214,1,1
0.0007861174,0.0001253768,1,1
0.0008789809,0.0001041462,1,1
0.0009579068,7.886404e-05,1,1
0.000975572,5.633696e-05,1,1
0.0009096113,4.013043e-05,1,1
0.0007738004,2.846173e-05,1,1
0.0006029835,1.938607e-05,1,1
0.0004329769,1.095867e-05,1,1
0.0002879283,4.80019e-06,1,1
0.0001816135,4.244267e-07,1,1
0.0001203528,-5.085794e-06,1,1
0.0001022015,-1.513384e-05,1,1
0.0001175977,-3.328516e-05,1,1
0.0001410971,-5.662256e-05,1,1
0.0001338042,-8.158062e-05,1,1
6.751948e-05,-0.0001041077,1,1
-5.791909e-05,-0.0001229073,1,1
-0.0002144742,-0.0001396,1,1
-0.0003708672,-0.0001525652,1,1
-0.0004976023,-0.000159534,1,1
-0.0005770142,-0.0001582375,1,1
-0.000608779,-0.0001488377,1,1
-0.0006056998,-0.0001357104,1,1
-0.0005841451,-0.0001212866,1,1
-0.0005577285,-0.0001067007,1,1
-0.0005337428,-9.503204e-05,1,1
-0.0005082985,-8.628052e-05,1,1
-0.0004750752,-7.931171e-05,1,1
-0.0004345588,-7.817725e-05,1,1
-0.0003901529,-8.336335e-05,1,1
-0.0003459091,-9.29252e-05,1,1
-0.0003126857,-0.0001044318,1,1
-0.0003026377,-0.0001170729,1,1
-0.0003224097,-0.0001292278,1,1
-0.0003627639,-0.0001425172,1,1
-0.0004018217,-0.000156941,1,1
-0.0004188385,-0.0001700683,1,1
-0.0004078181,-0.0001830335,1,1
-0.000370543,-0.0001930815,1,1
-0.0003188442,-0.0001943781,1,1
-0.0002663351,-0.0001861127,1,1
-0.000231491,-0.0001736337,1,1
-0.0002301945,-0.0001600202,1,1
-0.0002647144,-0.0001462447,1,1
-0.0003220855,-0.0001289037,1,1
-0.0003744326,-0.0001039456,1,1
-0.0003992286,-7.266703e-05,1,1
-0.0003998769,-3.895745e-05,1,1
-0.0003985804,1.396819e-06,1,1
-0.0004024699,5.682316e-05,1,1
-0.0003843186,0.0001245665,1,1
-0.0003078238,0.0001887444,1,1
-0.0001504584,0.0002292607,1,1
7.772959e-05,0.0002367157,1,1
0.0003420582,0.0002128921,1,1
0.0006049282,0.0001670276,1,1
0.0008391128,0.0001156529,1,1
0.001026785,7.335383e-05,1,1
0.001160165,4.402e-05,1,1
0.001250759,2.846173e-05,1,1
0.001319961,2.862379e-05,1,1
0.001382519,4.304761e-05,1,1
0.001442969,6.298164e-05,1,1
0.001497423,8.080883e-05,1,1
0.001529674,9.328786e-05,1,1
0.001514116,9.879808e-05,1,1
0.001415094,0.0001031738,1,1
0.001203598,0.0001119254,1,1
0.0008810877,0.0001248906,1,1
0.0004788414,0.0001389903,1,1
5.1475e-05,0.0001504969,1,1
-0.0003303509,0.0001553589,1,1
-0.0006055377,0.0001487142,1,1
-0.0007449139,0.0001316974,1,1
-0.0007523688,0.0001075496,1,1
-0.0006554538,7.789165e-05,1,1
-0.0004943609,5.066468e-05,1,1
-0.0003144685,3.170304e-05,1,1
-0.0001553203,1.582063e-05,1,1
-4.090223e-05,-3.858999e-07,1,1
2.084466e-05,-1.513384e-05,1,1
5.001642e-05,-2.404744e-05,1,1
7.90261e-05,-2.437157e-05,1,1
0.0001373696,-1.643037e-05,1,1
0.0002337985,-4.437533e-06,1,1
0.00035162,9.824215e-06,1,1
0.0004619866,2.278944e-05,1,1
0.0005456123,3.348575e-05,1,1
0.0005956905,3.996837e-05,1,1
0.000611735,3.93201e-05,1,1
0.0006031455,2.829966e-05,1,1
0.0005789978,9.986281e-06,1,1
0.0005376711,-5.734056e-06,1,1
0.0004713863,-1.529591e-05,1,1
0.0003697714,-1.918548e-05,1,1
0.0002295848,-2.031993e-05,1,1
5.99024e-05,-2.437157e-05,1,1
-0.0001169109,-3.312309e-05,1,1
-0.0002673075,-4.625038e-05,1,1
-0.0003590364,-6.197072e-05,1,1
-0.000370381,-8.141856e-05,1,1
-0.000300855,-0.0001031353,1,1
-0.0001729855,-0.0001201522,1,1
-3.377136e-05,-0.0001240417,1,1
5.925414e-05,-0.0001118868,1,1
6.444023e-05,-9.000802e-05,1,1
-3.053005e-05,-6.699475e-05,1,1
-0.0002029675,-4.884343e-05,1,1
-0.0004070078,-3.992984e-05,1,1
-0.0005953276,-3.895745e-05,1,1
-0.000735352,-4.300908e-05,1,1
-0.0008134675,-4.965376e-05,1,1
-0.0008337257,-5.824322e-05,1,1
-0.0008162226,-6.456377e-05,1,1
-0.0007804062,-6.278104e-05,1,1
-0.000737783,-5.095028e-05,1,1
-0.0006998597,-3.425755e-05,1,1
-0.0006692294,-1.740276e-05,1,1
-0.0006421645,-1.196227e-06,1,1
-0.00061121,1.322759e-05,1,1
-0.0005700454,2.522042e-05,1,1
-0.0005183466,3.397195e-05,1,1
-0.0004591928,3.802358e-05,1,1
-0.0003982562,3.834771e-05,1,1
-0.0003392644,3.802358e-05,1,1
-0.0002903207,4.35338e-05,1,1
-0.0002567732,6.055066e-05,1,1
-0.0002404046,8.42122e-05,1,1
-0.0002332737,0.0001052807,1,1
-0.0002219292,0.0001143563,1,1
-0.0001859507,0.0001101427,1,1
-0.0001050801,9.442231e-05,1,1
2.359977e-05,7.740546e-05,1,1
0.0001809652,6.541262e-05,1,1
0.000339303,5.504044e-05,1,1
0.0004670106,3.883391e-05,1,1
0.0005341057,1.484824e-05,1,1
0.0005232473,-9.137427e-06,1,1
0.0004380009,-2.712668e-05,1,1
0.0003008936,-2.923353e-05,1,1
0.0001438522,-6.706447e-06,1,1
2.369211e-06,4.337174e-05,1,1
-9.940781e-05,0.0001080358,1,1
-0.0001540238,0.0001626518,1,1
-0.0001681235,0.0001861513,1,1
-0.0001618029,0.0001722137,1,1
-0.0001598582,0.0001304008,1,1
-0.0001755785,8.032264e-05,1,1
-0.0002044261,3.656499e-05,1,1
-0.0002248464,5.286387e-06,1,1
-0.0002099363,-1.010982e-05,1,1
-0.000152079,-6.544382e-06,1,1
-6.796714e-05,1.306552e-05,1,1
1.857574e-05,4.191315e-05,1,1
0.000103498,7.011252e-05,1,1
0.0001939304,9.101894e-05,1,1
0.0002906835,0.0001017153,1,1
0.000383709,0.0001077117,1,1
0.0004553419,0.0001200286,1,1
0.0004919686,0.0001446626,1,1
0.0004909963,0.0001809652,1,1
0.000458097,0.0002253711,1,1
0.0004044533,0.0002696149,1,1
0.0003346032,0.0003030004,1,1
0.0002504913,0.0003124002,1,1
0.0001519555,0.0002908455,1,1
4.013043e-05,0.0002444948,1,1
-8.012204e-05,0.0001893926,1,1
-0.000208964,0.0001412592,1,1
-0.0003548227,0.0001081979,1,1
-0.0005131605,8.777764e-05,1,1
-0.0006554538,7.189524e-05,1,1
-0.0007410243,5.098881e-05,1,1
-0.000735352,2.214118e-05,1,1
-0.0006369784,-1.20546e-05,1,1
-0.0004865818,-4.365734e-05,1,1
-0.0003342404,-6.553616e-05,1,1
-0.0002107467,-8.07703e-05,1,1
-0.0001195039,-9.438378e-05,1,1
-4.80331e-05,-0.0001104282,1,1
1.825161e-05,-0.0001276072,1,1
8.631905e-05,-0.0001459206,1,1
0.0001569795,-0.0001650443,1,1
0.0002318537,-0.0001783336,1,1
0.0003075383,-0.0001822232,1,1
0.0003832228,-0.0001755785,1,1
0.0004572867,-0.0001616409,1,1
0.0005303781,-0.0001464067,1,1
0.0005995801,-0.0001344139,1,1
0.0006559788,-0.0001264727,1,1
0.0006896885,-0.0001238797,1,1
0.0006914712,-0.0001250141,1,1
0.000661165,-0.0001279313,1,1
0.0006021731,-0.0001263107,1,1
0.0005303781,-0.0001177212,1,1
0.0004558281,-0.0001050801,1,1
0.0003843572,-9.438378e-05,1,1
0.0003227724,-9.065628e-05,1,1
0.0002712356,-9.308726e-05,1,1
0.0002253711,-9.924574e-05,1,1
0.000178048,-0.0001016767,1,1
0.0001250527,-9.405965e-05,1,1
7.286763e-05,-7.995997e-05,1,1
2.781346e-05,-6.553616e-05,1,1
-1.562004e-05,-5.435365e-05,1,1
-6.48879e-05,-4.495386e-05,1,1
-0.0001256624,-3.344723e-05,1,1
-0.0001900023,-2.0482e-05,1,1
-0.0002412149,-4.599598e-06,1,1
-0.0002650386,1.047248e-05,1,1
-0.0002569353,2.149292e-05,1,1
-0.0002219292,2.716521e-05,1,1
-0.0001713648,2.992031e-05,1,1
-0.0001094559,3.283749e-05,1,1
-3.749886e-05,3.526847e-05,1,1
4.499239e-05,3.510641e-05,1,1
0.000133318,3.299956e-05,1,1
0.0002188885,2.878586e-05,1,1
0.0002948972,2.927205e-05,1,1
0.0003632887,3.98063e-05,1,1
0.0004368664,6.217132e-05,1,1
0.0005303781,9.037068e-05,1,1
0.0006410689,0.0001193804,1,1
0.0007472217,0.0001462832,1,1
0.0008232304,0.0001665414,1,1
0.0008562917,0.0001756171,1,1
0.0008405714,0.0001691344,1,1
0.0007755831,0.0001503349,1,1
0.0006721854,0.0001336421,1,1
0.0005507984,0.0001292664,1,1
0.0004336251,0.0001370455,1,1
0.0003286068,0.000145635,1,1
0.0002303951,0.0001425557,1,1
0.0001271595,0.0001206769,1,1
1.1769e-05,8.567078e-05,1,1
-0.0001161005,5.779555e-05,1,1
-0.0002429977,6.168512e-05,1,1
-0.0003465574,0.0001146805,1,1
-0.0004071698,0.0002112714,1,1
-0.0004191627,0.0003263378,1,1
-0.0003964735,0.0004250357,1,1
-0.000365519,0.0004747897,1,1
-0.0003507711,0.0004564763,1,1
-0.0003666535,0.0003743092,1,1
-0.0004078181,0.0002577842,1,1
-0.000449955,0.000143204,1,1
-0.0004711856,5.406805e-05,1,1
-0.0004606514,-3.14101e-06,1,1
-0.0004290486,-3.26369e-05,1,1
-0.0003940425,-4.738484e-05,1,1
-0.0003671397,-5.905355e-05,1,1
-0.0003519055,-7.315322e-05,1,1
-0.0003502849,-9.162867e-05,1,1
-0.000362926,-0.0001102662,1,1
-0.0003859393,-0.0001250141,1,1
-0.0004157593,-0.0001316588,1,1
-0.0004509274,-0.0001305243,1,1
-0.0004930644,-0.0001289037,1,1
-0.0005360117,-0.0001337657,1,1
-0.0005737729,-0.0001467309,1,1
-0.0005971103,-0.0001606685,1,1
-0.0006005137,-0.000169258,1,1
-0.0005822003,-0.0001700683,1,1
-0.0005437909,-0.0001661787,1,1
-0.0004875542,-0.0001645581,1,1
-0.0004185144,-0.0001712027,1,1
-0.0003459091,-0.0001857886,1,1
-0.0002793003,-0.0002021572,1,1
-0.0002207947,-0.0002126914,1,1
-0.000166827,-0.0002096122,1,1
-0.0001182074,-0.0001888679,1,1
-7.720486e-05,-0.0001585616,1,1
-4.090223e-05,-0.0001331174,1,1
-2.238346e-07,-0.0001259865,1,1
5.050261e-05,-0.0001339277,1,1
0.0001031738,-0.0001410586,1,1
0.0001420695,-0.0001344139,1,1
0.0001493625,-0.0001143178,1,1
0.0001218114,-8.935975e-05,1,1
7.30297e-05,-6.81292e-05,1,1
2.538249e-05,-5.32192e-05,1,1
-8.489166e-06,-4.349527e-05,1,1
-2.874733e-05,-4.074016e-05,1,1
-4.625038e-05,-4.398147e-05,1,1
-7.882551e-05,-5.176061e-05,1,1
-0.0001575893,-5.370539e-05,1,1
-0.0003040963,-4.997789e-05,1,1
-0.0005055434,-4.236082e-05,1,1
-0.0007225489,-3.296103e-05,1,1
-0.0009132997,-1.934754e-05,1,1
-0.0010436,-5.479652e-07,1,1
-0.001095785,2.278944e-05,1,1
-0.001061427,4.82337e-05,1,1
-0.0009543023,7.124698e-05,1,1
-0.000802285,9.26396e-05,1,1
-0.0006441093,0.0001141943,1,1
-0.0005121881,0.000133318,1,1
-0.0004123559,0.0001500107,1,1
-0.0003224097,0.000162976,1,1
-0.0002026434,0.0001738343,1,1
-1.691656e-05,0.0001814514,1,1
0.0002478982,0.0001845306,1,1
0.0005752703,0.000185341,1,1
0.0009230627,0.0001863134,1,1
0.001242656,0.0001887444,1,1
0.001496127,0.0001945787,1,1
0.001665161,0.0002031682,1,1
0.001749922,0.0002088404,1,1
0.001757863,0.0002062474,1,1
0.00171686,0.0001914995,1,1
0.001667916,0.000170431,1,1
0.001646686,0.0001542244,1,1
0.001663054,0.0001479039,1,1
0.001698547,0.0001503349,1,1
0.001721236,0.0001539003,1,1
0.001709081,0.0001516314,1,1
0.001664027,0.0001414213,1,1
0.001604062,0.0001260251,1,1
0.001539236,0.0001101427,1,1
0.001458365,9.231547e-05,1,1
0.001334547,7.20573e-05,1,1
0.001148982,4.969229e-05,1,1
0.0009102596,2.651694e-05,1,1
0.000651441,5.448452e-06,1,1
0.0004143393,-7.192643e-06,1,1
0.0002312055,-1.383732e-05,1,1
0.0001038221,-1.934754e-05,1,1
1.59827e-05,-2.809907e-05,1,1
-5.402952e-05,-4.236082e-05,1,1
-0.0001292278,-5.791909e-05,1,1
-0.000223874,-7.023606e-05,1,1
-0.0003301888,-7.785312e-05,1,1
-0.0004301831,-8.158062e-05,1,1
-0.0005121881,-8.190475e-05,1,1
-0.0005779866,-7.898758e-05,1,1
-0.0006326026,-7.574627e-05,1,1
-0.0006847876,-7.315322e-05,1,1
-0.0007510723,-6.81292e-05,1,1
-0.0008379394,-5.678463e-05,1,1
-0.0009337199,-4.219875e-05,1,1
-0.001009242,-3.053005e-05,1,1
-0.001044573,-2.453363e-05,1,1
-0.001038576,-2.599222e-05,1,1
-0.001004056,-3.117831e-05,1,1
-0.000958678,-3.701266e-05,1,1
-0.0009147583,-4.365734e-05,1,1
-0.0008711627,-5.402952e-05,1,1
-0.0008277292,-6.699475e-05,1,1
-0.0007804062,-8.012204e-05,1,1
-0.0007227109,-8.790117e-05,1,1
-0.0006475127,-9.033215e-05,1,1
-0.0005599973,-9.454585e-05,1,1
-0.0004778303,-0.0001050801,1,1
-0.0004282383,-0.0001173971,1,1
-0.0004269418,-0.0001255003,1,1
-0.0004682684,-0.0001269589,1,1
-0.0005258016,-0.0001188556,1,1
-0.000573935,-0.0001028112,1,1
-0.0005925725,-8.320128e-05,1,1
-0.0005749074,-6.48879e-05,1,1
-0.0005236948,-5.143648e-05,1,1
-0.000452224,-4.495386e-05,1,1
-0.0003867496,-4.544006e-05,1,1
-0.0003515814,-4.965376e-05,1,1
-0.0003561192,-5.370539e-05,1,1
-0.0003886944,-5.678463e-05,1,1
-0.0004269418,-5.613637e-05,1,1
-0.0004486585,-4.657452e-05,1,1
-0.0004339106,-3.247483e-05,1,1
-0.0003702189,-2.0482e-05,1,1
-0.0002564491,-9.947754e-06,1,1
-0.0001067007,3.017472e-06,1,1
5.228533e-05,2.359977e-05,1,1
0.0001936063,4.790957e-05,1,1
0.0003000832,6.995045e-05,1,1
0.0003733368,8.550872e-05,1,1
0.000435894,9.199134e-05,1,1
0.0005067165,9.328786e-05,1,1
0.0005812666,9.377406e-05,1,1
0.000624052,9.782569e-05,1,1
0.0006047662,0.0001073875,1,1
0.0005203301,0.0001213252,1,1
0.000393757,0.0001422316,1,1
0.0002657254,0.0001654069,1,1
0.0001731861,0.000185341,1,1
0.0001373696,0.0001942546,1,1
0.000155683,0.0001890685,1,1
0.0002055991,0.0001773998,1,1
0.0002561635,0.0001645966,1,1
0.0002892249,0.0001527658,1,1
0.0003002453,0.0001363972,1,1
0.0002966799,0.0001137081,1,1
0.0002832284,8.956036e-05,1,1
0.0002571359,6.768154e-05,1,1
0.000215161,4.77475e-05,1,1
0.0001650828,3.218923e-05,1,1
0.0001206769,2.635488e-05,1,1
9.588091e-05,3.18651e-05,1,1
0.00010366,4.434413e-05,1,1
0.00013818,5.957827e-05,1,1
0.0001714034,7.837785e-05,1,1
0.0001825859,0.0001026876,1,1
0.0001662173,0.0001260251,1,1
0.0001336421,0.0001401247,1,1
0.0001054428,0.0001440143,1,1
9.588091e-05,0.000138342,1,1
0.0001020394,0.0001240803,1,1
0.0001122495,0.0001018773,1,1
0.0001099806,7.335383e-05,1,1
8.016057e-05,4.045456e-05,1,1
1.533444e-05,7.717366e-06,1,1
-7.428769e-05,-1.643037e-05,1,1
-0.000166989,-2.680255e-05,1,1
-0.0002381357,-2.745081e-05,1,1
-0.0002750866,-2.728874e-05,1,1
-0.0002825416,-3.004385e-05,1,1
-0.0002694143,-3.604027e-05,1,1
-0.0002373254,-4.284701e-05,1,1
-0.0001890299,-4.819517e-05,1,1
-0.0001350622,-5.159854e-05,1,1
-9.19528e-05,-5.613637e-05,1,1
-6.634648e-05,-6.359137e-05,1,1
-5.32192e-05,-7.282909e-05,1,1
-4.446767e-05,-8.530812e-05,1,1
-3.976777e-05,-0.0001010285,1,1
-4.38194e-05,-0.0001193418,1,1
-6.326724e-05,-0.0001387897,1,1
-9.697683e-05,-0.0001558065,1,1
-0.0001329553,-0.0001655305,1,1
-0.0001596961,-0.0001642339,1,1
-0.0001747682,-0.0001498101,1,1
-0.0001749302,-0.0001255003,1,1
-0.0001663408,-9.843541e-05,1,1
-0.0001639098,-7.60704e-05,1,1
-0.0001780095,-6.39155e-05,1,1
-0.0002036158,-6.294311e-05,1,1
-0.0002245222,-6.278104e-05,1,1
-0.0002230636,-5.257093e-05,1,1
-0.0001840059,-3.26369e-05,1,1
-0.0001031353,-1.902341e-05,1,1
-5.409925e-06,-2.518189e-05,1,1
7.20573e-05,-5.030202e-05,1,1
9.814982e-05,-8.125649e-05,1,1
6.541262e-05,-0.0001096179,1,1
-1.010982e-05,-0.0001298761,1,1
-9.940781e-05,-0.0001428413,1,1
-0.000176713,-0.0001502963,1,1
-0.0002229016,-0.0001541859,1,1
-0.0002198223,-0.0001499722,1,1
-0.0001564548,-0.0001350622,1,1
-3.377136e-05,-0.0001026491,1,1
0.0001351007,-3.830919e-05,1,1
0.0003331446,6.249545e-05,1,1
0.0005435055,0.000185503,1,1
0.0007511112,0.0002978143,1,1
0.0009308419,0.0003649094,1,1
0.001046719,0.0003730126,1,1
0.001083832,0.000331686,1,1
0.001053525,0.0002668598,1,1
0.0009885372,0.0002093267,1,1
0.0009173905,0.0001738343,1,1
0.0008661778,0.0001586002,1,1
0.0008446231,0.0001553589,1,1
0.0008455954,0.0001561692,1,1
0.0008486747,0.000155521,1,1
0.0008290648,0.0001492004,1,1
0.000780121,0.0001373696,1,1
0.0007073536,0.0001248906,1,1
0.0006195141,0.0001206769,1,1
0.0005276231,0.0001331559,1,1
0.0004371906,0.0001616794,1,1
0.0003477304,0.0001945787,1,1
0.0002529222,0.0002174299,1,1
0.0001470936,0.0002171058,1,1
2.635488e-05,0.0001937684,1,1
-0.0001096179,0.0001573037,1,1
-0.0002570974,0.0001221355,1,1
-0.0004037664,9.53947e-05,1,1
-0.0005373082,7.740546e-05,1,1
-0.0006488092,6.427817e-05,1,1
-0.0007321107,5.212327e-05,1,1
-0.0007930472,3.948217e-05,1,1
-0.0008377773,3.024445e-05,1,1
-0.0008672731,2.635488e-05,1,1
-0.0008774833,2.538249e-05,1,1
-0.0008617629,2.457216e-05,1,1
-0.0008212466,1.9224e-05,1,1
-0.0007645238,4.47606e-06,1,1
-0.0007159042,-2.177852e-05,1,1
-0.0006933771,-5.548811e-05,1,1
-0.0006859221,-8.887356e-05,1,1
-0.0006632329,-0.0001165867,1,1
-0.0006018102,-0.0001400862,1,1
-0.0004967919,-0.0001618029,1,1
-0.0003638984,-0.0001789819,1,1
-0.0002267911,-0.0001869231,1,1
-0.0001075111,-0.0001840059,1,1
-1.416145e-05,-0.0001708786,1,1
5.098881e-05,-0.0001532135,1,1
9.118101e-05,-0.0001302002,1,1
0.0001145184,-9.454585e-05,1,1
0.0001351007,-4.689865e-05,1,1
0.0001639484,-3.627206e-06,1,1
0.0001999268,1.906194e-05,1,1
0.0002453052,1.776542e-05,1,1
0.0003072141,1.558884e-06,1,1
0.0003916502,-1.902341e-05,1,1
0.000487755,-3.63644e-05,1,1
0.0005705704,-4.738484e-05,1,1
0.00061919,-5.500191e-05,1,1
0.0006214589,-6.310517e-05,1,1
0.0005749461,-7.039812e-05,1,1
0.0004825689,-7.33153e-05,1,1
0.0003603715,-6.926366e-05,1,1
0.0002255332,-6.0188e-05,1,1
9.150514e-05,-4.706071e-05,1,1
-2.988179e-05,-3.053005e-05,1,1
-0.0001269589,-1.075808e-05,1,1
-0.0001938919,8.041497e-06,1,1
-0.0002392702,2.181705e-05,1,1
-0.0002851347,2.603075e-05,1,1
-0.0003509331,1.808955e-05,1,1
-0.0004408794,2.531276e-06,1,1
-0.0005507597,-1.173047e-05,1,1
-0.0006749016,-1.886135e-05,1,1
-0.000797261,-1.464765e-05,1,1
-0.0008920691,-1.520357e-06,1,1
-0.0009296683,1.484824e-05,1,1
-0.0008880175,3.202716e-05,1,1
-0.0007635514,6.022653e-05,1,1
-0.0005755557,0.0001041462,1,1
-0.0003522297,0.0001577899,1,1
-0.0001185315,0.0001999268,1,1
0.0001122495,0.0002167816,1,1
0.0003245551,0.0002072198,1,1
0.0005042856,0.0001869616,1,1
0.0006444722,0.0001665414,1,1
0.0007569456,0.0001547106,1,1
0.0008707156,0.0001504969,1,1
0.001007499,0.000148228,1,1
0.001160327,0.00013818,1,1
0.001290303,0.000115977,1,1
0.001347026,8.161915e-05,1,1
0.001294841,4.272347e-05,1,1
0.001135693,5.772582e-06,1,1
0.0009083148,-2.210265e-05,1,1
0.0006626236,-3.441962e-05,1,1
0.000423415,-2.728874e-05,1,1
0.0001937684,-4.113403e-06,1,1
-3.296103e-05,2.441009e-05,1,1
-0.0002561249,5.001642e-05,1,1
-0.0004651892,7.432621e-05,1,1
-0.0006520505,0.0001044704,1,1
-0.000807309,0.0001423936,1,1
-0.0009231857,0.0001790204,1,1
-0.0009917393,0.0002034923,1,1
-0.001007622,0.0002044647,1,1
-0.0009724535,0.0001798307,1,1
-0.0008959587,0.0001406109,1,1
-0.000787537,9.847395e-05,1,1
-0.0006590193,6.638502e-05,1,1
-0.0005232086,5.682316e-05,1,1
-0.0003908012,6.865393e-05,1,1
-0.0002703867,8.550872e-05,1,1
-0.0001715269,8.826383e-05,1,1
-0.0001007043,7.30297e-05,1,1
-5.629844e-05,4.547859e-05,1,1
-2.696461e-05,1.517237e-05,1,1
-2.238346e-07,-1.464765e-05,1,1
4.061663e-05,-4.398147e-05,1,1
0.000105929,-7.104638e-05,1,1
0.0001885823,-9.632857e-05,1,1
0.0002684805,-0.0001170729,1,1
0.000319369,-0.0001305243,1,1
0.0003133726,-0.0001332795,1,1
0.0002401191,-0.0001305243,1,1
0.000118408,-0.0001293899,1,1
-1.25408e-05,-0.0001314967,1,1
-0.0001219349,-0.0001357104,1,1
-0.0001985918,-0.0001428413,1,1
-0.0002472114,-0.0001524032,1,1
-0.0002846485,-0.0001640719,1,1
-0.0003168994,-0.0001763888,1,1
-0.0003386162,-0.0001875713,1,1
-0.0003499608,-0.0001930815,1,1
-0.0003622777,-0.0001909747,1,1
-0.0003836704,-0.0001823853,1,1
-0.0004108973,-0.0001720131,1,1
-0.0004292107,-0.0001655305,1,1
-0.0004152731,-0.0001665028,1,1
-0.0003389403,-0.0001716889,1,1
-0.0001838438,-0.0001762268,1,1
3.624086e-05,-0.0001750923,1,1
0.000282094,-0.0001661787,1,1
0.0005073649,-0.0001527273,1,1
0.0006867713,-0.0001358725,1,1
0.0008235546,-0.0001208004,1,1
0.0009404037,-0.0001109144,1,1
0.001068435,-0.0001041077,1,1
0.001233742,-9.697683e-05,1,1
0.001430004,-8.530812e-05,1,1
0.00160779,-6.877746e-05,1,1
0.001703085,-4.85193e-05,1,1
0.00167764,-3.182657e-05,1,1
0.001532916,-2.388537e-05,1,1
0.001294355,-2.064406e-05,1,1
0.0009919406,-1.545797e-05,1,1
0.0006702406,-5.57199e-06,1,1
0.0003757678,5.610517e-06,1,1
0.0001329939,1.063454e-05,1,1
-6.942573e-05,4.151929e-06,1,1
-0.0002549905,-1.67545e-05,1,1
-0.0004259694,-4.997789e-05,1,1
-0.0005648594,-7.914964e-05,1,1
-0.0006564262,-8.352541e-05,1,1
-0.0006945116,-3.944364e-05,1,1
-0.0006886772,5.957827e-05,1,1
-0.0006586951,0.0001887444,1,1
-0.0006259579,0.0003013798,1,1
-0.0006053757,0.0003652335,1,1
-0.0005982448,0.0003722023,1,1
-0.0006013241,0.0003336308,1,1
-0.000603593,0.0002744769,1,1
-0.0005846313,0.0002166196,1,1
-0.0005230465,0.0001761032,1,1
-0.0004248349,0.0001560072,1,1
-0.000325813,0.0001522796,1,1
-0.0002622834,0.000160707,1,1
-0.000243808,0.0001752929,1,1
-0.0002553146,0.0001902029,1,1
-0.0002726556,0.0001979821,1,1
-0.0002741142,0.0001979821,1,1
-0.0002486699,0.000195227,1,1
-0.0001997262,0.0001966855,1,1
-0.0001405724,0.0002049509,1,1
-8.498399e-05,0.00021273,1,1
-3.863332e-05,0.0002128921,1,1
5.934648e-06,0.0001989545,1,1
6.735741e-05,0.0001728619,1,1
0.0001628139,0.0001475797,1,1
0.0002932765,0.0001372076,1,1
0.0004392974,0.0001513072,1,1
0.0005691118,0.0001824238,1,1
0.0006533858,0.0002075439,1,1
0.0006697544,0.0002030061,1,1
0.0006195141,0.0001586002,1,1
0.0005264886,8.064677e-05,1,1
0.0004235771,-1.351319e-05,1,1
0.0003303894,-9.973194e-05,1,1
0.0002475741,-0.0001583996,1,1
0.0001616794,-0.0001791439,1,1
5.94162e-05,-0.0001639098,1,1
-6.375344e-05,-0.0001251762,1,1
-0.0001976194,-7.817725e-05,1,1
-0.0003274337,-3.782299e-05,1,1
-0.0004382863,-1.513384e-05,1,1
-0.0005219121,-1.383732e-05,1,1
-0.0005828486,-3.101625e-05,1,1
-0.0006374646,-5.856735e-05,1,1
-0.0007050458,-8.595638e-05,1,1
-0.0007911025,-0.0001028112,1,1
-0.000879266,-0.0001063766,1,1
-0.000941499,-0.0001013526,1,1
-0.0009614331,-9.827335e-05,1,1
-0.0009372854,-0.0001057284,1,1
-0.0008757006,-0.0001258245,1,1
-0.0007852681,-0.0001460826,1,1
-0.0006742534,-0.0001575893,1,1
-0.0005583767,-0.0001601823,1,1
-0.0004617858,-0.000156941,1,1
-0.0004018217,-0.0001498101,1,1
-0.0003835083,-0.0001361966,1,1
-0.0003948528,-0.0001190177,1,1
-0.0004089525,-0.0001032974,1,1
-0.0003979321,-9.130454e-05,1,1
-0.000333268,-8.174268e-05,1,1
-0.000201509,-7.039812e-05,1,1
-1.62683e-05,-5.354332e-05,1,1
0.0001905271,-3.393342e-05,1,1
0.0003880847,-2.0482e-05,1,1
0.0005637637,-1.918548e-05,1,1
0.0007209671,-3.247483e-05,1,1
0.0008642329,-5.305713e-05,1,1
0.0009888613,-6.829127e-05,1,1
0.001079618,-7.039812e-05,1,1
0.001119648,-5.613637e-05,1,1
0.001095338,-2.988179e-05,1,1
0.001004096,2.855407e-06,1,1
0.0008585607,3.575467e-05,1,1
0.0006955228,6.119892e-05,1,1
0.0005626292,7.983644e-05,1,1
0.0004921307,9.442231e-05,1,1
0.0004832171,0.0001073875,1,1
0.0005114165,0.0001213252,1,1
0.0005433434,0.0001373696,1,1
0.0005493398,0.00015309,1,1
0.0005107683,0.0001642725,1,1
0.00043087,0.0001692965,1,1
0.000334117,0.0001683241,1,1
0.0002470879,0.000160545,1,1
0.0001872858,0.0001459591,1,1
0.0001527658,0.0001222976,1,1
0.0001312112,9.523264e-05,1,1
0.0001119254,7.432621e-05,1,1
8.79397e-05,6.768154e-05,1,1
5.131294e-05,7.740546e-05,1,1
-9.461558e-06,0.0001005808,1,1
-0.0001016767,0.0001315353,1,1
-0.0002230636,0.0001650828,1,1
-0.0003574158,0.0001957132,1,1
-0.0004792889,0.0002190506,1,1
-0.0005666421,0.0002315296,1,1
-0.0006078067,0.0002380122,1,1
-0.0006013241,0.000242388,1,1
-0.000554001,0.0002456293,1,1
-0.0004815578,0.0002440086,1,1
-0.0004045768,0.0002318537,1,1
-0.0003391024,0.0002070577,1,1
-0.0002827037,0.0001709172,1,1
-0.0002096122,0.0001261871,1,1
-9.843541e-05,7.886404e-05,1,1
4.596478e-05,3.769945e-05,1,1
0.0001913374,8.203562e-06,1,1
0.0003072141,-8.813297e-06,1,1
0.0003799815,-1.788895e-05,1,1
0.0004099636,-2.696461e-05,1,1
0.0003987811,-3.766092e-05,1,1
0.000354051,-4.80331e-05,1,1
0.0002882525,-5.370539e-05,1,1
0.0002075439,-5.662256e-05,1,1
0.0001180839,-5.921561e-05,1,1
3.299956e-05,-6.278104e-05,1,1
-2.777494e-05,-6.796714e-05,1,1
-5.889148e-05,-7.736692e-05,1,1
-7.801519e-05,-9.227693e-05,1,1
-0.0001105903,-0.0001112386,1,1
-0.0001801163,-0.0001313347,1,1
-0.0002875656,-0.0001507825,1,1
-0.0004108973,-0.0001663408,1,1
-0.0005305015,-0.0001770371,1,1
-0.0006449196,-0.0001814128,1,1
-0.000760148,-0.0001854645,1,1
-0.0008672731,-0.0001964849,1,1
-0.0009434438,-0.0002079916,1,1
-0.0009672674,-0.0001997262,1,1
-0.0009288579,-0.0001511067,1,1
-0.0008298361,-6.148453e-05,1,1
-0.0006765223,4.304761e-05,1,1
-0.0004739407,0.0001211631,1,1
-0.0002277635,0.0001401247,1,1
4.256141e-05,9.928428e-05,1,1
0.0002950592,2.39239e-05,1,1
0.0004837033,-5.240886e-05,1,1
0.0005840218,-0.0001029732,1,1
0.0006133557,-0.0001193418,1,1
0.0006102764,-0.00010978,1,1
0.0006170832,-9.454585e-05,1,1
0.0006579236,-8.919769e-05,1,1
0.0007285841,-9.568031e-05,1,1
0.0008091307,-0.0001000561,1,1
0.0008705535,-9.341139e-05,1,1
0.0008992391,-7.250496e-05,1,1
0.0009011839,-4.349527e-05,1,1
0.0008922703,-1.545797e-05,1,1
0.0008853014,9.106227e-07,1,1
0.000879143,3.827799e-06,1,1
0.0008585607,-3.465141e-06,1,1
0.0008005413,-1.480971e-05,1,1
0.0006882299,-2.534396e-05,1,1
0.0005232473,-2.647842e-05,1,1
0.0003190449,-2.194059e-05,1,1
9.766362e-05,-1.3027e-05,1,1
-0.0001062146,-3.14101e-06,1,1
-0.000253694,6.744974e-06,1,1
-0.0003167374,1.711715e-05,1,1
-0.0002916173,2.781346e-05,1,1
-0.0001972953,4.515445e-05,1,1
-6.294311e-05,7.448828e-05,1,1
8.323981e-05,0.0001146805,1,1
0.0002148369,0.0001561692,1,1
0.0003049452,0.0001895547,1,1
0.000329255,0.0002080301,1,1
0.0002778803,0.0002094887,1,1
0.0001663793,0.0001974959,1,1
2.619281e-05,0.0001761032,1,1
-0.0001110765,0.0001496866,1,1
-0.0002167431,0.0001252147,1,1
-0.0002733039,0.0001124116,1,1
-0.0002883759,0.0001130598,1,1
-0.0002887001,0.000123432,1,1
-0.0002995585,0.0001329939,1,1
-0.0003254889,0.0001368834,1,1
-0.000343154,0.0001349386,1,1
-0.0003290543,0.0001331559,1,1
-0.00027849,0.0001329939,1,1
-0.0002102605,0.0001297526,1,1
-0.0001571031,0.0001190562,1,1
-0.0001412206,0.0001025256,1,1
-0.0001752544,8.534666e-05,1,1
-0.000253694,7.059871e-05,1,1
-0.0003546606,5.747142e-05,1,1
-0.0004502792,4.288554e-05,1,1
-0.0005183466,2.473423e-05,1,1
-0.0005578905,2.531276e-06,1,1
-0.0005778245,-2.453363e-05,1,1
-0.0005844692,-5.727083e-05,1,1
-0.0005682627,-9.551824e-05,1,1
-0.0005074882,-0.0001342519,1,1
-0.0003843186,-0.0001630995,1,1
-0.000199078,-0.0001791439,1,1
2.230325e-05,-0.0001882196,1,1
0.0002372019,-0.0002013469,1,1
0.000408505,-0.0002222533,1,1
0.0005015305,-0.0002415391,1,1
0.0004947237,-0.0002412149,1,1
0.0003948915,-0.0002083157,1,1
0.0002431983,-0.0001451102,1,1
9.26396e-05,-5.727083e-05,1,1
-3.020592e-05,4.045456e-05,1,1
-0.0001269589,0.0001291043,1,1
-0.0002130156,0.0001850168,1,1
-0.0003003688,0.0001947408,1,1
-0.0003861013,0.0001600588,1,1
-0.0004625961,0.0001031738,1,1
-0.0005248293,4.418206e-05,1,1
-0.0005702075,-2.006553e-06,1,1
-0.0005943552,-3.21507e-05,1,1
-0.000586414,-5.240886e-05,1,1
-0.0005326084,-7.169464e-05,1,1
-0.0004240246,-9.308726e-05,1,1
-0.0002754107,-0.0001149661,1,1
-0.0001110765,-0.0001295519,1,1
4.888196e-05,-0.0001284175,1,1
0.0002036544,-0.0001105903,1,1
0.0003621543,-7.947377e-05,1,1
0.000530054,-4.349527e-05,1,1
0.0007045984,-1.318906e-05,1,1
0.0008755776,7.717366e-06,1,1
0.001024678,2.554455e-05,1,1
0.001132451,4.628891e-05,1,1
0.001186905,6.768154e-05,1,1
0.001180747,8.340187e-05,1,1
0.001113328,8.583286e-05,1,1
0.001005716,7.140904e-05,1,1
0.000891622,4.499239e-05,1,1
0.0007985964,1.419998e-05,1,1
0.0007318255,-1.173047e-05,1,1
0.0006783439,-2.534396e-05,1,1
0.0006185417,-2.307504e-05,1,1
0.0005305402,-4.275467e-06,1,1
0.0004047775,3.688912e-05,1,1
0.0002537325,0.0001026876,1,1
9.733949e-05,0.000187934,1,1
-4.706071e-05,0.0002715597,1,1
-0.0001700683,0.0003266619,1,1
-0.0002681178,0.000339141,1,1
-0.000345585,0.0003114278,1,1
-0.0004073319,0.0002611876,1,1
-0.0004475241,0.0002088404,1,1
-0.0004614617,0.000170593,1,1
-0.0004502792,0.0001449867,1,1
-0.0004096008,0.0001268354,1,1
-0.0003344025,0.000111115,1,1
-0.0002222533,0.0001028497,1,1
-8.222889e-05,0.000110953,1,1
5.19612e-05,0.0001354248,1,1
0.0001329939,0.0001675138,1,1
0.0001242423,0.0001919856,1,1
2.748934e-05,0.000200251,1,1
-0.0001177212,0.0001897167,1,1
-0.0002622834,0.0001667035,1,1
-0.0003710293,0.0001401247,1,1
-0.0004368278,0.0001172735,1,1
-0.0004799371,9.879808e-05,1,1
-0.0005298533,8.161915e-05,1,1
-0.0006014861,6.557468e-05,1,1
-0.0006843015,5.260946e-05,1,1
-0.0007505861,4.483033e-05,1,1
-0.0007737615,4.256141e-05,1,1
-0.0007466965,4.580272e-05,1,1
-0.0006828429,4.953022e-05,1,1
-0.0006065101,4.985435e-05,1,1
-0.0005343911,3.948217e-05,1,1
-0.0004724821,1.355172e-05,1,1
-0.0004206212,-2.323711e-05,1,1
-0.0003804291,-6.116039e-05,1,1
-0.0003515814,-9.114248e-05,1,1
-0.0003337542,-0.0001120489,1,1
-0.0003237062,-0.0001280934,1,1
-0.0003151167,-0.0001430034,1,1
-0.0003031239,-0.0001554824,1,1
-0.0002856209,-0.0001605064,1,1
-0.0002666592,-0.0001575893,1,1
-0.0002501286,-0.000152079,1,1
-0.0002428356,-0.0001499722,1,1
-0.0002468872,-0.0001558065,1,1
-0.0002566112,-0.0001690959,1,1
-0.0002616352,-0.000184168,1,1
-0.000253694,-0.0001989159,1,1
-0.000231491,-0.0002133397,1,1
-0.0002003745,-0.0002311669,1,1
-0.0001690959,-0.0002540181,1,1
-0.0001425172,-0.000276221,1,1
-0.000122259,-0.0002904828,1,1
-0.0001067007,-0.0002938862,1,1
-9.373552e-05,-0.000290969,1,1
-7.444975e-05,-0.0002846485,1,1
-3.182657e-05,-0.000276221,1,1
3.55926e-05,-0.000266011,1,1
0.0001103047,-0.0002556388,1,1
0.0001665414,-0.0002475355,1,1
0.0001936063,-0.0002305186,1,1
0.0002013854,-0.0001814128,1,1
0.0002064095,-8.790117e-05,1,1
0.0002292607,3.60788e-05,1,1
0.000289549,0.0001469315,1,1
0.0003981328,0.0002015475,1,1
0.0005425331,0.0001830721,1,1
0.000685961,0.0001069013,1,1
0.0007864416,9.500085e-06,1,1
0.0008149651,-7.104638e-05,1,1
0.0007708832,-0.0001088076,1,1
0.0006752646,-9.989401e-05,1,1
0.0005640878,-5.467778e-05,1,1
0.0004726828,4.638125e-06,1,1
0.0004214702,5.56887e-05,1,1
0.0004091532,8.46984e-05,1,1
0.0004062361,9.199134e-05,1,1
0.000373985,8.923623e-05,1,1
0.0002992729,8.972242e-05,1,1
0.0001973338,0.0001022015,1,1
9.814982e-05,0.0001260251,1,1
2.505836e-05,0.0001496866,1,1
-1.448558e-05,0.0001621656,1,1
-2.485776e-05,0.0001589243,1,1
-1.416145e-05,0.0001469315,1,1
9.986281e-06,0.0001360731,1,1
4.191315e-05,0.0001302388,1,1
7.853991e-05,0.0001316974,1,1
0.0001211631,0.0001380179,1,1
0.0001658931,0.0001472556,1,1
0.000202682,0.0001579519,1,1
0.0002247229,0.0001675138,1,1
0.0002378501,0.0001723757,1,1
0.0002550291,0.0001726999,1,1
0.0002892249,0.0001702689,1,1
0.0003384927,0.0001715654,1,1
0.0003942432,0.0001799928,1,1
0.0004483731,0.000190365,1,1
0.0004922928,0.0001965235,1,1
0.0005209784,0.000195389,1,1
0.0005345919,0.0001856651,1,1
0.000537347,0.0001694586,1,1
0.0005260024,0.0001474177,1,1
0.0004924549,0.0001231079,1,1
0.0004302217,0.0001030118,1,1
0.0003373583,9.247754e-05,1,1
0.0002137024,9.101894e-05,1,1
6.330578e-05,9.361199e-05,1,1
-0.000104756,9.474644e-05,1,1
-0.000278652,9.004655e-05,1,1
-0.0004462276,7.870197e-05,1,1
-0.0005948414,6.168512e-05,1,1
-0.0007110422,4.013043e-05,1,1
-0.0007821888,1.808955e-05,1,1
-0.0007995299,-2.492749e-06,1,1
-0.0007721409,-1.805102e-05,1,1
-0.0007084492,-2.437157e-05,1,1
-0.0006092652,-1.886135e-05,1,1
-0.0004710235,-5.479652e-07,1,1
-0.0002977757,3.008238e-05,1,1
-0.0001105903,6.897806e-05,1,1
5.455425e-05,0.00010366,1,1
0.0001642725,0.000121001,1,1
0.0002104611,0.0001127357,1,1
0.0002093267,8.226741e-05,1,1
0.0001902029,3.656499e-05,1,1
0.0001773998,-1.399939e-05,1,1
0.0001872858,-6.083626e-05,1,1
0.0002218057,-0.0001011905,1,1
0.000272208,-0.0001303623,1,1
0.0003101313,-0.0001447861,1,1
0.0002939248,-0.0001447861,1,1
0.0001986303,-0.0001311726,1,1
3.55926e-05,-0.0001167488,1,1
-0.0001488377,-0.0001091317,1,1
-0.0002940482,-0.0001091317,1,1
-0.0003553089,-0.0001107524,1,1
-0.0003175477,-0.0001094559,1,1
-0.0002008607,-0.000104756,1,1
-5.240886e-05,-9.746302e-05,1,1
7.853991e-05,-9.033215e-05,1,1
0.000163138,-8.676672e-05,1,1
0.0001945787,-8.82253e-05,1,1
0.0001817755,-9.389759e-05,1,1
0.0001393144,-0.0001000561,1,1
8.599492e-05,-0.0001002181,1,1
3.672706e-05,-9.146661e-05,1,1
-5.479652e-07,-7.736692e-05,1,1
-2.307504e-05,-6.375344e-05,1,1
-3.296103e-05,-5.500191e-05,1,1
-3.166451e-05,-4.965376e-05,1,1
-1.983374e-05,-4.754691e-05,1,1
6.420843e-06,-4.495386e-05,1,1
4.628891e-05,-3.895745e-05,1,1
0.00010366,-2.907146e-05,1,1
0.0001785342,-1.643037e-05,1,1
0.0002602152,-4.599598e-06,1,1
0.000334117,7.555301e-06,1,1
0.0003906778,1.938607e-05,1,1
0.0004324906,2.992031e-05,1,1
0.0004587452,3.818565e-05,1,1
0.0004619866,4.72613e-05,1,1
0.0004297355,5.56887e-05,1,1
0.0003602095,6.298164e-05,1,1
0.0002642668,6.946425e-05,1,1
0.0001626518,7.659513e-05,1,1
7.400208e-05,8.080883e-05,1,1
9.338019e-06,8.097089e-05,1,1
-2.939559e-05,7.772959e-05,1,1
-3.652646e-05,7.286763e-05,1,1
-7.354709e-06,7.027458e-05,1,1
5.698522e-05,6.978839e-05,1,1
0.0001372076,7.076078e-05,1,1
0.0002049509,7.57848e-05,1,1
0.00022764,9.555677e-05,1,1
0.0001861513,0.0001362352,1,1
8.534666e-05,0.0001864754,1,1
-5.127441e-05,0.0002261814,1,1
-0.0001982676,0.0002406053,1,1
-0.0003369955,0.0002307193,1,1
-0.0004544929,0.0002078681,1,1
-0.0005371462,0.0001814514,1,1
-0.0005771763,0.0001569795,1,1
-0.0005825245,0.0001378558,1,1
-0.0005693972,0.0001227837,1,1
-0.0005554595,0.0001114392,1,1
-0.0005494631,0.0001047945,1,1
-0.000549301,0.0001052807,1,1
-0.0005533527,0.0001091703,1,1
-0.0005624284,0.0001125736,1,1
-0.0005742591,0.0001116012,1,1
-0.000586252,0.0001052807,1,1
-0.0005928966,9.620504e-05,1,1
-0.0005836589,8.74535e-05,1,1
-0.0005531906,7.967438e-05,1,1
-0.0005040849,7.027458e-05,1,1
-0.0004463896,5.698522e-05,1,1
-0.0003985804,3.705119e-05,1,1
-0.0003742705,1.095867e-05,1,1
-0.0003676259,-1.594417e-05,1,1
-0.0003637363,-3.814712e-05,1,1
-0.0003485022,-5.370539e-05,1,1
-0.0003185201,-6.359137e-05,1,1
-0.00027849,-7.088431e-05,1,1
-0.0002360289,-7.639453e-05,1,1
-0.0001994021,-7.704279e-05,1,1
-0.0001658546,-6.845333e-05,1,1
-0.0001258245,-5.32192e-05,1,1
-6.829127e-05,-3.830919e-05,1,1
6.420843e-06,-3.134038e-05,1,1
8.729144e-05,-3.717473e-05,1,1
0.0001586002,-5.305713e-05,1,1
0.0002112714,-7.412562e-05,1,1
0.0002459534,-9.697683e-05,1,1
0.0002744769,-0.0001206384,1,1
0.000309321,-0.000142031,1,1
0.0003556717,-0.000159372,1,1
0.0004086671,-0.000171851,1,1
0.0004548557,-0.0001823853,1,1
0.0004806241,-0.0001964849,1,1
0.0004832171,-0.0002172293,1,1
0.000470576,-0.0002402425,1,1
0.0004525868,-0.0002570974,1,1
0.0004320045,-0.0002588801,1,1
0.0004096394,-0.0002350565,1,1
0.0003816021,-0.0001823853,1,1
0.0003464339,-0.0001086455,1,1
0.0003067279,-3.247483e-05,1,1
0.0002696149,2.943412e-05,1,1
0.0002386605,6.395404e-05,1,1
0.0002146748,7.124698e-05,1,1
0.0001983062,5.909208e-05,1,1
0.0001900409,4.223728e-05,1,1
0.0001902029,3.494434e-05,1,1
0.0001931201,4.061663e-05,1,1
0.0001895547,5.487838e-05,1,1
0.0001602208,6.897806e-05,1,1
9.020862e-05,7.837785e-05,1,1
-2.518189e-05,7.983644e-05,1,1
-0.0001707166,7.805372e-05,1,1
-0.0003079858,7.691926e-05,1,1
-0.0003942046,8.032264e-05,1,1
-0.0004060354,8.988449e-05,1,1
-0.0003523917,0.0001012291,1,1
-0.000266011,0.0001083599,1,1
-0.0001859507,0.0001096565,1,1
-0.0001350622,0.0001120874,1,1
-0.00010978,0.000120839,1,1
-8.709085e-05,0.0001355869,1,1
-4.155049e-05,0.0001501728,1,1
3.818565e-05,0.0001608691,1,1
0.0001422316,0.0001676758,1,1
0.0002446569,0.0001735102,1,1
0.0003211517,0.0001790204,1,1
0.0003569682,0.0001811273,1,1
0.0003556717,0.0001795066,1,1
0.0003208276,0.0001728619,1,1
0.0002485465,0.0001647587,1,1
0.0001339663,0.000158114,1,1
-4.599598e-06,0.0001509831,1,1
-0.0001303623,0.0001430419,1,1
-0.0002102605,0.0001344524,1,1
-0.0002361909,0.0001247285,1,1
-0.0002245222,0.0001158149,1,1
-0.0002162569,0.0001093323,1,1
-0.0002579077,0.0001031738,1,1
-0.0003681121,9.555677e-05,1,1
-0.0005227224,8.307774e-05,1,1
-0.0006700397,6.670914e-05,1,1
-0.000755124,5.050261e-05,1,1
-0.0007400519,3.98063e-05,1,1
-0.0006188271,3.413401e-05,1,1
-0.0004061974,3.073064e-05,1,1
-0.0001311726,2.538249e-05,1,1
0.0001775618,1.371378e-05,1,1
0.0004921307,-7.516774e-06,1,1
0.0007844968,-3.604027e-05,1,1
0.001032619,-6.569822e-05,1,1
0.001224018,-9.308726e-05,1,1
0.001360316,-0.0001195039,1,1
0.001457069,-0.0001481895,1,1
0.001536805,-0.0001809267,1,1
0.001613138,-0.0002122053,1,1
0.001678775,-0.0002353806,1,1
0.001709729,-0.0002491561,1,1
0.001676182,-0.0002545043,1,1
0.001556091,-0.0002546664,1,1
0.001353833,-0.0002580697,1,1
0.001088532,-0.0002726556,1,1
0.0007862795,-0.0002955068,1,1
0.0004807861,-0.0003091203,1,1
0.0001976579,-0.0002916173,1,1
-5.127441e-05,-0.0002311669,1,1
-0.0002663351,-0.0001389517,1,1
-0.0004609755,-4.268495e-05,1,1
-0.0006515643,2.457216e-05,1,1
-0.0008458805,4.499239e-05,1,1
-0.001034525,2.246531e-05,1,1
-0.001198211,-2.129233e-05,1,1
-0.001316356,-6.06742e-05,1,1
-0.001382317,-7.137051e-05,1,1
-0.00139512,-4.138842e-05,1,1
-0.001357683,1.938607e-05,1,1
-0.001275191,8.923623e-05,1,1
-0.001149591,0.0001435281,1,1
-0.0009841222,0.0001628139,1,1
-0.000775058,0.0001433661,1,1
-0.0005201293,0.0001023635,1,1
-0.0002293842,5.844381e-05,1,1
6.83298e-05,2.197911e-05,1,1
0.0003337929,4.244267e-07,1,1
0.000542209,-6.382317e-06,1,1
0.0006879058,-4.275467e-06,1,1
0.0007870898,-2.006553e-06,1,1
0.0008528884,-3.465141e-06,1,1
0.0008874084,-6.868513e-06,1,1
0.0008818981,-7.354709e-06,1,1
0.0008314957,-1.034161e-06,1,1
0.0007402529,9.175954e-06,1,1
0.0006196762,1.695509e-05,1,1
0.0004838654,1.517237e-05,1,1
0.0003478926,4.80019e-06,1,1
0.0002243987,-5.085794e-06,1,1
0.000113546,-8.651231e-06,1,1
1.241726e-05,-3.303076e-06,1,1
-8.190475e-05,6.90704e-06,1,1
-0.000169258,1.906194e-05,1,1
-0.0002454286,2.910999e-05,1,1
-0.0003052308,3.526847e-05,1,1
-0.0003428299,3.705119e-05,1,1
-0.0003512573,3.413401e-05,1,1
-0.0003322956,3.121684e-05,1,1
-0.0003000446,3.834771e-05,1,1
-0.0002726556,6.444023e-05,1,1
-0.0002666592,0.0001080358,1,1
-0.0002893484,0.0001613553,1,1
-0.0003386162,0.0002114335,1,1
-0.0004055492,0.0002461155,1,1
-0.0004747511,0.0002658874,1,1
-0.0005301774,0.0002790148,1,1
-0.0005630766,0.0002944109,1,1
-0.0005745832,0.0003159656,1,1
-0.0005724764,0.0003389789,1,1
-0.0005672903,0.0003508097,1,1
-0.0005634008,0.0003386548,1,1
-0.000559187,0.0003004074,1,1
-0.0005489769,0.0002446569,1,1
-0.0005290429,0.0001859892,1,1
-0.0005023021,0.0001362352,1,1
-0.0004813957,0.0001009049,1,1
-0.0004854474,7.724339e-05,1,1
-0.0005240189,5.747142e-05,1,1
-0.0005870623,3.867184e-05,1,1
-0.0006439472,2.100672e-05,1,1
-0.0006577228,8.527692e-06,1,1
-0.0006071584,3.989864e-06,1,1
-0.0004946851,3.503668e-06,1,1
-0.0003465574,7.485573e-07,1,1
-0.0002024813,-9.461558e-06,1,1
-9.260107e-05,-2.647842e-05,1,1
-3.247483e-05,-4.576419e-05,1,1
-1.270286e-05,-6.213279e-05,1,1
-1.092015e-05,-6.991193e-05,1,1
-1.075808e-05,-7.120844e-05,1,1
-2.81688e-06,-7.072225e-05,1,1
1.403791e-05,-7.396356e-05,1,1
3.737532e-05,-8.141856e-05,1,1
7.270556e-05,-8.919769e-05,1,1
0.0001269974,-9.616651e-05,1,1
0.0002041406,-0.0001039456,1,1
0.0002918179,-0.0001144799,1,1
0.0003645853,-0.0001282554,1,1
0.000398619,-0.0001438137,1,1
0.0003875985,-0.0001616409,1,1
0.0003386548,-0.0001788198,1,1
0.0002652392,-0.0001895161,1,1
0.0001793446,-0.0001912988,1,1
9.555677e-05,-0.0001853024,1,1
1.306552e-05,-0.0001746061,1,1
-7.056019e-05,-0.000166827,1,1
-0.0001551583,-0.0001666649,1,1
-0.0002337599,-0.000171851,1,1
-0.0002945344,-0.0001747682,1,1
-0.0003170615,-0.0001690959,1,1
-0.000286107,-0.0001514308,1,1
-0.0002031296,-0.000129714,1,1
-8.482193e-05,-0.0001079973,1,1
4.45062e-05,-8.854943e-05,1,1
0.000163138,-7.153257e-05,1,1
0.0002607014,-5.64605e-05,1,1
0.0003360618,-4.47918e-05,1,1
0.0003906778,-3.344723e-05,1,1
0.000428277,-2.356124e-05,1,1
0.0004478869,-1.432352e-05,1,1
0.000453235,-3.465141e-06,1,1
0.0004512903,8.689758e-06,1,1
0.0004478869,2.133085e-05,1,1
0.0004459421,3.705119e-05,1,1
0.0004427008,5.925414e-05,1,1
0.0004371906,8.615699e-05,1,1
0.0004370285,0.0001140322,1,1
0.000450804,0.0001373696,1,1
0.000480462,0.0001498487,1,1
0.0005191956,0.0001551968,1,1
0.0005542018,0.0001573037,1,1
0.0005702463,0.0001589243,1,1
0.0005520949,0.0001662173,1,1
0.0004919686,0.0001799928,1,1
0.0003944053,0.0001971717,1,1
0.0002739907,0.000210137,1,1
0.0001490383,0.0002122438,1,1
3.996837e-05,0.0002099749,1,1
-4.138842e-05,0.0002133783,1,1
-8.611845e-05,0.0002256952,1,1
-8.303922e-05,0.000237526,1,1
-3.393342e-05,0.0002337985,1,1
4.612685e-05,0.0002036544,1,1
0.0001316974,0.0001519555,1,1
0.0001970097,9.474644e-05,1,1
0.0002260194,4.839576e-05,1,1
0.0002154851,2.149292e-05,1,1
0.0001761032,1.112074e-05,1,1
0.0001274836,1.047248e-05,1,1
9.134307e-05,1.808955e-05,1,1
8.405014e-05,3.348575e-05,1,1
0.0001090082,5.779555e-05,1,1
0.0001527658,8.518459e-05,1,1
0.0001960373,0.0001073875,1,1
0.000225047,0.0001218114,1,1
0.0002381743,0.0001300767,1,1
0.0002401191,0.0001336421,1,1
0.0002347709,0.0001338042,1,1
0.0002206712,0.0001252147,1,1
0.0001926339,0.0001073875,1,1
0.0001496866,8.064677e-05,1,1
9.798775e-05,5.115087e-05,1,1
4.742337e-05,2.278944e-05,1,1
5.448452e-06,-2.238346e-07,1,1
-2.437157e-05,-1.416145e-05,1,1
-4.43056e-05,-1.707863e-05,1,1
-6.472583e-05,-1.092015e-05,1,1
-9.454585e-05,-4.113403e-06,1,1
-0.0001436516,-4.599598e-06,1,1
-0.0002138259,-1.983374e-05,1,1
-0.0002993964,-4.754691e-05,1,1
-0.0003833462,-7.801519e-05,1,1
-0.0004489826,-9.989401e-05,1,1
-0.0004860956,-0.0001110765,1,1
-0.0004898231,-0.0001133454,1,1
-0.0004653512,-0.0001109144,1,1
-0.0004237005,-0.0001054042,1,1
-0.000372974,-9.989401e-05,1,1
-0.0003162512,-9.746302e-05,1,1
-0.000261149,-9.568031e-05,1,1
-0.000216419,-9.081835e-05,1,1
-0.0001838438,-7.947377e-05,1,1
-0.0001548341,-6.81292e-05,1,1
-0.0001136696,-6.342931e-05,1,1
-4.738484e-05,-6.699475e-05,1,1
4.126489e-05,-7.671866e-05,1,1
0.0001386662,-8.952183e-05,1,1
0.0002268297,-0.0001010285,1,1
0.0002960316,-0.000107349,1,1
0.0003360618,-0.0001084835,1,1
0.0003428685,-0.0001112386,1,1
0.0003195311,-0.0001170729,1,1
0.000279663,-0.0001242038,1,1
0.0002386605,-0.0001229073,1,1
0.0002141886,-0.0001041077,1,1
0.0002130541,-6.829127e-05,1,1
0.0002320158,-2.453363e-05,1,1
0.0002547049,1.776542e-05,1,1
0.0002587566,5.098881e-05,1,1
0.0002312055,7.254349e-05,1,1
0.0001694586,7.772959e-05,1,1
8.534666e-05,6.395404e-05,1,1
7.555301e-06,4.207521e-05,1,1
-3.571614e-05,2.197911e-05,1,1
-2.971972e-05,9.338019e-06,1,1
1.760335e-05,3.503668e-06,1,1
8.307774e-05,-6.176923e-08,1,1
0.000145635,-5.247859e-06,1,1
0.0001902029,-9.785688e-06,1,1
0.0002098128,-9.137427e-06,1,1
0.0001970097,-3.303076e-06,1,1
0.0001550348,5.448452e-06,1,1
9.766362e-05,1.306552e-05,1,1
4.142696e-05,1.954813e-05,1,1
1.558884e-06,3.008238e-05,1,1
-1.610624e-05,4.515445e-05,1,1
-1.967167e-05,5.957827e-05,1,1
-2.372331e-05,6.719535e-05,1,1
-4.05781e-05,6.735741e-05,1,1
-7.266703e-05,6.687121e-05,1,1
-0.0001149661,7.189524e-05,1,1
-0.0001592099,8.453633e-05,1,1
-0.0002045882,0.0001022015,1,1
-0.000258718,0.0001188942,1,1
-0.0003361852,0.0001300767,1,1
-0.0004491447,0.0001342904,1,1
-0.0005924104,0.0001323456,1,1
-0.0007360002,0.0001291043,1,1
-0.0008423151,0.0001281319,1,1
-0.000881859,0.0001329939,1,1
-0.0008453943,0.0001415833,1,1
-0.0007400519,0.0001475797,1,1
-0.000586414,0.000145797,1,1
-0.0004047388,0.0001304008,1,1
-0.0002147983,0.0001018773,1,1
-3.26369e-05,6.751948e-05,1,1
0.0001245665,3.575467e-05,1,1
0.0002448189,1.371378e-05,1,1
0.000324231,2.531276e-06,1,1
0.0003611819,-4.599598e-06,1,1
0.0003613439,-1.140634e-05,1,1
0.0003371962,-2.291298e-05,1,1
0.0002997591,-3.895745e-05,1,1
0.0002590807,-5.095028e-05,1,1
0.000222616,-4.722278e-05,1,1
0.0001983062,-1.724069e-05,1,1
0.0001848548,3.55926e-05,1,1
0.0001733481,9.393612e-05,1,1
0.0001545486,0.0001362352,1,1
0.0001221355,0.0001449867,1,1
8.372601e-05,0.0001205148,1,1
5.325772e-05,7.270556e-05,1,1
4.871989e-05,1.501031e-05,1,1
8.340187e-05,-3.976777e-05,1,1
0.0001558451,-8.320128e-05,1,1
0.0002456293,-0.0001104282,1,1
0.0003196932,-0.0001230693,1,1
0.0003459477,-0.0001259865,1,1
0.0003133726,-0.000127283,1,1
0.0002284504,-0.0001251762,1,1
0.0001056048,-0.0001156143,1,1
-3.020592e-05,-0.0001008664,1,1
-0.0001498101,-9.211487e-05,1,1
-0.0002326255,-9.519411e-05,1,1
-0.0002642282,-0.0001112386,1,1
-0.0002355427,-0.0001267968,1,1
-0.0001562927,-0.0001276072,1,1
-6.504996e-05,-0.0001112386,1,1
-6.382317e-06,-8.854943e-05,1,1
-1.25408e-05,-7.639453e-05,1,1
-8.141856e-05,-8.530812e-05,1,1
-0.0001869231,-0.0001114006,1,1
-0.0002989102,-0.0001433275,1,1
-0.0003916115,-0.0001741199,1,1
-0.0004502792,-0.0001984297,1,1
-0.0004682684,-0.0002117191,1,1
-0.0004436345,-0.0002117191,1,1
-0.000382698,-0.0002002124,1,1
-0.0002937241,-0.000174444,1,1
-0.0001882196,-0.0001253383,1,1
-8.190475e-05,-4.284701e-05,1,1
6.582909e-06,7.546067e-05,1,1
6.978839e-05,0.0002154851,1,1
0.000110953,0.0003550234,1,1
0.0001378558,0.0004653899,1,1
0.0001568175,0.0005247059,1,1
0.0001725378,0.00052503,1,1
0.0001851789,0.000475438,1,1
0.0001958752,0.0003984569,1,1
0.0002057612,0.0003185587,1,1
0.0002140265,0.0002525981,1,1
0.0002205092,0.0002041406,1,1
0.0002216436,0.0001707551,1,1
0.0001976579,0.0001485521,1,1
0.0001266733,0.0001336421,1,1
7.555301e-06,0.0001197045,1,1
-0.000137169,0.0001039842,1,1
-0.0002666592,8.907416e-05,1,1
-0.0003438023,7.870197e-05,1,1
-0.0003647087,7.643307e-05,1,1
-0.0003496366,7.740546e-05,1,1
-0.0003266234,7.6271e-05,1,1
-0.0003099306,6.946425e-05,1,1
-0.0002976137,5.601284e-05,1,1
-0.0002788141,3.753739e-05,1,1
-0.0002476975,2.068259e-05,1,1
-0.0001995642,1.014835e-05,1,1
-0.0001368449,1.031041e-05,1,1
-6.456377e-05,1.841368e-05,1,1
1.014835e-05,3.056858e-05,1,1
8.064677e-05,4.02925e-05,1,1
0.0001451488,4.596478e-05,1,1
0.0002005751,4.661304e-05,1,1
0.0002401191,3.753739e-05,1,1
0.0002568118,2.100672e-05,1,1
0.0002469258,2.04508e-06,1,1
0.0002187264,-1.448558e-05,1,1
0.0001944166,-2.809907e-05,1,1
0.0002005751,-3.587821e-05,1,1
0.0002472499,-3.458168e-05,1,1
0.0003310377,-3.150244e-05,1,1
0.0004388112,-3.68506e-05,1,1
0.00055955,-5.32192e-05,1,1
0.0006840162,-7.412562e-05,1,1
0.000802486,-9.017008e-05,1,1
0.0009052355,-9.632857e-05,1,1
0.000975572,-9.454585e-05,1,1
0.0009841614,-9.2439e-05,1,1
0.000906532,-9.324933e-05,1,1
0.0007421977,-9.843541e-05,1,1
0.0005185474,-0.0001075111,1,1
0.0002786906,-0.000119666,1,1
7.286763e-05,-0.0001318209,1,1
-6.667062e-05,-0.0001431655,1,1
-0.0001365208,-0.0001533756,1,1
-0.0001572651,-0.0001611547,1,1
-0.0001583996,-0.0001687718,1,1
-0.000159372,-0.0001773612,1,1
-0.0001635857,-0.0001844921,1,1
-0.0001567789,-0.0001890299,1,1
-0.0001250141,-0.0001972953,1,1
-5.289507e-05,-0.0002122053,1,1
6.573675e-05,-0.0002335979,1,1
0.0002216436,-0.0002528836,1,1
0.0003916502,-0.0002570974,1,1
0.0005433434,-0.0002417012,1,1
0.0006470652,-0.0002092881,1,1
0.0006867713,-0.0001663408,1,1
0.000666189,-0.0001208004,1,1
0.0006049282,-7.963584e-05,1,1
0.0005221128,-5.159854e-05,1,1
0.0004295735,-4.05781e-05,1,1
0.0003349273,-4.300908e-05,1,1
0.0002417397,-5.111234e-05,1,1
0.0001485521,-5.905355e-05,1,1
4.904402e-05,-6.342931e-05,1,1
-5.565017e-05,-6.48879e-05,1,1
-0.0001637477,-6.569822e-05,1,1
-0.0002707109,-6.91016e-05,1,1
-0.0003737844,-7.65566e-05,1,1
-0.0004710235,-8.676672e-05,1,1
-0.0005630766,-9.519411e-05,1,1
-0.0006481609,-9.762509e-05,1,1
-0.0007274108,-8.935975e-05,1,1
-0.0007987196,-7.023606e-05,1,1
-0.0008580354,-4.333321e-05,1,1
-0.0008998482,-1.383732e-05,1,1
-0.0009118411,2.262738e-05,1,1
-0.000884128,7.513654e-05,1,1
-0.0008227052,0.0001423936,1,1
-0.0007454,0.0002088404,1,1
-0.0006721465,0.0002563256,1,1
-0.000613641,0.0002795009,1,1
-0.0005676145,0.0002851732,1,1
-0.0005309877,0.0002867939,1,1
-0.0005066779,0.0002889007,1,1
-0.0005005194,0.000287118,1,1
-0.0005079744,0.0002788527,1,1
-0.0005055434,0.0002639427,1,1
-0.0004695649,0.0002475741,1,1
-0.0003982562,0.0002342847,1,1
-0.0003104168,0.0002261814,1,1
-0.0002381357,0.0002240746,1,1
-0.0002047502,0.0002237505,1,1
-0.0002156086,0.0002171058,1,1
-0.000251263,0.0002038164,1,1
-0.0002796244,0.0001840444,1,1
-0.0002737901,0.0001600588,1,1
-0.0002254946,0.000135749,1,1
-0.0001442999,0.0001146805,1,1
-5.305713e-05,9.847395e-05,1,1
2.797553e-05,8.891209e-05,1,1
9.782569e-05,8.178122e-05,1,1
0.0001633001,7.67572e-05,1,1
0.000225209,7.367795e-05,1,1
0.0002738286,7.400208e-05,1,1
0.0002960316,7.740546e-05,1,1
0.0002890628,7.772959e-05,1,1
0.0002641047,6.962632e-05,1,1
0.0002370398,5.001642e-05,1,1
0.0002321778,2.586868e-05,1,1
0.0002701012,1.234753e-06,1,1
0.0003572923,-2.113026e-05,1,1
0.0004817585,-3.911951e-05,1,1
0.0006258347,-4.576419e-05,1,1
0.0007707212,-3.490581e-05,1,1
0.0008958358,-7.516774e-06,1,1
0.0009817304,2.505836e-05,1,1
0.001015278,4.855783e-05,1,1
0.0009906441,5.244739e-05,1,1
0.0009068561,3.218923e-05,1,1
0.0007676419,1.883015e-06,1,1
0.0005840218,-1.545797e-05,1,1
0.0003778746,-5.479652e-07,1,1
0.0001772377,4.45062e-05,1,1
1.558884e-06,9.798775e-05,1,1
-0.0001349001,0.0001328318,1,1
-0.0002261429,0.0001329939,1,1
-0.0002715212,0.0001018773,1,1
-0.0002807589,5.52025e-05,1,1
-0.0002723315,1.274139e-05,1,1
-0.0002652006,-1.3027e-05,1,1
-0.0002690902,-1.805102e-05,1,1
-0.0002849726,-8.002969e-06,1,1
-0.0003037722,4.962256e-06,1,1
-0.0003188442,1.160693e-05,1,1
-0.0003277578,5.610517e-06,1,1
-0.0003352128,-1.010982e-05,1,1
-0.0003449367,-2.745081e-05,1,1
-0.0003540124,-4.009191e-05,1,1
-0.0003574158,-4.657452e-05,1,1
-0.0003481781,-4.657452e-05,1,1
-0.0003250027,-4.090223e-05,1,1
-0.0002893484,-3.587821e-05,1,1
-0.0002451045,-3.571614e-05,1,1
-0.0001940539,-4.074016e-05,1,1
-0.0001379794,-4.47918e-05,1,1
-7.914964e-05,-4.544006e-05,1,1
-1.837515e-05,-4.171256e-05,1,1
4.077869e-05,-3.604027e-05,1,1
9.928428e-05,-2.664048e-05,1,1
0.0001590864,-1.108221e-05,1,1
0.0002148369,1.079661e-05,1,1
0.0002605393,3.899597e-05,1,1
0.0002952213,6.897806e-05,1,1
0.0003166139,9.523264e-05,1,1
0.0003284447,0.0001174356,1,1
0.0003344411,0.000130887,1,1
0.0003381686,0.0001334801,1,1
0.0003435168,0.0001279698,1,1
0.0003546993,0.0001127357,1,1
0.0003717161,9.069481e-05,1,1
0.0003910019,7.027458e-05,1,1
0.0004049396,6.217132e-05,1,1
0.0003963501,6.962632e-05,1,1
0.0003495132,8.599492e-05,1,1
0.0002564877,0.0001070634,1,1
0.0001222976,0.0001292664,1,1
-2.955766e-05,0.0001470936,1,1
-0.0001650443,0.0001595726,1,1
-0.0002541802,0.0001649207,1,1
-0.0002856209,0.0001613553,1,1
-0.0002653627,0.0001493625,1,1
-0.0002062088,0.000130725,1,1
-0.0001237176,0.0001044704,1,1
-3.668853e-05,7.092284e-05,1,1
4.35338e-05,3.170304e-05,1,1
0.0001127357,-1.156841e-05,1,1
0.0001696206,-5.386745e-05,1,1
0.0002122438,-8.628052e-05,1,1
0.0002431983,-0.0001024871,1,1
0.0002636185,-0.0001031353,1,1
0.0002752873,-9.584238e-05,1,1
0.0002806354,-9.2439e-05,1,1
0.0002840388,-0.0001062146,1,1
0.0002842008,-0.0001374932,1,1
0.0002692908,-0.0001731475,1,1
0.0002198609,-0.0001859507,1,1
0.0001286181,-0.0001506204,1,1
1.047248e-05,-5.872941e-05,1,1
-0.0001070249,7.367795e-05,1,1
-0.0002068571,0.0002130541,1,1
-0.000283514,0.0003235827,1,1
-0.0003392644,0.0003825745,1,1
-0.000385291,0.0003780367,1,1
-0.0004303451,0.0003171001,1,1
-0.000469727,0.000220023,1,1
-0.0004907955,0.0001114392,1,1
-0.0004903093,1.452411e-05,1,1
-0.0004736166,-5.678463e-05,1,1
-0.0004452552,-9.843541e-05,1,1
-0.0004104111,-0.0001149661,1,1
-0.0003773498,-0.0001180453,1,1
-0.0003541745,-0.0001188556,1,1
-0.0003342404,-0.0001258245,1,1
-0.0003013411,-0.0001381414,1,1
-0.000243808,-0.0001507825,1,1
-0.0001653684,-0.0001590478,1,1
-8.141856e-05,-0.0001665028,1,1
-9.947754e-06,-0.0001747682,1,1
4.013043e-05,-0.0001857886,1,1
6.946425e-05,-0.0001958367,1,1
8.79397e-05,-0.0002018331,1,1
0.0001049566,-0.0002057227,1,1
0.0001252147,-0.0002060468,1,1
0.000153252,-0.0002032917,1,1
0.000195227,-0.0001974573,1,1
0.0002631324,-0.0001921092,1,1
0.0003700955,-0.0001883817,1,1
0.0005104441,-0.00018433,1,1
0.0006584098,-0.0001770371,1,1
0.0007810934,-0.0001658546,1,1
0.0008501333,-0.0001548341,1,1
0.0008587227,-0.0001478653,1,1
0.0008201511,-0.0001459206,1,1
0.000748032,-0.0001454344,1,1
0.0006512789,-0.0001405724,1,1
0.000532647,-0.0001243659,1,1
0.0003957018,-9.892161e-05,1,1
0.0002509774,-7.23429e-05,1,1
0.0001120874,-4.932962e-05,1,1
-2.978945e-06,-3.409549e-05,1,1
-8.563225e-05,-2.777494e-05,1,1
-0.0001373311,-2.42095e-05,1,1
-0.0001686097,-1.918548e-05,1,1
-0.0001848162,-8.165035e-06,1,1
-0.0001830335,6.744974e-06,1,1
-0.0001596961,2.34377e-05,1,1
-0.0001149661,3.915804e-05,1,1
-5.548811e-05,5.56887e-05,1,1
-2.238346e-07,7.157111e-05,1,1
3.397195e-05,8.259155e-05,1,1
4.045456e-05,8.534666e-05,1,1
2.586868e-05,8.486046e-05,1,1
3.827799e-06,8.891209e-05,1,1
-1.399939e-05,9.831188e-05,1,1
-2.583016e-05,0.000110953,1,1
-3.522994e-05,0.0001240803,1,1
-4.300908e-05,0.0001365593,1,1
-5.127441e-05,0.0001448246,1,1
-6.051213e-05,0.0001464453,1,1
-7.428769e-05,0.000145797,1,1
-9.405965e-05,0.0001475797,1,1
-0.0001206384,0.0001508211,1,1
-0.0001501342,0.0001537382,1,1
-0.0001814128,0.0001573037,1,1
-0.0002196603,0.0001616794,1,1
-0.0002619593,0.0001647587,1,1
-0.0003045825,0.0001654069,1,1
-0.0003452609,0.0001645966,1,1
-0.0003839945,0.0001636242,1,1
-0.0004177041,0.0001615174,1,1
-0.0004397449,0.0001547106,1,1
-0.0004514136,0.0001423936,1,1
-0.0004527101,0.0001273216,1,1
-0.0004484965,0.0001106288,1,1
-0.0004387725,9.409818e-05,1,1
-0.0004224039,7.837785e-05,1,1
-0.0004014975,6.314371e-05,1,1
-0.0003773498,5.098881e-05,1,1
-0.0003583881,4.580272e-05,1,1
-0.0003549848,4.661304e-05,1,1
-0.0003643846,4.807163e-05,1,1
