EMG1,EMG2,class,user
7.027458e-05,-7.931171e-05,1,1
-7.23429e-05,-0.0001433275,1,1
-0.0002128535,-0.0002002124,1,1
-0.0003309991,-0.0002368392,1,1
-0.0004123559,-0.0002481838,1,1
-0.0004515757,-0.0002324634,1,1
-0.0004595169,-0.0001929195,1,1
-0.0004629203,-0.0001404103,1,1
-0.0004891749,-8.611845e-05,1,1
-0.0005489769,-3.441962e-05,1,1
-0.0006303337,1.808955e-05,1,1
-0.0007074767,8.712937e-05,1,1
-0.0007538275,0.0001796687,1,1
-0.0007523688,0.000282256,1,1
-0.0007035872,0.0003671783,1,1
-0.0006259579,0.0004167703,1,1
-0.0005446012,0.000425846,1,1
-0.0004856094,0.0003966742,1,1
-0.0004656754,0.0003350894,1,1
-0.000487068,0.0002527602,1,1
-0.0005382806,0.000165569,1,1
-0.0006006758,8.810177e-05,1,1
-0.0006573986,3.332369e-05,1,1
-0.0006953219,4.80019e-06,1,1
-0.0007095836,-4.761664e-06,1,1
-0.0007040734,-6.220252e-06,1,1
-0.0006826808,-1.027188e-05,1,1
-0.0006426507,-2.437157e-05,1,1
-0.0005820383,-4.884343e-05,1,1
-0.0005003574,-7.623246e-05,1,1
-0.0004010113,-9.503204e-05,1,1
-0.0002882139,-0.0001034594,1,1
-0.0001677994,-0.0001042698,1,1
-4.706071e-05,-0.000104756,1,1
6.978839e-05,-0.0001115627,1,1
0.0001744826,-0.0001292278,1,1
0.0002691288,-0.0001559686,1,1
0.0003495132,-0.0001869231,1,1
0.000410936,-0.0002177155,1,1
0.0004529109,-0.0002470493,1,1
0.0004841895,-0.0002752487,1,1
0.0005213025,-0.0002979378,1,1
0.0005731634,-0.0003092824,1,1
0.0006329655,-0.0003091203,1,1
0.0006866092,-0.0003039342,1,1
0.0007248566,-0.0003016653,1,1
0.0007460872,-0.0003060411,1,1
0.0007648868,-0.0003047445,1,1
0.0008052412,-0.0002818933,1,1
0.0008927565,-0.000226467,1,1
0.001038453,-0.0001457585,1,1
0.001223532,-6.035007e-05,1,1
0.001401156,1.12828e-05,1,1
0.001516547,6.492643e-05,1,1
0.001521409,0.0001013911,1,1
0.001388515,0.0001248906,1,1
0.001127752,0.0001380179,1,1
0.0007856312,0.0001415833,1,1
0.0004289252,0.0001362352,1,1
0.000125863,0.0001295905,1,1
-8.07703e-05,0.0001250527,1,1
-0.0001870851,0.0001188942,1,1
-0.0002290601,0.0001057669,1,1
-0.0002499665,8.405014e-05,1,1
-0.0002789762,6.78436e-05,1,1
-0.0003237062,7.870197e-05,1,1
-0.0003731361,0.0001248906,1,1
-0.0004107352,0.0001918236,1,1
-0.000422566,0.0002534084,1,1
-0.0003935563,0.0002819319,1,1
-0.0003185201,0.0002710735,1,1
-0.0002128535,0.0002339606,1,1
-0.0001117248,0.0001926339,1,1
-4.932962e-05,0.0001602208,1,1
-4.155049e-05,0.0001394765,1,1
-8.255302e-05,0.0001261871,1,1
-0.000151917,0.0001188942,1,1
-0.0002293842,0.0001148425,1,1
-0.0002953447,0.0001130598,1,1
-0.0003369955,0.0001124116,1,1
-0.0003515814,0.0001128978,1,1
-0.0003520676,0.0001188942,1,1
-0.0003551469,0.0001253768,1,1
-0.0003669776,0.0001326697,1,1
-0.000385291,0.0001415833,1,1
-0.0004070078,0.0001526038,1,1
-0.0004295348,0.0001603829,1,1
-0.0004525481,0.0001623277,1,1
-0.0004706994,0.0001582761,1,1
-0.0004737787,0.0001514693,1,1
-0.0004612996,0.0001412592,1,1
-0.0004442827,0.0001231079,1,1
-0.0004318037,9.604298e-05,1,1
-0.0004207833,6.687121e-05,1,1
-0.0004011734,4.02925e-05,1,1
-0.0003660052,1.501031e-05,1,1
-0.0003191683,-1.20546e-05,1,1
-0.0002724935,-4.138842e-05,1,1
-0.0002378116,-7.380149e-05,1,1
-0.0002156086,-0.0001070249,1,1
-0.000196647,-0.0001376552,1,1
-0.0001687718,-0.0001640719,1,1
-0.0001248521,-0.0001853024,1,1
-6.650855e-05,-0.0002018331,1,1
-2.492749e-06,-0.0002130156,1,1
5.61749e-05,-0.0002125294,1,1
0.0001013911,-0.000191785,1,1
0.0001316974,-0.0001478653,1,1
0.0001540623,-8.806324e-05,1,1
0.0001751309,-3.166451e-05,1,1
0.0001979821,1.720949e-06,1,1
0.0002180782,2.369211e-06,1,1
0.0002290986,-2.275091e-05,1,1
0.0002305572,-5.937768e-05,1,1
0.0002269918,-9.422172e-05,1,1
0.0002227781,-0.0001193418,1,1
0.0002125679,-0.0001302002,1,1
0.0001819376,-0.0001314967,1,1
0.0001266733,-0.0001292278,1,1
6.006447e-05,-0.0001292278,1,1
4.80019e-06,-0.0001314967,1,1
-2.226472e-05,-0.0001360346,1,1
-1.756482e-05,-0.0001394379,1,1
7.23117e-06,-0.0001378173,1,1
3.235129e-05,-0.0001314967,1,1
3.510641e-05,-0.0001243659,1,1
3.503668e-06,-0.0001173971,1,1
-5.257093e-05,-0.0001102662,1,1
-0.0001076731,-9.794922e-05,1,1
-0.0001379794,-7.817725e-05,1,1
-0.0001361966,-5.59743e-05,1,1
-0.0001041077,-3.68506e-05,1,1
-5.305713e-05,-1.99958e-05,1,1
2.623614e-07,-4.275467e-06,1,1
4.191315e-05,1.371378e-05,1,1
6.622294e-05,3.737532e-05,1,1
7.756752e-05,6.379197e-05,1,1
7.886404e-05,8.405014e-05,1,1
6.654708e-05,9.199134e-05,1,1
3.721326e-05,8.84259e-05,1,1
-6.058186e-06,7.853991e-05,1,1
-5.64605e-05,6.508849e-05,1,1
-0.0001107524,5.504044e-05,1,1
-0.0001673132,4.72613e-05,1,1
-0.0002217671,4.337174e-05,1,1
-0.000261149,4.369587e-05,1,1
-0.0002739521,4.790957e-05,1,1
-0.0002577456,5.61749e-05,1,1
-0.0002099363,6.849186e-05,1,1
-0.000122259,8.696731e-05,1,1
1.355172e-05,0.0001119254,1,1
0.0001923098,0.0001441764,1,1
0.0003910019,0.0001840444,1,1
0.0005786736,0.0002289366,1,1
0.0007259911,0.0002731804,1,1
0.0008178822,0.0003102934,1,1
0.000854509,0.0003347652,1,1
0.0008455954,0.0003394651,1,1
0.0008050791,0.0003287688,1,1
0.0007459252,0.0003089969,1,1
0.0006804507,0.0002874421,1,1
0.0006127074,0.0002723701,1,1
0.0005410745,0.0002684805,1,1
0.0004615004,0.0002718839,1,1
0.0003790091,0.0002751252,1,1
0.0003098072,0.0002681563,1,1
0.0002686426,0.0002469258,1,1
0.0002571359,0.0002106232,1,1
0.0002553532,0.0001644345,1,1
0.0002339606,0.0001231079,1,1
0.0001654069,9.750156e-05,1,1
3.867184e-05,9.118101e-05,1,1
-0.000137007,9.717743e-05,1,1
-0.0003292164,0.0001049566,1,1
-0.0004963057,0.0001054428,1,1
-0.0006056998,9.393612e-05,1,1
-0.0006431369,7.335383e-05,1,1
-0.0006178547,5.001642e-05,1,1
-0.0005561078,2.829966e-05,1,1
-0.0004860956,1.338965e-05,1,1
-0.0004253211,4.313994e-06,1,1
-0.0003770257,-1.844488e-06,1,1
-0.0003308371,-4.761664e-06,1,1
-0.0002729798,-6.058186e-06,1,1
-0.0001956746,-7.516774e-06,1,1
-0.0001010285,-9.623623e-06,1,1
4.313994e-06,-1.173047e-05,1,1
0.0001127357,-1.562004e-05,1,1
0.0002141886,-2.550602e-05,1,1
0.0002918179,-4.770897e-05,1,1
0.0003255275,-8.044617e-05,1,1
0.0003124002,-0.0001182074,1,1
0.0002679943,-0.0001558065,1,1
0.0002221298,-0.0001934057,1,1
0.0002025199,-0.0002284118,1,1
0.0002203471,-0.0002598524,1,1
0.0002676702,-0.0002856209,1,1
0.0003226103,-0.000305879,1,1
0.0003623164,-0.0003173856,1,1
0.0003746333,-0.0003143064,1,1
0.0003576164,-0.0002950206,1,1
0.0003222862,-0.0002621213,1,1
0.0002824181,-0.000216581,1,1
0.0002513016,-0.0001582375,1,1
0.0002407673,-9.017008e-05,1,1
0.0002483844,-2.404744e-05,1,1
0.0002668598,2.635488e-05,1,1
0.0002848491,4.920609e-05,1,1
0.000292142,4.434413e-05,1,1
0.0002791768,1.938607e-05,1,1
0.0002433604,-1.594417e-05,1,1
0.000185341,-4.965376e-05,1,1
0.0001153287,-7.023606e-05,1,1
4.969229e-05,-7.347736e-05,1,1
-2.492749e-06,-5.970181e-05,1,1
-4.138842e-05,-3.571614e-05,1,1
-7.315322e-05,-7.030578e-06,1,1
-9.875954e-05,2.359977e-05,1,1
-0.0001188556,5.471631e-05,1,1
-0.000132145,8.129502e-05,1,1
-0.0001449482,9.879808e-05,1,1
-0.000161965,0.0001012291,1,1
-0.0001883817,8.777764e-05,1,1
-0.0002172293,6.379197e-05,1,1
-0.0002308428,4.337174e-05,1,1
-0.0002230636,3.251336e-05,1,1
-0.0002049123,3.105477e-05,1,1
-0.0001900023,3.575467e-05,1,1
-0.0001878955,4.110282e-05,1,1
-0.0002006986,4.434413e-05,1,1
-0.0002246843,4.077869e-05,1,1
-0.0002519113,3.024445e-05,1,1
-0.0002752487,1.873781e-05,1,1
-0.0002956689,1.59827e-05,1,1
-0.000315765,2.878586e-05,1,1
-0.0003360231,5.909208e-05,1,1
-0.0003501228,0.0001002567,1,1
-0.0003470436,0.0001367214,1,1
-0.000315765,0.0001535762,1,1
-0.0002582318,0.0001479039,1,1
-0.0001877334,0.0001386662,1,1
-0.0001248521,0.0001480659,1,1
-9.211487e-05,0.0001830721,1,1
-9.551824e-05,0.0002265056,1,1
-0.0001258245,0.0002532463,1,1
-0.0001656925,0.0002506533,1,1
-0.0002005366,0.000217592,1,1
-0.0002237119,0.0001667035,1,1
-0.0002370013,0.0001138702,1,1
-0.0002436459,7.416415e-05,1,1
-0.0002454286,5.163707e-05,1,1
-0.0002407288,3.818565e-05,1,1
-0.000226467,2.586868e-05,1,1
-0.0001979435,1.663096e-05,1,1
-0.0001571031,9.175954e-06,1,1
-0.0001149661,-1.682422e-06,1,1
-8.628052e-05,-2.534396e-05,1,1
-7.347736e-05,-6.002594e-05,1,1
-6.764301e-05,-8.838737e-05,1,1
-5.808115e-05,-8.82253e-05,1,1
-4.155049e-05,-5.370539e-05,1,1
-2.015787e-05,1.234753e-06,1,1
4.151929e-06,5.309566e-05,1,1
2.667901e-05,8.696731e-05,1,1
4.385793e-05,9.296373e-05,1,1
5.633696e-05,6.41161e-05,1,1
6.78436e-05,1.234753e-06,1,1
8.016057e-05,-9.081835e-05,1,1
9.004655e-05,-0.000199078,1,1
9.63671e-05,-0.0003031239,1,1
0.0001028497,-0.0003830221,1,1
0.0001124116,-0.0004296969,1,1
0.0001271595,-0.0004428242,1,1
0.0001428799,-0.0004303451,1,1
0.0001517934,-0.0003985804,1,1
0.0001441764,-0.0003533641,1,1
0.0001161391,-0.0002940482,1,1
7.254349e-05,-0.0002170672,1,1
2.100672e-05,-0.0001327933,1,1
-2.745081e-05,-5.613637e-05,1,1
-6.294311e-05,8.527692e-06,1,1
-8.660465e-05,7.092284e-05,1,1
-0.0001084835,0.0001399627,1,1
-0.0001459206,0.0002012234,1,1
-0.0002092881,0.000230071,1,1
-0.0002961551,0.0002062474,1,1
-0.0003891806,0.0001360731,1,1
-0.0004706994,3.98063e-05,1,1
-0.0005233706,-5.386745e-05,1,1
-0.0005402254,-0.0001235555,1,1
-0.0005181845,-0.0001621271,1,1
-0.0004692408,-0.0001775233,1,1
-0.0004178661,-0.0001859507,1,1
-0.0003783222,-0.0001964849,1,1
-0.0003450988,-0.0002075054,1,1
-0.0003029619,-0.0002136638,1,1
-0.0002347323,-0.000208964,1,1
-0.0001344139,-0.0001934057,1,1
-1.756482e-05,-0.0001682856,1,1
7.967438e-05,-0.0001292278,1,1
0.0001237561,-6.829127e-05,1,1
9.16672e-05,1.403791e-05,1,1
-1.399939e-05,0.0001052807,1,1
-0.0001562927,0.0001863134,1,1
-0.0002775176,0.0002393087,1,1
-0.0003245165,0.000257298,1,1
-0.000263742,0.0002487085,1,1
-9.632857e-05,0.0002260194,1,1
0.0001368834,0.0002005751,1,1
0.0003850055,0.0001751309,1,1
0.000609466,0.0001483901,1,1
0.0007953551,0.0001226217,1,1
0.0009467243,0.0001013911,1,1
0.001069408,8.388807e-05,1,1
0.001171023,7.400208e-05,1,1
0.001259673,7.140904e-05,1,1
0.001346216,6.897806e-05,1,1
0.001436324,6.362991e-05,1,1
0.001526271,6.395404e-05,1,1
0.001595473,8.680524e-05,1,1
0.001611841,0.0001410971,1,1
0.001556739,0.0002198609,1,1
0.001441348,0.0003008936,1,1
0.001296948,0.0003597233,1,1
0.001149468,0.0003853296,1,1
0.001006202,0.0003817642,1,1
0.0008665019,0.0003702575,1,1
0.0007308531,0.0003665301,1,1
0.0005997422,0.0003741471,1,1
0.0004665244,0.0003820883,1,1
0.0003196932,0.0003778746,1,1
0.0001428799,0.000353889,1,1
-7.120844e-05,0.0003078624,1,1
-0.00030831,0.0002459534,1,1
-0.0005353634,0.0001816135,1,1
-0.0007159042,0.000128294,1,1
-0.0008238396,9.344993e-05,1,1
-0.0008513908,7.157111e-05,1,1
-0.0007969369,5.747142e-05,1,1
-0.0006575607,4.369587e-05,1,1
-0.0004408794,2.635488e-05,1,1
-0.0001827094,4.313994e-06,1,1
5.601284e-05,-1.967167e-05,1,1
0.0002221298,-4.462973e-05,1,1
0.0002983005,-6.731888e-05,1,1
0.0002965178,-8.433573e-05,1,1
0.0002389846,-9.341139e-05,1,1
0.0001563313,-9.730096e-05,1,1
7.870197e-05,-9.924574e-05,1,1
2.068259e-05,-0.0001034594,1,1
-2.129233e-05,-0.0001135075,1,1
-5.613637e-05,-0.0001314967,1,1
-8.903562e-05,-0.0001549962,1,1
-0.0001161005,-0.0001776853,1,1
-0.0001376552,-0.000191785,1,1
-0.0001658546,-0.0001955125,1,1
-0.0002217671,-0.0001924333,1,1
-0.0003241924,-0.0001880575,1,1
-0.0004718339,-0.0001872472,1,1
-0.0006471885,-0.0001900023,1,1
-0.0008327533,-0.0001925954,1,1
-0.001018156,-0.0001912988,1,1
-0.001193835,-0.000186761,1,1
-0.001343583,-0.0001807646,1,1
-0.001449412,-0.0001762268,1,1
-0.001493169,-0.0001721751,1,1
-0.00147048,-0.0001684476,1,1
-0.001387017,-0.0001635857,1,1
-0.001259957,-0.0001587237,1,1
-0.00111345,-0.0001546721,1,1
-0.0009743983,-0.0001507825,1,1
-0.0008604664,-0.0001498101,1,1
-0.0007745718,-0.0001522411,1,1
-0.000695646,-0.0001530514,1,1
-0.0005937069,-0.000144624,1,1
-0.000449955,-0.0001195039,1,1
-0.0002668213,-8.271508e-05,1,1
-6.715681e-05,-4.592625e-05,1,1
0.0001214872,-2.113026e-05,1,1
0.0002788527,-6.058186e-06,1,1
0.0003979707,4.151929e-06,1,1
0.0004814344,1.468618e-05,1,1
0.0005281092,2.716521e-05,1,1
0.0005384815,4.191315e-05,1,1
0.0005224369,5.649903e-05,1,1
0.0004969927,6.816773e-05,1,1
0.0004825689,7.67572e-05,1,1
0.0004924549,8.291568e-05,1,1
0.0005279472,8.939829e-05,1,1
0.0005760806,9.652917e-05,1,1
0.0006170832,0.0001065772,1,1
0.000631669,0.000115977,1,1
0.0006133557,0.0001211631,1,1
0.0005627912,0.0001187321,1,1
0.0004867825,0.0001096565,1,1
0.0003921364,9.977047e-05,1,1
0.0002814457,9.831188e-05,1,1
0.0001610312,0.0001148425,1,1
4.142696e-05,0.0001462832,1,1
-6.602235e-05,0.000180479,1,1
-0.0001465688,0.0002060853,1,1
-0.000191623,0.0002187264,1,1
-0.0002000504,0.0002193747,1,1
-0.0001812508,0.0002085163,1,1
-0.000147055,0.0001910133,1,1
-0.0001011905,0.0001697827,1,1
-4.511593e-05,0.0001459591,1,1
1.484824e-05,0.0001197045,1,1
7.124698e-05,8.84259e-05,1,1
0.0001119254,5.455425e-05,1,1
0.0001286181,2.586868e-05,1,1
0.0001182459,2.003433e-05,1,1
8.583286e-05,4.904402e-05,1,1
4.013043e-05,0.0001077117,1,1
-1.62683e-05,0.0001696206,1,1
-7.785312e-05,0.0002043026,1,1
-0.000137007,0.0001958752,1,1
-0.0001870851,0.0001519555,1,1
-0.0002266291,9.16672e-05,1,1
-0.0002483458,3.60788e-05,1,1
-0.0002442942,1.558884e-06,1,1
-0.000216581,-4.923729e-06,1,1
-0.0001770371,1.095867e-05,1,1
-0.0001410586,4.110282e-05,1,1
-0.0001165867,7.52986e-05,1,1
-0.0001032974,0.0001018773,1,1
-9.989401e-05,0.0001141943,1,1
-0.0001079973,0.0001072255,1,1
-0.0001237176,7.756752e-05,1,1
-0.0001438137,3.040651e-05,1,1
-0.0001690959,-1.805102e-05,1,1
-0.0001998883,-5.581224e-05,1,1
-0.0002318152,-8.206682e-05,1,1
-0.0002592042,-9.535618e-05,1,1
-0.0002788141,-9.746302e-05,1,1
-0.0002827037,-9.422172e-05,1,1
-0.0002596904,-9.162867e-05,1,1
-0.0002062088,-9.875954e-05,1,1
-0.0001277692,-0.0001165867,1,1
-3.231277e-05,-0.0001399241,1,1
7.351589e-05,-0.0001609926,1,1
0.0001769136,-0.0001715269,1,1
0.0002618358,-0.0001703924,1,1
0.0002987867,-0.0001613168,1,1
0.0002725321,-0.0001485136,1,1
0.0001983062,-0.0001361966,1,1
0.0001145184,-0.0001253383,1,1
5.212327e-05,-0.0001157764,1,1
2.39239e-05,-0.0001075111,1,1
2.424803e-05,-0.0001008664,1,1
4.564065e-05,-9.405965e-05,1,1
9.16672e-05,-8.498399e-05,1,1
0.000168162,-7.477388e-05,1,1
0.0002699391,-6.407757e-05,1,1
0.0003780367,-5.289507e-05,1,1
0.0004671726,-4.155049e-05,1,1
0.0005191956,-2.745081e-05,1,1
0.0005384815,-1.399939e-05,1,1
0.0005384815,-4.275467e-06,1,1
0.0005360505,1.558884e-06,1,1
0.0005417228,3.017472e-06,1,1
0.000557281,3.017472e-06,1,1
0.0005681394,3.989864e-06,1,1
0.0005606844,1.095867e-05,1,1
0.0005281092,2.278944e-05,1,1
0.0004665244,3.753739e-05,1,1
0.0003756057,5.19612e-05,1,1
0.0002679943,6.119892e-05,1,1
0.0001642725,6.41161e-05,1,1
7.870197e-05,6.492643e-05,1,1
1.614476e-05,6.800567e-05,1,1
-2.453363e-05,7.6271e-05,1,1
-5.030202e-05,9.069481e-05,1,1
-7.444975e-05,0.0001075496,1,1
-0.0001088076,0.0001231079,1,1
-0.0001558065,0.0001347766,1,1
-0.0002018331,0.0001419075,1,1
-0.0002254946,0.0001436902,1,1
-0.0002113949,0.0001423936,1,1
-0.0001553203,0.000140773,1,1
-6.958779e-05,0.0001370455,1,1
2.035846e-05,0.0001287802,1,1
8.259155e-05,0.0001163011,1,1
0.0001000946,0.0001009049,1,1
8.356394e-05,8.356394e-05,1,1
5.779555e-05,7.092284e-05,1,1
4.175109e-05,7.043665e-05,1,1
3.105477e-05,7.821578e-05,1,1
1.144487e-05,8.923623e-05,1,1
-1.805102e-05,9.831188e-05,1,1
-4.317115e-05,0.0001020394,1,1
-4.90055e-05,9.944634e-05,1,1
-2.664048e-05,8.907416e-05,1,1
2.003433e-05,7.416415e-05,1,1
7.546067e-05,5.228533e-05,1,1
0.000130887,2.489629e-05,1,1
0.0001934442,-1.034161e-06,1,1
0.0002668598,-2.275091e-05,1,1
0.0003501615,-4.398147e-05,1,1
0.0004303838,-6.699475e-05,1,1
0.0004968306,-9.049421e-05,1,1
0.0005503122,-0.0001107524,1,1
0.0006007145,-0.0001255003,1,1
0.0006493342,-0.0001323071,1,1
0.0006906608,-0.0001284175,1,1
0.0007151327,-0.0001105903,1,1
0.0007148086,-7.169464e-05,1,1
0.0006872575,-5.57199e-06,1,1
0.0006319932,8.79397e-05,1,1
0.0005460985,0.0002023578,1,1
0.000428439,0.0003172622,1,1
0.0002850112,0.000403643,1,1
0.0001291043,0.0004371906,1,1
-1.643037e-05,0.0004049396,1,1
-0.0001214487,0.0003128864,1,1
-0.0001715269,0.0001900409,1,1
-0.0001838438,6.849186e-05,1,1
-0.0001961608,-2.258885e-05,1,1
-0.0002368392,-6.780507e-05,1,1
-0.0003100927,-7.380149e-05,1,1
-0.0003987424,-5.889148e-05,1,1
-0.0004755614,-4.446767e-05,1,1
-0.0005246671,-4.074016e-05,1,1
-0.0005434667,-4.819517e-05,1,1
-0.0005334187,-5.791909e-05,1,1
-0.0005026262,-6.602235e-05,1,1
-0.0004601652,-7.526008e-05,1,1
-0.0004083043,-9.130454e-05,1,1
-0.0003494746,-0.0001144799,1,1
-0.0002878898,-0.0001418689,1,1
-0.0002279256,-0.0001671511,1,1
-0.0001760647,-0.0001831956,1,1
-0.0001387897,-0.0001865989,1,1
-0.000122259,-0.0001794681,1,1
-0.0001279313,-0.0001656925,1,1
-0.0001567789,-0.0001517549,1,1
-0.000206695,-0.0001400862,1,1
-0.0002728177,-0.0001245279,1,1
-0.0003444506,-0.0001028112,1,1
-0.0004068457,-8.271508e-05,1,1
-0.0004462276,-6.861539e-05,1,1
-0.0004553032,-6.342931e-05,1,1
-0.0004343968,-6.261898e-05,1,1
-0.0003867496,-6.06742e-05,1,1
-0.0003172236,-5.402952e-05,1,1
-0.0002417012,-4.835724e-05,1,1
-0.0001919471,-5.030202e-05,1,1
-0.000194216,-5.710876e-05,1,1
-0.0002498044,-5.937768e-05,1,1
-0.0003287302,-4.981582e-05,1,1
-0.0003908012,-2.89094e-05,1,1
-0.0004099249,-7.100305e-07,1,1
-0.0003890185,2.619281e-05,1,1
-0.0003476919,4.758544e-05,1,1
-0.0003091203,6.200925e-05,1,1
-0.0002801106,6.78436e-05,1,1
-0.0002514251,6.525056e-05,1,1
-0.0002094502,5.974033e-05,1,1
-0.0001436516,6.444023e-05,1,1
-5.062615e-05,9.782569e-05,1,1
5.99024e-05,0.0001675138,1,1
0.0001692965,0.0002556773,1,1
0.0002584324,0.0003281205,1,1
0.0003154794,0.0003572923,1,1
0.0003378445,0.000341572,1,1
0.0003329825,0.0002999212,1,1
0.0003114278,0.0002534084,1,1
0.0002785285,0.0002141886,1,1
0.0002365536,0.0001874478,1,1
0.0001884202,0.0001744826,1,1
0.0001427178,0.0001689724,1,1
0.000115977,0.0001628139,1,1
0.0001287802,0.000150659,1,1
0.0001801549,0.0001310491,1,1
0.0002467637,0.0001018773,1,1
0.0002916559,6.573675e-05,1,1
0.00029198,2.684107e-05,1,1
0.0002503292,-7.516774e-06,1,1
0.0001863134,-2.971972e-05,1,1
0.0001214872,-4.171256e-05,1,1
7.335383e-05,-4.916756e-05,1,1
5.1475e-05,-5.662256e-05,1,1
5.309566e-05,-6.48879e-05,1,1
7.173317e-05,-7.218083e-05,1,1
9.717743e-05,-7.914964e-05,1,1
0.0001112771,-8.44978e-05,1,1
9.571884e-05,-8.498399e-05,1,1
4.531652e-05,-7.769106e-05,1,1
-2.534396e-05,-5.69467e-05,1,1
-9.827335e-05,-2.501983e-05,1,1
-0.0001558065,-6.176923e-08,1,1
-0.0001854645,3.017472e-06,1,1
-0.0001806025,-1.99958e-05,1,1
-0.0001438137,-5.840528e-05,1,1
-8.660465e-05,-9.568031e-05,1,1
-2.226472e-05,-0.0001195039,1,1
3.996837e-05,-0.0001293899,1,1
9.344993e-05,-0.0001313347,1,1
0.0001351007,-0.0001349001,1,1
0.0001610312,-0.0001459206,1,1
0.0001694586,-0.0001632615,1,1
0.0001610312,-0.0001762268,1,1
0.0001428799,-0.0001763888,1,1
0.0001198666,-0.0001626133,1,1
9.150514e-05,-0.0001376552,1,1
5.455425e-05,-0.0001094559,1,1
1.501031e-05,-8.660465e-05,1,1
-2.210265e-05,-6.942573e-05,1,1
-5.629844e-05,-6.0188e-05,1,1
-9.098041e-05,-5.64605e-05,1,1
-0.0001298761,-5.532604e-05,1,1
-0.0001750923,-5.840528e-05,1,1
-0.0002219292,-6.537409e-05,1,1
-0.0002585559,-7.201877e-05,1,1
-0.0002778417,-7.461182e-05,1,1
-0.0002809209,-7.250496e-05,1,1
-0.0002718453,-6.780507e-05,1,1
-0.0002522354,-6.472583e-05,1,1
-0.000228898,-6.423963e-05,1,1
-0.0002144742,-6.245691e-05,1,1
-0.0002113949,-5.921561e-05,1,1
-0.0002100984,-5.127441e-05,1,1
-0.0002006986,-3.798505e-05,1,1
-0.0001802784,-1.934754e-05,1,1
-0.0001524032,2.207145e-06,1,1
-0.0001258245,2.505836e-05,1,1
-0.0001037836,4.855783e-05,1,1
-9.632857e-05,6.83298e-05,1,1
-0.0001112386,8.016057e-05,1,1
-0.0001423551,8.79397e-05,1,1
-0.0001674752,9.798775e-05,1,1
-0.0001650443,0.000108522,1,1
-0.000132145,0.0001172735,1,1
-8.012204e-05,0.0001198666,1,1
-2.745081e-05,0.0001206769,1,1
1.484824e-05,0.0001214872,1,1
5.034055e-05,0.0001227837,1,1
9.620504e-05,0.0001245665,1,1
0.0001717275,0.0001253768,1,1
0.0002879283,0.0001279698,1,1
0.0004399457,0.0001365593,1,1
0.0006073592,0.0001492004,1,1
0.0007503009,0.0001597346,1,1
0.0008267959,0.0001634622,1,1
0.0008188546,0.0001577899,1,1
0.0007387943,0.0001459591,1,1
0.0006187038,0.0001278078,1,1
0.0004913204,0.0001069013,1,1
0.0003781987,9.231547e-05,1,1
0.0002864697,8.534666e-05,1,1
0.0002111094,8.259155e-05,1,1
0.0001451488,8.129502e-05,1,1
8.826383e-05,7.67572e-05,1,1
4.758544e-05,6.78436e-05,1,1
3.251336e-05,5.277153e-05,1,1
4.304761e-05,2.846173e-05,1,1
7.173317e-05,7.393236e-06,1,1
0.0001002567,8.365628e-06,1,1
0.0001096565,4.256141e-05,1,1
8.648112e-05,9.750156e-05,1,1
2.359977e-05,0.0001435281,1,1
-6.974985e-05,0.0001576278,1,1
-0.0001642339,0.0001351007,1,1
-0.0002295462,9.21534e-05,1,1
-0.0002439701,5.244739e-05,1,1
-0.000206695,3.040651e-05,1,1
-0.0001399241,2.846173e-05,1,1
-7.963584e-05,3.883391e-05,1,1
-5.2733e-05,5.034055e-05,1,1
-6.132246e-05,4.936815e-05,1,1
-9.2439e-05,3.332369e-05,1,1
-0.0001248521,6.258778e-06,1,1
-0.0001412206,-2.7937e-05,1,1
-0.0001455964,-6.180866e-05,1,1
-0.0001655305,-9.017008e-05,1,1
-0.0002229016,-0.0001154523,1,1
-0.000313334,-0.0001378173,1,1
-0.0004117076,-0.0001556445,1,1
-0.0004833405,-0.0001673132,1,1
-0.0005010056,-0.0001708786,1,1
-0.0004587066,-0.0001710407,1,1
-0.0003726499,-0.0001762268,1,1
-0.0002681178,-0.0001901644,1,1
-0.0001663408,-0.0002037779,1,1
-7.169464e-05,-0.000201509,1,1
3.056858e-05,-0.0001791439,1,1
0.0001445005,-0.0001442999,1,1
0.0002517878,-0.000102325,1,1
0.0003214759,-5.338126e-05,1,1
0.0003388169,5.86492e-07,1,1
0.000309321,4.936815e-05,1,1
0.0002587566,8.194328e-05,1,1
0.0002128921,9.296373e-05,1,1
0.0001911753,8.567078e-05,1,1
0.000207706,7.076078e-05,1,1
0.0002626462,5.633696e-05,1,1
0.0003407616,4.369587e-05,1,1
0.0004146635,3.494434e-05,1,1
0.000455666,2.846173e-05,1,1
0.0004498317,2.149292e-05,1,1
0.0004042913,1.517237e-05,1,1
0.0003370341,1.22552e-05,1,1
0.0002650771,1.387585e-05,1,1
0.0002112714,1.630683e-05,1,1
0.0001992786,1.533444e-05,1,1
0.0002428742,1.290346e-05,1,1
0.0003420582,1.987227e-05,1,1
0.0004762483,4.871989e-05,1,1
0.0006075213,9.442231e-05,1,1
0.0006943883,0.0001419075,1,1
0.0007073536,0.0001736723,1,1
0.0006423654,0.0001827479,1,1
0.0005240576,0.0001752929,1,1
0.0003869503,0.0001624898,1,1
0.0002662116,0.0001535762,1,1
0.0001965235,0.0001485521,1,1
0.000190365,0.0001438522,1,1
0.0002287745,0.0001404489,1,1
0.000279663,0.0001388282,1,1
0.0003111037,0.0001375317,1,1
0.0003072141,0.000135749,1,1
0.0002705873,0.0001329939,1,1
0.0002080301,0.0001279698,1,1
0.0001255389,0.0001216493,1,1
3.462021e-05,0.000113546,1,1
-4.787104e-05,0.0001047945,1,1
-0.0001052422,9.63671e-05,1,1
-0.0001340898,8.729144e-05,1,1
-0.0001480274,7.708133e-05,1,1
-0.0001721751,6.914012e-05,1,1
-0.0002282497,6.719535e-05,1,1
-0.0003209511,7.20573e-05,1,1
-0.0004415277,7.756752e-05,1,1
-0.0005710179,7.772959e-05,1,1
-0.0006825188,7.027458e-05,1,1
-0.0007572309,5.779555e-05,1,1
-0.0007844578,4.207521e-05,1,1
-0.0007664686,2.927205e-05,1,1
-0.0007184973,2.505836e-05,1,1
-0.0006570745,3.526847e-05,1,1
-0.0005916001,5.52025e-05,1,1
-0.0005332566,7.497447e-05,1,1
-0.0004966299,8.097089e-05,1,1
-0.0004873921,6.897806e-05,1,1
-0.0005057055,4.077869e-05,1,1
-0.0005407116,3.179537e-06,1,1
-0.0005711799,-3.296103e-05,1,1
-0.0005679386,-6.148453e-05,1,1
-0.000519481,-8.125649e-05,1,1
-0.000439907,-9.827335e-05,1,1
-0.0003520676,-0.0001177212,1,1
-0.0002822175,-0.0001462447,1,1
-0.0002428356,-0.0001828714,1,1
-0.0002258187,-0.0002185258,1,1
-0.0002162569,-0.0002473734,1,1
-0.0002073433,-0.000266173,1,1
-0.0002034537,-0.0002721694,1,1
-0.0002096122,-0.0002666592,1,1
-0.0002230636,-0.000246239,1,1
-0.0002348944,-0.0002070192,1,1
-0.000231491,-0.0001436516,1,1
-0.0002055606,-5.678463e-05,1,1
-0.0001635857,3.867184e-05,1,1
-0.0001227452,0.0001193804,1,1
-0.0001057284,0.0001645966,1,1
-0.0001209625,0.0001686482,1,1
-0.000152079,0.0001372076,1,1
-0.0001765509,8.712937e-05,1,1
-0.0001770371,3.494434e-05,1,1
-0.0001501342,-7.678839e-06,1,1
-9.778715e-05,-4.122636e-05,1,1
-2.777494e-05,-6.715681e-05,1,1
5.487838e-05,-8.255302e-05,1,1
0.0001425557,-8.644259e-05,1,1
0.0002269918,-8.158062e-05,1,1
0.0002971661,-7.104638e-05,1,1
0.000346596,-5.64605e-05,1,1
0.0003632887,-3.944364e-05,1,1
0.0003375204,-2.194059e-05,1,1
0.0002670219,-7.516774e-06,1,1
0.0001623277,3.179537e-06,1,1
5.050261e-05,1.257933e-05,1,1
-3.976777e-05,2.246531e-05,1,1
-9.211487e-05,3.672706e-05,1,1
-0.0001063766,5.763349e-05,1,1
-9.551824e-05,7.935024e-05,1,1
-7.396356e-05,9.63671e-05,1,1
-4.90055e-05,0.0001075496,1,1
-1.902341e-05,0.0001182459,1,1
1.825161e-05,0.0001318594,1,1
6.006447e-05,0.0001448246,1,1
9.879808e-05,0.0001496866,1,1
0.0001360731,0.0001449867,1,1
0.0001699448,0.0001367214,1,1
0.0002021958,0.0001286181,1,1
0.0002388225,0.0001219734,1,1
0.0002926282,0.0001193804,1,1
0.0003705817,0.0001229458,1,1
0.0004749518,0.0001312112,1,1
0.0005958526,0.0001370455,1,1
0.0007146465,0.0001378558,1,1
0.0008139926,0.0001351007,1,1
0.000896322,0.0001334801,1,1
0.0009710342,0.0001328318,1,1
0.001035698,0.0001318594,1,1
0.001080915,0.0001312112,1,1
0.001096311,0.0001297526,1,1
0.001078159,0.0001260251,1,1
0.001031809,0.0001218114,1,1
0.0009598516,0.0001214872,1,1
0.0008624502,0.0001289422,1,1
0.0007397667,0.0001412592,1,1
0.0005956905,0.0001535762,1,1
0.0004428628,0.0001579519,1,1
0.0003000832,0.0001496866,1,1
0.0001837203,0.0001227837,1,1
9.798775e-05,8.194328e-05,1,1
3.235129e-05,3.705119e-05,1,1
-3.004385e-05,-6.058186e-06,1,1
-9.746302e-05,-4.835724e-05,1,1
-0.0001702304,-8.887356e-05,1,1
-0.000238784,-0.0001253383,1,1
-0.0002997205,-0.0001525652,1,1
-0.0003567675,-0.0001703924,1,1
-0.0004081422,-0.0001799543,1,1
-0.0004455793,-0.0001823853,1,1
-0.0004651892,-0.0001815749,1,1
-0.0004681064,-0.0001820611,1,1
-0.0004630823,-0.0001875713,1,1
-0.0004653512,-0.0001964849,1,1
-0.000487068,-0.0002008607,1,1
-0.0005319601,-0.0001835197,1,1
-0.0005916001,-0.0001340898,1,1
-0.0006454058,-5.808115e-05,1,1
-0.0006727948,2.01964e-05,1,1
-0.0006653398,7.367795e-05,1,1
-0.0006301716,8.194328e-05,1,1
-0.0005810658,4.077869e-05,1,1
-0.0005290429,-3.21507e-05,1,1
-0.0004762096,-0.0001162626,1,1
-0.0004228902,-0.000191785,1,1
-0.0003718396,-0.0002468872,1,1
-0.000325651,-0.000278652,1,1
-0.0002862691,-0.0002865932,1,1
-0.0002523975,-0.000278652,1,1
-0.0002225774,-0.0002669833,1,1
-0.0001953505,-0.0002541802,1,1
-0.0001749302,-0.0002391081,1,1
-0.0001647201,-0.0002156086,1,1
-0.0001645581,-0.0001853024,1,1
-0.0001647201,-0.0001501342,1,1
-0.0001515928,-0.0001126972,1,1
-0.0001161005,-7.396356e-05,1,1
-6.537409e-05,-3.425755e-05,1,1
-2.485776e-05,3.179537e-06,1,1
-1.950961e-05,3.688912e-05,1,1
-5.143648e-05,6.476436e-05,1,1
-0.0001005423,8.46984e-05,1,1
-0.0001402483,9.474644e-05,1,1
-0.0001499722,9.231547e-05,1,1
-0.000127283,7.886404e-05,1,1
-8.741498e-05,6.427817e-05,1,1
-4.592625e-05,5.536457e-05,1,1
-1.358292e-06,5.374392e-05,1,1
6.46023e-05,5.601284e-05,1,1
0.0001722137,6.071273e-05,1,1
0.000324393,6.670914e-05,1,1
0.0004987754,7.513654e-05,1,1
0.0006627856,8.599492e-05,1,1
0.0007926,9.944634e-05,1,1
0.0008807636,0.0001164632,1,1
0.0009253316,0.0001360731,1,1
0.0009266282,0.0001561692,1,1
0.0008833567,0.0001722137,1,1
0.0007883863,0.0001808031,1,1
0.000641393,0.0001808031,1,1
0.0004525868,0.0001756171,1,1
0.0002453052,0.0001673517,1,1
4.985435e-05,0.0001576278,1,1
-0.0001071869,0.0001493625,1,1
-0.0002094502,0.0001459591,1,1
-0.0002522354,0.0001485521,1,1
-0.0002441321,0.0001577899,1,1
-0.000206695,0.0001689724,1,1
-0.000166989,0.0001707551,1,1
-0.0001407345,0.0001529279,1,1
-0.0001361966,0.0001128978,1,1
-0.0001481895,5.957827e-05,1,1
-0.0001630995,9.175954e-06,1,1
-0.0001639098,-2.372331e-05,1,1
-0.0001465688,-3.814712e-05,1,1
-0.0001209625,-4.171256e-05,1,1
-9.422172e-05,-4.171256e-05,1,1
-6.180866e-05,-4.349527e-05,1,1
-1.416145e-05,-5.289507e-05,1,1
4.126489e-05,-6.845333e-05,1,1
9.020862e-05,-7.33153e-05,1,1
0.000121001,-4.47918e-05,1,1
0.0001310491,3.202716e-05,1,1
0.0001261871,0.0001464453,1,1
0.0001253768,0.0002590807,1,1
0.0001423936,0.0003289309,1,1
0.0001746447,0.0003360618,1,1
0.0002096508,0.000289387,1,1
0.0002320158,0.000217754,1,1
0.0002373639,0.0001477418,1,1
0.0002216436,9.782569e-05,1,1
0.0001803169,6.881599e-05,1,1
0.0001171115,5.358185e-05,1,1
4.223728e-05,4.531652e-05,1,1
-3.360929e-05,3.93201e-05,1,1
-0.0001016767,3.040651e-05,1,1
-0.0001507825,1.436204e-05,1,1
-0.0001763888,-8.975362e-06,1,1
-0.0001856265,-3.620233e-05,1,1
-0.0001930815,-6.39155e-05,1,1
-0.0002131776,-8.611845e-05,1,1
-0.000258718,-9.551824e-05,1,1
-0.0003379679,-9.503204e-05,1,1
-0.0004484965,-9.276313e-05,1,1
-0.0005791211,-9.422172e-05,1,1
-0.0007167145,-0.0001005423,1,1
-0.0008372911,-0.0001070249,1,1
-0.0009196203,-0.0001092938,1,1
-0.0009466851,-0.0001037836,1,1
-0.0009145963,-9.29252e-05,1,1
-0.0008264327,-8.514606e-05,1,1
-0.0006922426,-8.336335e-05,1,1
-0.0005306636,-8.757704e-05,1,1
-0.0003575778,-9.616651e-05,1,1
-0.0001854645,-0.0001068628,1,1
-2.631635e-05,-0.0001177212,1,1
0.000120839,-0.0001227452,1,1
0.0002545429,-0.000119666,1,1
0.0003793332,-0.0001088076,1,1
0.0005007202,-9.503204e-05,1,1
0.0006287518,-8.07703e-05,1,1
0.0007579181,-7.039812e-05,1,1
0.0008684467,-6.375344e-05,1,1
0.0009418624,-5.921561e-05,1,1
0.0009718445,-5.69467e-05,1,1
0.0009595275,-5.257093e-05,1,1
0.0009071803,-4.414354e-05,1,1
0.0008243649,-3.506788e-05,1,1
0.0007308531,-2.46957e-05,1,1
0.0006486859,-1.3027e-05,1,1
0.0005833735,-7.100305e-07,1,1
0.0005256782,1.290346e-05,1,1
0.0004589073,3.13789e-05,1,1
0.0003717161,5.179914e-05,1,1
0.0002624841,7.124698e-05,1,1
0.0001380179,8.761557e-05,1,1
4.151929e-06,0.0001033359,1,1
-0.0001323071,0.000120839,1,1
-0.0002580697,0.0001388282,1,1
-0.0003611433,0.0001566554,1,1
-0.000435045,0.0001738343,1,1
-0.0004684305,0.000192958,1,1
-0.0004476861,0.0002158093,1,1
-0.00036795,0.0002391467,1,1
-0.0002399184,0.0002558394,1,1
-9.373552e-05,0.0002616738,1,1
3.024445e-05,0.0002542187,1,1
0.0001038221,0.0002354192,1,1
0.0001094944,0.0002098128,1,1
4.596478e-05,0.000177886,1,1
-6.877746e-05,0.0001378558,1,1
-0.0002058847,9.766362e-05,1,1
-0.0003305129,7.367795e-05,1,1
-0.0004155972,7.335383e-05,1,1
-0.0004509274,8.891209e-05,1,1
-0.0004400691,0.0001070634,1,1
-0.0003964735,0.0001163011,1,1
-0.0003318095,0.0001138702,1,1
-0.0002554767,0.0001000946,1,1
-0.0001697442,7.659513e-05,1,1
-7.088431e-05,5.244739e-05,1,1
4.175109e-05,3.267542e-05,1,1
0.0001636242,1.744129e-05,1,1
0.0002799871,4.638125e-06,1,1
0.0003709058,-6.220252e-06,1,1
0.0004196875,-1.448558e-05,1,1
0.000420984,-1.805102e-05,1,1
0.0003769022,-1.562004e-05,1,1
0.000292142,-1.189254e-05,1,1
0.0001809652,-1.772689e-05,1,1
5.487838e-05,-3.895745e-05,1,1
-7.542214e-05,-7.250496e-05,1,1
-0.0001950263,-0.0001086455,1,1
-0.0002899966,-0.000137007,1,1
-0.0003467195,-0.0001528894,1,1
-0.0003540124,-0.0001587237,1,1
-0.0003134961,-0.0001572651,1,1
-0.0002460769,-0.0001451102,1,1
-0.000179306,-0.0001219349,1,1
-0.0001425172,-9.130454e-05,1,1
-0.0001501342,-5.840528e-05,1,1
-0.0001935677,-3.053005e-05,1,1
-0.0002527216,-1.416145e-05,1,1
-0.0002998826,-8.489166e-06,1,1
-0.0003105789,-1.318906e-05,1,1
-0.0002682799,-2.809907e-05,1,1
-0.0001710407,-4.965376e-05,1,1
-3.749886e-05,-7.266703e-05,1,1
9.960841e-05,-8.935975e-05,1,1
0.0002059233,-9.730096e-05,1,1
0.0002542187,-0.0001016767,1,1
0.0002344468,-9.973194e-05,1,1
0.0001610312,-8.757704e-05,1,1
6.476436e-05,-7.072225e-05,1,1
-1.156841e-05,-5.435365e-05,1,1
-2.955766e-05,-4.203669e-05,1,1
2.246531e-05,-3.814712e-05,1,1
0.0001375317,-4.414354e-05,1,1
0.0002897111,-5.2733e-05,1,1
0.0004483731,-5.856735e-05,1,1
0.0005871011,-5.710876e-05,1,1
0.0006880678,-5.046408e-05,1,1
0.0007305289,-3.798505e-05,1,1
0.0007000606,-2.161646e-05,1,1
0.0006049282,-3.627206e-06,1,1
0.0004734932,1.257933e-05,1,1
0.0003464339,2.035846e-05,1,1
0.0002569738,1.906194e-05,1,1
0.0002203471,1.322759e-05,1,1
0.0002329882,8.527692e-06,1,1
0.0002832284,7.069105e-06,1,1
0.0003581026,9.175954e-06,1,1
0.0004313562,1.419998e-05,1,1
0.0004668485,1.987227e-05,1,1
0.0004307079,2.133085e-05,1,1
0.0003091589,1.695509e-05,1,1
0.0001218114,1.063454e-05,1,1
-8.012204e-05,5.448452e-06,1,1
-0.000243808,4.962256e-06,1,1
-0.0003395886,1.079661e-05,1,1
-0.0003660052,2.39239e-05,1,1
-0.0003468815,3.688912e-05,1,1
-0.000318358,4.612685e-05,1,1
-0.0003076617,4.82337e-05,1,1
-0.0003136581,4.790957e-05,1,1
-0.0003170615,6.071273e-05,1,1
-0.0002989102,9.912221e-05,1,1
-0.0002476975,0.0001618415,1,1
-0.0001663408,0.0002321778,1,1
-7.817725e-05,0.0002840388,1,1
-6.382317e-06,0.0002986247,1,1
3.462021e-05,0.0002731804,1,1
4.256141e-05,0.0002224539,1,1
2.197911e-05,0.0001663793,1,1
-2.518189e-05,0.000120839,1,1
-9.017008e-05,9.426025e-05,1,1
-0.0001600202,8.567078e-05,1,1
-0.0002233878,8.599492e-05,1,1
-0.0002775176,8.712937e-05,1,1
-0.000318196,8.583286e-05,1,1
-0.0003369955,8.113296e-05,1,1
-0.0003238683,7.448828e-05,1,1
-0.0002783279,6.427817e-05,1,1
-0.0002100984,5.001642e-05,1,1
-0.0001381414,3.364782e-05,1,1
-7.833932e-05,2.149292e-05,1,1
-3.798505e-05,1.533444e-05,1,1
-1.513384e-05,1.59827e-05,1,1
-1.335113e-05,2.473423e-05,1,1
-3.344723e-05,3.818565e-05,1,1
-7.444975e-05,4.953022e-05,1,1
-0.0001302002,4.985435e-05,1,1
-0.0001937298,3.591673e-05,1,1
-0.0002535319,1.047248e-05,1,1
-0.0003018274,-2.129233e-05,1,1
-0.0003365093,-5.354332e-05,1,1
-0.0003564434,-7.769106e-05,1,1
-0.0003663294,-9.146661e-05,1,1
-0.0003663294,-9.600444e-05,1,1
-0.0003494746,-9.568031e-05,1,1
-0.0003131719,-9.486997e-05,1,1
-0.0002643903,-9.503204e-05,1,1
-0.000221605,-9.600444e-05,1,1
-0.0001984297,-9.713889e-05,1,1
-0.0001984297,-9.843541e-05,1,1
-0.0002152845,-0.0001018388,1,1
-0.0002428356,-0.0001094559,1,1
-0.0002695764,-0.0001229073,1,1
-0.0002805968,-0.0001408965,1,1
-0.000258718,-0.0001585616,1,1
-0.0001961608,-0.0001705545,1,1
-0.000114804,-0.0001723372,1,1
-4.85193e-05,-0.000166827,1,1
-1.399939e-05,-0.0001564548,1,1
-5.409925e-06,-0.0001436516,1,1
-2.238346e-07,-0.0001316588,1,1
2.084466e-05,-0.0001208004,1,1
6.395404e-05,-0.0001086455,1,1
0.0001219734,-9.308726e-05,1,1
0.0001777239,-7.55842e-05,1,1
0.0002146748,-5.840528e-05,1,1
0.0002269918,-4.43056e-05,1,1
0.0002242366,-3.069211e-05,1,1
0.0002265056,-1.691656e-05,1,1
0.0002495189,-1.682422e-06,1,1
0.0003052694,1.436204e-05,1,1
0.0003955397,3.55926e-05,1,1
0.0005136854,5.925414e-05,1,1
0.0006358828,7.935024e-05,1,1
0.0007340944,8.84259e-05,1,1
0.0007870898,8.858796e-05,1,1
0.0007908173,8.810177e-05,1,1
0.000755325,9.085688e-05,1,1
0.0006973055,9.669123e-05,1,1
0.0006294001,0.0001041462,1,1
0.0005545259,0.0001122495,1,1
0.0004683071,0.000120839,1,1
0.0003655576,0.0001304008,1,1
0.0002444948,0.000138342,1,1
0.0001169494,0.0001438522,1,1
2.369211e-06,0.0001467694,1,1
-7.833932e-05,0.0001487142,1,1
-0.0001138316,0.0001516314,1,1
-0.0001045939,0.0001569795,1,1
-5.467778e-05,0.0001603829,1,1
1.582063e-05,0.000160545,1,1
7.610894e-05,0.000165569,1,1
9.896015e-05,0.0001788584,1,1
7.772959e-05,0.0001987924,1,1
2.457216e-05,0.0002208333,1,1
-4.317115e-05,0.0002381743,1,1
-0.0001086455,0.0002478982,1,1
-0.0001621271,0.0002521119,1,1
-0.000208964,0.0002488706,1,1
-0.0002592042,0.0002365536,1,1
-0.0003126857,0.0002162954,1,1
-0.000358064,0.0001898788,1,1
-0.0003737844,0.0001613553,1,1
-0.0003459091,0.0001363972,1,1
-0.0002815692,0.0001153287,1,1
-0.0002073433,9.669123e-05,1,1
-0.000151917,8.129502e-05,1,1
-0.0001302002,6.703327e-05,1,1
-0.000137007,5.179914e-05,1,1
-0.000161965,3.316162e-05,1,1
-0.0001937298,1.079661e-05,1,1
-0.0002267911,-1.010982e-05,1,1
-0.0002541802,-2.291298e-05,1,1
-0.0002669833,-2.826114e-05,1,1
-0.0002528836,-2.680255e-05,1,1
-0.0002032917,-2.258885e-05,1,1
-0.0001201522,-2.258885e-05,1,1
-1.351319e-05,-3.26369e-05,1,1
9.507057e-05,-5.500191e-05,1,1
0.0001796687,-8.644259e-05,1,1
0.0002240746,-0.0001258245,1,1
0.000232502,-0.0001652063,1,1
0.0002253711,-0.0001937298,1,1
0.0002167816,-0.0002019951,1,1
0.00021273,-0.0001853024,1,1
0.0002124059,-0.0001551583,1,1
0.0002164575,-0.0001319829,1,1
0.0002316917,-0.0001261486,1,1
0.0002644289,-0.0001336036,1,1
0.0003149933,-0.0001442999,1,1
0.0003747954,-0.0001515928,1,1
0.0004391353,-0.0001522411,1,1
0.0004976409,-0.0001430034,1,1
0.0005405883,-0.0001224211,1,1
0.0005574431,-9.486997e-05,1,1
0.0005378332,-6.958779e-05,1,1
0.0004867825,-5.483985e-05,1,1
0.0004217943,-4.527799e-05,1,1
0.0003571303,-3.182657e-05,1,1
0.0003021901,-1.221667e-05,1,1
0.0002634565,4.313994e-06,1,1
0.000237526,9.013889e-06,1,1
0.0002153231,-2.238346e-07,1,1
0.0001885823,-2.194059e-05,1,1
0.0001522796,-4.868137e-05,1,1
0.0001067393,-7.039812e-05,1,1
5.99024e-05,-7.882551e-05,1,1
2.003433e-05,-7.461182e-05,1,1
-9.785688e-06,-6.667062e-05,1,1
-2.939559e-05,-6.197072e-05,1,1
-3.830919e-05,-6.407757e-05,1,1
-4.009191e-05,-7.072225e-05,1,1
-4.106429e-05,-7.65566e-05,1,1
-4.608832e-05,-7.65566e-05,1,1
-5.565017e-05,-6.974985e-05,1,1
-7.039812e-05,-5.937768e-05,1,1
-8.935975e-05,-4.835724e-05,1,1
-0.0001063766,-3.863332e-05,1,1
-0.0001114006,-2.907146e-05,1,1
-0.0001055663,-1.67545e-05,1,1
-0.000104918,2.623614e-07,1,1
-0.0001280934,1.873781e-05,1,1
-0.0001823853,3.494434e-05,1,1
-0.0002596904,4.434413e-05,1,1
-0.0003400748,4.645098e-05,1,1
-0.0004011734,4.369587e-05,1,1
-0.0004296969,4.142696e-05,1,1
-0.0004314796,4.35338e-05,1,1
-0.0004254832,5.017848e-05,1,1
-0.0004262935,6.087479e-05,1,1
-0.0004296969,7.805372e-05,1,1
-0.0004089525,0.000101067,1,1
-0.0003416954,0.000128294,1,1
-0.0002224154,0.0001616794,1,1
-7.039812e-05,0.0002005751,1,1
7.465034e-05,0.0002417397,1,1
0.0001702689,0.0002783665,1,1
0.000187934,0.0003064038,1,1
0.0001289422,0.0003187208,1,1
1.484824e-05,0.0003122381,1,1
-0.0001173971,0.0002900352,1,1
-0.0002342462,0.0002613496,1,1
-0.0003081479,0.0002344468,1,1
-0.0003300267,0.0002179161,1,1
-0.0003131719,0.0002091646,1,1
-0.0002887001,0.000202682,1,1
-0.0002961551,0.0001889064,1,1
-0.0003690845,0.0001641104,1,1
-0.0005115399,0.0001305629,1,1
-0.0006823567,9.101894e-05,1,1
-0.0008215707,5.390598e-05,1,1
-0.0008826694,2.489629e-05,1,1
-0.0008479874,5.286387e-06,1,1
-0.0007351899,-9.785688e-06,1,1
-0.0005883588,-2.501983e-05,1,1
-0.0004502792,-4.706071e-05,1,1
-0.0003481781,-7.590833e-05,1,1
-0.0002825416,-0.0001071869,1,1
-0.0002378116,-0.0001355484,1,1
-0.0001971332,-0.0001558065,1,1
-0.0001402483,-0.0001676373,1,1
-5.305713e-05,-0.0001736337,1,1
6.703327e-05,-0.0001750923,1,1
0.0002067336,-0.0001720131,1,1
0.0003449753,-0.0001642339,1,1
0.0004689553,-0.0001548341,1,1
0.0005723531,-0.0001480274,1,1
0.0006545202,-0.0001399241,1,1
0.0007149707,-0.0001233935,1,1
0.0007496527,-9.422172e-05,1,1
0.0007468975,-5.986387e-05,1,1
0.0007044364,-3.620233e-05,1,1
0.0006329655,-3.279896e-05,1,1
0.000557281,-4.43056e-05,1,1
0.0005037994,-6.132246e-05,1,1
0.0004856481,-7.461182e-05,1,1
0.0004965065,-7.947377e-05,1,1
0.0005190336,-7.898758e-05,1,1
0.0005362125,-7.720486e-05,1,1
0.0005435055,-7.752899e-05,1,1
0.0005413986,-8.271508e-05,1,1
0.000522599,-9.486997e-05,1,1
0.0004759242,-0.0001096179,1,1
0.0003991052,-0.0001199901,1,1
0.0003062417,-0.0001217728,1,1
0.0002156472,-0.0001135075,1,1
0.000145797,-9.892161e-05,1,1
0.0001022015,-8.174268e-05,1,1
7.6271e-05,-6.586029e-05,1,1
5.682316e-05,-5.127441e-05,1,1
3.478228e-05,-3.733679e-05,1,1
1.063454e-05,-2.258885e-05,1,1
-1.270286e-05,-4.599598e-06,1,1
-2.907146e-05,2.214118e-05,1,1
-3.587821e-05,6.444023e-05,1,1
-2.664048e-05,0.0001260251,1,1
-7.100305e-07,0.0001950649,1,1
3.18651e-05,0.000249843,1,1
5.747142e-05,0.0002726942,1,1
6.946425e-05,0.0002594049,1,1
6.168512e-05,0.0002196988,1,1
3.024445e-05,0.0001748067,1,1
-2.113026e-05,0.0001398006,1,1
-9.081835e-05,0.0001213252,1,1
-0.000166827,0.0001150046,1,1
-0.0002319772,0.0001128978,1,1
-0.0002749245,0.000105929,1,1
-0.0002979378,9.328786e-05,1,1
-0.0003126857,8.226741e-05,1,1
-0.000325651,8.04847e-05,1,1
-0.0003350507,8.858796e-05,1,1
-0.0003318095,0.0001046324,1,1
-0.0003062031,0.000125863,1,1
-0.0002528836,0.0001466074,1,1
-0.0001720131,0.0001639484,1,1
-6.942573e-05,0.0001788584,1,1
4.418206e-05,0.0001974959,1,1
0.0001542244,0.0002218057,1,1
0.0002453052,0.0002477361,1,1
0.0002978143,0.000269777,1,1
0.0002918179,0.0002833905,1,1
0.0002218057,0.000282094,1,1
0.0001013911,0.0002610255,1,1
-4.009191e-05,0.0002242366,1,1
-0.0001656925,0.0001811273,1,1
-0.0002507768,0.0001410971,1,1
-0.000288538,0.0001098185,1,1
-0.0002788141,8.550872e-05,1,1
-0.0002323013,6.622294e-05,1,1
-0.0001728234,5.179914e-05,1,1
-0.0001235555,4.207521e-05,1,1
-0.0001011905,3.397195e-05,1,1
-0.0001096179,2.278944e-05,1,1
-0.000137007,7.23117e-06,1,1
-0.0001684476,-1.513384e-05,1,1
-0.0001981056,-4.05781e-05,1,1
-0.0002225774,-6.715681e-05,1,1
-0.0002470493,-9.260107e-05,1,1
-0.000271197,-0.0001159385,1,1
-0.0002864312,-0.000137007,1,1
-0.0002804347,-0.0001596961,1,1
-0.0002559629,-0.0001869231,1,1
-0.0002193361,-0.0002170672,1,1
-0.0001733096,-0.0002405667,1,1
-0.0001173971,-0.0002425115,1,1
-5.305713e-05,-0.0002157707,1,1
7.555301e-06,-0.000164396,1,1
5.341979e-05,-0.0001018388,1,1
7.935024e-05,-4.932962e-05,1,1
8.275361e-05,-2.323711e-05,1,1
7.254349e-05,-2.826114e-05,1,1
5.779555e-05,-5.808115e-05,1,1
4.855783e-05,-0.0001016767,1,1
4.77475e-05,-0.000144462,1,1
5.131294e-05,-0.0001752544,1,1
5.131294e-05,-0.0001922712,1,1
3.575467e-05,-0.0001955125,1,1
-3.627206e-06,-0.0001859507,1,1
-6.731888e-05,-0.0001666649,1,1
-0.0001407345,-0.0001442999,1,1
-0.0001974573,-0.0001255003,1,1
-0.0002154466,-0.0001146419,1,1
-0.000191785,-0.0001092938,1,1
-0.0001438137,-0.000104756,1,1
-9.389759e-05,-9.66527e-05,1,1
-5.062615e-05,-8.109443e-05,1,1
3.017472e-06,-5.370539e-05,1,1
9.037068e-05,-2.226472e-05,1,1
0.0002213195,4.151929e-06,1,1
0.0003798194,2.068259e-05,1,1
0.0005360505,2.408596e-05,1,1
0.0006610029,1.825161e-05,1,1
0.0007426839,9.824215e-06,1,1
0.0007797969,3.017472e-06,1,1
0.0007739625,-3.14101e-06,1,1
0.0007300428,-9.137427e-06,1,1
0.0006624615,-1.399939e-05,1,1
0.0005822391,-1.416145e-05,1,1
0.0004919686,-8.651231e-06,1,1
0.0003918123,1.234753e-06,1,1
0.0002914938,9.824215e-06,1,1
0.0002020337,1.014835e-05,1,1
0.0001406109,3.989864e-06,1,1
0.0001137081,-1.034161e-06,1,1
0.0001179218,6.582909e-06,1,1
0.0001372076,2.667901e-05,1,1
0.0001469315,5.358185e-05,1,1
0.000121001,7.708133e-05,1,1
4.709924e-05,9.004655e-05,1,1
-5.759496e-05,9.069481e-05,1,1
-0.0001556445,8.307774e-05,1,1
-0.0002131776,7.837785e-05,1,1
-0.0002182017,8.259155e-05,1,1
-0.0001802784,9.669123e-05,1,1
-0.0001203142,0.0001206769,1,1
-5.791909e-05,0.0001498487,1,1
-4.275467e-06,0.000175455,1,1
3.445814e-05,0.0001910133,1,1
5.439218e-05,0.000192796,1,1
5.698522e-05,0.0001788584,1,1
4.969229e-05,0.0001526038,1,1
3.721326e-05,0.0001224596,1,1
2.408596e-05,9.361199e-05,1,1
1.727922e-05,6.865393e-05,1,1
2.489629e-05,4.969229e-05,1,1
5.260946e-05,3.737532e-05,1,1
9.652917e-05,3.202716e-05,1,1
0.0001420695,3.170304e-05,1,1
0.0001720516,3.397195e-05,1,1
0.0001694586,3.445814e-05,1,1
0.0001269974,2.862379e-05,1,1
5.374392e-05,1.468618e-05,1,1
-3.976777e-05,-2.330684e-06,1,1
-0.0001465688,-1.432352e-05,1,1
-0.0002619593,-1.237873e-05,1,1
-0.0003820497,-7.100305e-07,1,1
-0.0004950092,1.387585e-05,1,1
-0.0005877105,2.408596e-05,1,1
-0.000650754,2.473423e-05,1,1
-0.0006804119,1.679302e-05,1,1
-0.0006789533,5.124321e-06,1,1
-0.0006595054,-1.520357e-06,1,1
-0.0006371404,-3.951337e-06,1,1
-0.0006209339,-4.923729e-06,1,1
-0.0006091032,-1.075808e-05,1,1
-0.0005933828,-2.210265e-05,1,1
-0.0005666421,-2.971972e-05,1,1
-0.0005227224,-3.085418e-05,1,1
-0.0004666478,-2.712668e-05,1,1
-0.0004224039,-2.242678e-05,1,1
-0.0004172179,-1.837515e-05,1,1
-0.000452386,-1.788895e-05,1,1
-0.0005000332,-2.388537e-05,1,1
-0.0005270981,-3.701266e-05,1,1
-0.0005162397,-5.2733e-05,1,1
-0.0004632444,-6.099833e-05,1,1
-0.0003713534,-5.710876e-05,1,1
-0.000236353,-4.884343e-05,1,1
-4.787104e-05,-4.219875e-05,1,1
0.0001910133,-4.236082e-05,1,1
0.000460528,-4.835724e-05,1,1
0.0007387943,-5.872941e-05,1,1
0.001010254,-6.861539e-05,1,1
0.001259511,-7.153257e-05,1,1
0.001469872,-6.472583e-05,1,1
0.001621079,-5.095028e-05,1,1
0.001700492,-3.458168e-05,1,1
0.001703085,-1.821308e-05,1,1
0.001632748,-3.465141e-06,1,1
0.001506985,1.079661e-05,1,1
0.001347026,2.635488e-05,1,1
0.001174913,4.142696e-05,1,1
0.001006364,5.163707e-05,1,1
0.0008478644,5.909208e-05,1,1
0.0006950366,6.816773e-05,1,1
0.0005413986,8.113296e-05,1,1
0.0003807918,9.571884e-05,1,1
0.0002211574,0.0001093323,1,1
7.416415e-05,0.0001167873,1,1
-5.889148e-05,0.0001171115,1,1
-0.0001810887,0.0001122495,1,1
-0.0002899966,0.0001043083,1,1
-0.0003721637,9.231547e-05,1,1
-0.0004107352,7.789165e-05,1,1
-0.0004047388,6.217132e-05,1,1
-0.0003721637,4.855783e-05,1,1
-0.0003290543,4.013043e-05,1,1
-0.0002831898,3.672706e-05,1,1
-0.0002371633,3.834771e-05,1,1
-0.0002039399,5.19612e-05,1,1
-0.0001964849,8.761557e-05,1,1
-0.0002146363,0.0001513072,1,1
-0.0002447804,0.0002362295,1,1
-0.000271035,0.0003195311,1,1
-0.0002854588,0.0003756057,1,1
-0.0002893484,0.0003893813,1,1
-0.0002899966,0.0003613439,1,1
-0.0002963172,0.000304459,1,1
-0.0003102548,0.0002359054,1,1
-0.0003300267,0.0001756171,1,1
-0.0003540124,0.0001326697,1,1
-0.0003838324,0.0001072255,1,1
-0.0004164075,9.409818e-05,1,1
-0.000439907,8.615699e-05,1,1
-0.0004439586,7.643307e-05,1,1
-0.0004251591,6.395404e-05,1,1
-0.0003901529,4.953022e-05,1,1
-0.0003525538,3.543054e-05,1,1
-0.0003259751,2.262738e-05,1,1
-0.000318358,1.031041e-05,1,1
-0.0003290543,-3.858999e-07,1,1
-0.0003591985,-6.706447e-06,1,1
-0.000410087,-8.489166e-06,1,1
-0.0004762096,-1.059602e-05,1,1
-0.0005449253,-1.62683e-05,1,1
-0.0006003517,-2.728874e-05,1,1
-0.0006345474,-4.106429e-05,1,1
-0.0006442713,-5.69467e-05,1,1
-0.0006270924,-7.688073e-05,1,1
-0.0005731247,-0.0001013526,1,1
-0.0004839888,-0.0001232314,1,1
-0.0003723258,-0.0001357104,1,1
-0.0002588801,-0.0001404103,1,1
-0.0001645581,-0.0001387897,1,1
-0.0001036215,-0.0001340898,1,1
-7.509801e-05,-0.000129714,1,1
-6.537409e-05,-0.0001326312,1,1
-5.791909e-05,-0.0001428413,1,1
-3.992984e-05,-0.0001590478,1,1
-2.978945e-06,-0.0001760647,1,1
5.649903e-05,-0.0001875713,1,1
0.0001300767,-0.0001887058,1,1
0.0002033302,-0.0001828714,1,1
0.0002649151,-0.0001746061,1,1
0.000304297,-0.000166827,1,1
0.0003148312,-0.0001605064,1,1
0.0002914938,-0.0001554824,1,1
0.0002391467,-0.0001540238,1,1
0.000170431,-0.0001538618,1,1
0.0001043083,-0.0001527273,1,1
5.374392e-05,-0.0001468929,1,1
2.716521e-05,-0.0001353863,1,1
2.538249e-05,-0.0001224211,1,1
4.094075e-05,-0.0001114006,1,1
5.698522e-05,-0.0001052422,1,1
6.152305e-05,-0.0001011905,1,1
5.536457e-05,-9.29252e-05,1,1
5.098881e-05,-8.07703e-05,1,1
5.763349e-05,-6.650855e-05,1,1
8.016057e-05,-5.289507e-05,1,1
0.0001206769,-3.944364e-05,1,1
0.0001806411,-2.696461e-05,1,1
0.0002587566,-1.335113e-05,1,1
0.0003452995,1.883015e-06,1,1
0.0004287631,1.711715e-05,1,1
0.0005018546,3.170304e-05,1,1
0.0005577672,4.564065e-05,1,1
0.0005939078,5.974033e-05,1,1
0.0006084936,7.481241e-05,1,1
0.0006059006,9.069481e-05,1,1
0.0005971491,0.0001106288,1,1
0.0005916389,0.0001347766,1,1
0.0005892079,0.0001587623,1,1
0.0005828873,0.0001762653,1,1
0.0005613327,0.0001869616,1,1
0.0005140096,0.0001937684,1,1
0.0004397836,0.0002021958,1,1
0.0003443271,0.0002081922,1,1
0.0002372019,0.0002068957,1,1
0.0001339663,0.0001991165,1,1
4.920609e-05,0.0001908512,1,1
-6.544382e-06,0.0001858272,1,1
-3.976777e-05,0.000185341,1,1
-7.056019e-05,0.0001814514,1,1
-0.0001079973,0.0001671896,1,1
-0.0001489998,0.0001428799,1,1
-0.0001872472,0.0001116012,1,1
-0.0002235498,7.951231e-05,1,1
-0.0002596904,5.19612e-05,1,1
-0.0002977757,3.672706e-05,1,1
-0.0003442885,3.769945e-05,1,1
-0.0004036044,5.325772e-05,1,1
-0.0004655133,7.805372e-05,1,1
-0.0005018159,0.0001020394,1,1
-0.0004788027,0.0001177597,1,1
-0.0003833462,0.0001260251,1,1
-0.000226467,0.0001274836,1,1
-4.203669e-05,0.000118408,1,1
0.0001271595,9.993253e-05,1,1
0.0002462775,7.367795e-05,1,1
0.0003021901,4.402e-05,1,1
0.0003098072,1.776542e-05,1,1
0.0003012177,7.485573e-07,1,1
0.0003072141,-7.678839e-06,1,1
0.0003433547,-9.785688e-06,1,1
0.0004136911,-1.3027e-05,1,1
0.0005096338,-2.307504e-05,1,1
0.000606873,-3.814712e-05,1,1
0.0006728336,-4.90055e-05,1,1
0.0006791542,-5.176061e-05,1,1
0.0006130316,-4.754691e-05,1,1
0.000485324,-4.414354e-05,1,1
0.0003289309,-4.446767e-05,1,1
0.0001812893,-4.85193e-05,1,1
7.319176e-05,-5.289507e-05,1,1
8.203562e-06,-5.289507e-05,1,1
-3.717473e-05,-4.576419e-05,1,1
-9.179074e-05,-3.150244e-05,1,1
-0.0001665028,-1.805102e-05,1,1
-0.0002554767,-1.562004e-05,1,1
-0.0003465574,-3.166451e-05,1,1
-0.0004256453,-6.845333e-05,1,1
-0.0004825302,-0.0001204763,1,1
-0.0005089468,-0.0001733096,1,1
-0.0004982505,-0.0002118811,1,1
-0.0004517378,-0.0002311669,1,1
-0.0003830221,-0.0002334358,1,1
-0.0003125237,-0.0002233878,1,1
-0.0002603387,-0.000206695,1,1
-0.0002404046,-0.0001904885,1,1
-0.0002481838,-0.0001797922,1,1
-0.0002570974,-0.000176713,1,1
-0.0002405667,-0.0001702304,1,1
-0.0001964849,-0.0001392759,1,1
-0.0001421931,-7.023606e-05,1,1
-0.0001016767,2.748934e-05,1,1
-9.324933e-05,0.0001274836,1,1
-0.0001159385,0.0002023578,1,1
-0.0001475412,0.0002478982,1,1
-0.0001689338,0.000269777,1,1
-0.0001655305,0.0002743149,1,1
-0.0001413827,0.0002615117,1,1
-0.0001146419,0.0002367157,1,1
-0.0001026491,0.000200251,1,1
-0.000104756,0.0001529279,1,1
-0.0001068628,0.0001013911,1,1
-9.66527e-05,5.536457e-05,1,1
-7.785312e-05,2.262738e-05,1,1
-6.359137e-05,9.338019e-06,1,1
-6.780507e-05,1.209313e-05,1,1
-8.887356e-05,2.149292e-05,1,1
-0.0001139937,3.316162e-05,1,1
-0.0001379794,4.402e-05,1,1
-0.0001645581,5.455425e-05,1,1
-0.0001828714,6.881599e-05,1,1
-0.000166827,8.907416e-05,1,1
-0.0001071869,0.000113384,1,1
-1.869928e-05,0.0001355869,1,1
7.691926e-05,0.0001519555,1,1
0.000158114,0.0001602208,1,1
0.0002096508,0.0001615174,1,1
0.0002336365,0.0001577899,1,1
0.0002407673,0.0001508211,1,1
0.0002433604,0.0001409351,1,1
0.000244981,0.0001326697,1,1
0.0002394708,0.0001271595,1,1
0.000217754,0.0001224596,1,1
0.000170593,0.0001138702,1,1
9.814982e-05,0.0001026876,1,1
1.614476e-05,9.361199e-05,1,1
-4.868137e-05,8.923623e-05,1,1
-7.428769e-05,8.972242e-05,1,1
-5.905355e-05,8.923623e-05,1,1
-2.258885e-05,8.46984e-05,1,1
1.014835e-05,7.643307e-05,1,1
2.667901e-05,6.622294e-05,1,1
2.910999e-05,5.52025e-05,1,1
1.792748e-05,4.223728e-05,1,1
-4.275467e-06,2.408596e-05,1,1
-3.571614e-05,2.207145e-06,1,1
-7.461182e-05,-2.09682e-05,1,1
-0.0001092938,-4.300908e-05,1,1
-0.000132145,-6.359137e-05,1,1
-0.0001467309,-8.07703e-05,1,1
-0.0001551583,-9.130454e-05,1,1
-0.0001567789,-9.535618e-05,1,1
-0.0001501342,-9.778715e-05,1,1
-0.0001379794,-9.973194e-05,1,1
-0.0001237176,-0.0001052422,1,1
-0.000107349,-0.000117235,1,1
-8.530812e-05,-0.0001358725,1,1
-5.970181e-05,-0.0001561307,1,1
-3.928157e-05,-0.0001710407,1,1
-2.858527e-05,-0.000179306,1,1
-3.150244e-05,-0.0001835197,1,1
-4.398147e-05,-0.0001770371,1,1
-5.32192e-05,-0.0001551583,1,1
-4.932962e-05,-0.0001259865,1,1
-3.279896e-05,-0.0001044318,1,1
-1.173047e-05,-0.0001024871,1,1
5.448452e-06,-0.0001149661,1,1
1.371378e-05,-0.0001290658,1,1
6.744974e-06,-0.0001274451,1,1
-1.367526e-05,-9.956988e-05,1,1
-3.960571e-05,-4.835724e-05,1,1
-5.889148e-05,7.555301e-06,1,1
-6.472583e-05,4.677511e-05,1,1
-5.565017e-05,5.860588e-05,1,1
-3.247483e-05,4.385793e-05,1,1
3.179537e-06,1.144487e-05,1,1
5.1475e-05,-2.923353e-05,1,1
0.0001067393,-6.715681e-05,1,1
0.0001624898,-9.616651e-05,1,1
0.0002138645,-0.0001152902,1,1
0.0002675081,-0.0001277692,1,1
0.0003235827,-0.0001399241,1,1
0.0003652335,-0.0001535376,1,1
0.0003754436,-0.0001634236,1,1
0.0003456236,-0.0001673132,1,1
0.0002835526,-0.0001642339,1,1
0.0002055991,-0.0001600202,1,1
0.0001315353,-0.0001574272,1,1
7.594687e-05,-0.0001554824,1,1
4.742337e-05,-0.0001501342,1,1
4.596478e-05,-0.0001368449,1,1
6.168512e-05,-0.0001055663,1,1
8.42122e-05,-4.47918e-05,1,1
0.0001062531,5.374392e-05,1,1
0.000128456,0.0001843686,1,1
0.0001550348,0.0003201794,1,1
0.0001856651,0.0004251977,1,1
0.0002125679,0.0004827309,1,1
0.0002185644,0.0004947237,1,1
0.0001869616,0.0004801379,1,1
0.0001203528,0.0004595556,1,1
3.883391e-05,0.0004443214,1,1
-3.036798e-05,0.0004355699,1,1
-6.537409e-05,0.0004243874,1,1
-6.229485e-05,0.0004034809,1,1
-2.988179e-05,0.0003704196,1,1
1.97102e-05,0.0003284447,1,1
7.254349e-05,0.000284687,1,1
0.0001161391,0.0002475741,1,1
0.000145635,0.000217754,1,1
0.0001563313,0.0001916615,1,1
0.0001453108,0.0001633001,1,1
0.0001145184,0.0001305629,1,1
7.416415e-05,9.928428e-05,1,1
4.02925e-05,7.367795e-05,1,1
3.18651e-05,5.601284e-05,1,1
5.439218e-05,4.758544e-05,1,1
8.956036e-05,4.871989e-05,1,1
0.0001098185,5.471631e-05,1,1
9.831188e-05,6.055066e-05,1,1
6.006447e-05,5.974033e-05,1,1
1.825161e-05,4.904402e-05,1,1
-6.220252e-06,3.462021e-05,1,1
2.623614e-07,2.295151e-05,1,1
3.267542e-05,1.679302e-05,1,1
7.189524e-05,9.824215e-06,1,1
8.729144e-05,-2.81688e-06,1,1
6.152305e-05,-2.031993e-05,1,1
-3.858999e-07,-3.668853e-05,1,1
-8.158062e-05,-4.608832e-05,1,1
-0.0001558065,-4.592625e-05,1,1
-0.0002029675,-3.830919e-05,1,1
-0.0002109087,-2.712668e-05,1,1
-0.0001806025,-2.015787e-05,1,1
-0.0001224211,-2.226472e-05,1,1
-4.835724e-05,-3.68506e-05,1,1
3.624086e-05,-5.662256e-05,1,1
0.0001237561,-7.137051e-05,1,1
0.0002055991,-7.526008e-05,1,1
0.0002825802,-7.282909e-05,1,1
0.0003553475,-7.412562e-05,1,1
0.0004190393,-8.482193e-05,1,1
0.0004624728,-0.0001005423,1,1
0.0004775448,-0.0001144799,1,1
0.0004637693,-0.0001224211,1,1
0.0004217943,-0.0001250141,1,1
0.000356482,-0.0001282554,1,1
0.0002744769,-0.0001373311,1,1
0.0001876099,-0.0001540238,1,1
0.0001094944,-0.0001773612,1,1
5.017848e-05,-0.0002023193,1,1
1.274139e-05,-0.0002233878,1,1
-6.868513e-06,-0.0002348944,1,1
-2.323711e-05,-0.0002382978,1,1
-5.354332e-05,-0.0002394322,1,1
-0.0001070249,-0.0002402425,1,1
-0.000184168,-0.0002391081,1,1
-0.0002773555,-0.0002332737,1,1
-0.0003742705,-0.0002232257,1,1
-0.0004676201,-0.0002063709,1,1
-0.0005535148,-0.0001840059,1,1
-0.0006251476,-0.000161965,1,1
-0.0006744154,-0.0001434896,1,1
-0.0006985632,-0.0001287416,1,1
-0.0007022907,-0.0001165867,1,1
-0.0006919185,-0.0001054042,1,1
-0.0006760361,-9.276313e-05,1,1
-0.0006591813,-8.02841e-05,1,1
-0.0006437852,-6.586029e-05,1,1
-0.0006287131,-5.257093e-05,1,1
-0.0006068342,-3.992984e-05,1,1
-0.0005661559,-2.7937e-05,1,1
-0.0004917679,-1.286493e-05,1,1
-0.0003723258,4.151929e-06,1,1
-0.0002196603,2.084466e-05,1,1
-6.06742e-05,3.543054e-05,1,1
7.400208e-05,4.515445e-05,1,1
0.0001645966,5.017848e-05,1,1
0.0002143507,5.098881e-05,1,1
0.0002389846,5.066468e-05,1,1
0.0002501671,5.325772e-05,1,1
0.0002615117,5.925414e-05,1,1
0.0002848491,6.606088e-05,1,1
0.0003239069,6.768154e-05,1,1
0.000371392,6.298164e-05,1,1
0.0004214702,5.390598e-05,1,1
0.0004692795,4.483033e-05,1,1
0.000509958,4.077869e-05,1,1
0.0005415607,4.645098e-05,1,1
0.0005652222,5.795762e-05,1,1
0.0005866149,6.654708e-05,1,1
0.0006125454,6.881599e-05,1,1
0.0006546823,6.654708e-05,1,1
0.0007162672,6.249545e-05,1,1
0.0007951931,6.573675e-05,1,1
0.0008799533,8.097089e-05,1,1
0.0009501277,0.0001056048,1,1
0.0009862683,0.0001341283,1,1
0.0009833511,0.0001568175,1,1
0.0009473725,0.0001697827,1,1
0.0008953495,0.0001733481,1,1
0.0008447851,0.0001743205,1,1
0.0008013516,0.0001858272,1,1
0.000750625,0.0002193747,1,1
0.0006597064,0.0002756114,1,1
0.0005005581,0.0003409237,1,1
0.0002715597,0.0003898674,1,1
3.503668e-06,0.0004008879,1,1
-0.0002485079,0.0003686369,1,1
-0.0004400691,0.0003054314,1,1
-0.0005648594,0.0002305572,1,1
-0.0006437852,0.0001608691,1,1
-0.0007019666,0.000103498,1,1
-0.0007470207,5.909208e-05,1,1
-0.0007742477,2.262738e-05,1,1
-0.0007878611,-7.840905e-06,1,1
-0.0008029332,-3.668853e-05,1,1
-0.0008379394,-6.504996e-05,1,1
-0.0008948243,-9.098041e-05,1,1
-0.0009641882,-0.0001042698,1,1
-0.001028042,-9.422172e-05,1,1
-0.001072286,-5.662256e-05,1,1
-0.001088492,-6.058186e-06,1,1
-0.001077148,3.380988e-05,1,1
-0.00104198,4.612685e-05,1,1
-0.0009846084,3.040651e-05,1,1
-0.000913948,-2.654814e-06,1,1
-0.0008457185,-4.187462e-05,1,1
-0.0007894818,-7.817725e-05,1,1
-0.0007394037,-0.0001083214,1,1
-0.0006737672,-0.000129714,1,1
-0.0005728005,-0.0001407345,1,1
-0.0004322899,-0.0001421931,1,1
-0.0002621213,-0.0001361966,1,1
-8.628052e-05,-0.0001250141,1,1
7.20573e-05,-0.0001136696,1,1
0.0001960373,-0.0001055663,1,1
0.0002769079,-0.0001028112,1,1
0.0003230965,-0.000102325,1,1
0.0003527545,-9.956988e-05,1,1
0.0003885709,-9.162867e-05,1,1
0.0004386491,-7.850138e-05,1,1
0.000500396,-6.537409e-05,1,1
0.0005619809,-5.840528e-05,1,1
0.0006101143,-5.727083e-05,1,1
0.0006384758,-5.808115e-05,1,1
0.0006561409,-5.59743e-05,1,1
0.0006775336,-4.673658e-05,1,1
0.0007024916,-3.198864e-05,1,1
0.0007188602,-1.724069e-05,1,1
0.0007127018,-8.165035e-06,1,1
0.0006817472,-3.789272e-06,1,1
0.0006303725,5.86492e-07,1,1
0.0005660325,1.322759e-05,1,1
0.0004940755,3.478228e-05,1,1
0.0004140152,5.974033e-05,1,1
0.0003256896,8.097089e-05,1,1
0.0002290986,9.26396e-05,1,1
0.0001344524,9.361199e-05,1,1
5.552663e-05,9.247754e-05,1,1
6.90704e-06,9.669123e-05,1,1
3.665733e-06,0.0001106288,1,1
4.110282e-05,0.0001310491,1,1
0.0001028497,0.0001543865,1,1
0.0001702689,0.0001743205,1,1
0.0002221298,0.0001876099,1,1
0.0002407673,0.0001913374,1,1
0.0002248849,0.0001858272,1,1
0.000185341,0.0001735102,1,1
0.0001352628,0.0001623277,1,1
8.323981e-05,0.0001561692,1,1
2.992031e-05,0.0001514693,1,1
-2.923353e-05,0.0001404489,1,1
-9.875954e-05,0.0001213252,1,1
-0.0001721751,9.879808e-05,1,1
-0.0002352185,8.097089e-05,1,1
-0.0002809209,7.497447e-05,1,1
-0.0003125237,8.550872e-05,1,1
-0.0003400748,0.0001064152,1,1
-0.0003732982,0.0001271595,1,1
-0.0004209454,0.0001368834,1,1
-0.0004878783,0.0001326697,1,1
-0.0005653456,0.0001214872,1,1
-0.0006382749,0.0001088461,1,1
-0.0006966184,0.0001002567,1,1
-0.0007426449,9.604298e-05,1,1
-0.0007804062,9.490851e-05,1,1
-0.0008055263,8.826383e-05,1,1
-0.0008052022,7.173317e-05,1,1
-0.0007679272,4.483033e-05,1,1
-0.000693053,1.257933e-05,1,1
-0.0005877105,-2.031993e-05,1,1
-0.000459679,-4.965376e-05,1,1
-0.0003113892,-7.396356e-05,1,1
-0.0001426792,-9.600444e-05,1,1
4.72613e-05,-0.0001178833,1,1
0.0002453052,-0.0001421931,1,1
0.0004365423,-0.0001671511,1,1
0.000614166,-0.0001880575,1,1
0.0007797969,-0.0002000504,1,1
0.000938459,-0.0002031296,1,1
0.001084804,-0.0001956746,1,1
0.001203274,-0.0001775233,1,1
0.001284307,-0.0001486757,1,1
0.001320934,-0.0001115627,1,1
0.0013057,-7.444975e-05,1,1
0.001235363,-5.257093e-05,1,1
0.001113652,-5.451572e-05,1,1
0.0009491552,-7.817725e-05,1,1
0.0007509492,-0.0001094559,1,1
0.0005310264,-0.0001353863,1,1
0.000299435,-0.0001452723,1,1
6.525056e-05,-0.0001392759,1,1
-0.0001658546,-0.0001266348,1,1
-0.0003844807,-0.0001195039,1,1
-0.0005752315,-0.0001256624,1,1
-0.0007191455,-0.0001402483,1,1
-0.0008030953,-0.0001551583,1,1
-0.0008274051,-0.0001660166,1,1
-0.0007996919,-0.000161965,1,1
-0.000727897,-0.0001337657,1,1
-0.0006264441,-7.947377e-05,1,1
-0.0005117019,-8.813297e-06,1,1
-0.0004011734,5.893001e-05,1,1
-0.0003092824,0.0001104668,1,1
-0.0002418632,0.0001388282,1,1
-0.0002011848,0.0001420695,1,1
-0.0001874093,0.0001232699,1,1
-0.0002006986,8.810177e-05,1,1
-0.0002334358,5.439218e-05,1,1
-0.0002747625,4.110282e-05,1,1
-0.0003151167,5.406805e-05,1,1
-0.000340561,8.04847e-05,1,1
-0.0003309991,0.0001041462,1,1
-0.0002757348,0.0001125736,1,1
-0.0001776853,0.0001052807,1,1
-5.451572e-05,9.069481e-05,1,1
6.995045e-05,8.210535e-05,1,1
0.0001801549,8.923623e-05,1,1
0.0002696149,0.0001151667,1,1
0.0003404375,0.0001522796,1,1
0.0003960259,0.0001872858,1,1
0.0004313562,0.0002068957,1,1
0.0004412422,0.0002094887,1,1
0.000428439,0.0002000889,1,1
0.000410936,0.0001867996,1,1
0.000403643,0.0001769136,1,1
0.0004141773,0.000170593,1,1
0.0004341113,0.0001624898,1,1
0.0004422146,0.0001540623,1,1
0.0004247115,0.0001483901,1,1
0.0003806297,0.0001415833,1,1
0.0003166139,0.0001318594,1,1
0.0002394708,0.0001206769,1,1
0.000155521,0.0001114392,1,1
6.865393e-05,0.000101067,1,1
-1.529591e-05,8.599492e-05,1,1
-8.660465e-05,6.541262e-05,1,1
-0.0001408965,4.223728e-05,1,1
-0.0001783336,1.97102e-05,1,1
-0.0002010227,1.558884e-06,1,1
-0.0002097743,-8.813297e-06,1,1
-0.0002079916,-1.140634e-05,1,1
-0.000201509,-1.043395e-05,1,1
-0.0001911368,-1.075808e-05,1,1
-0.0001804405,-1.62683e-05,1,1
-0.0001771992,-2.696461e-05,1,1
-0.0001835197,-3.782299e-05,1,1
-0.0001958367,-4.219875e-05,1,1
-0.0002131776,-3.830919e-05,1,1
-0.0002405667,-2.696461e-05,1,1
-0.0002744383,-1.335113e-05,1,1
-0.0003042584,-3.858999e-07,1,1
-0.00032322,1.031041e-05,1,1
-0.0003259751,1.533444e-05,1,1
-0.0003143064,1.22552e-05,1,1
-0.0002864312,2.369211e-06,1,1
-0.0002399184,-9.299493e-06,1,1
-0.0001755785,-2.064406e-05,1,1
-0.0001029732,-3.085418e-05,1,1
-3.344723e-05,-3.782299e-05,1,1
1.841368e-05,-4.236082e-05,1,1
4.337174e-05,-4.738484e-05,1,1
4.709924e-05,-5.856735e-05,1,1
4.547859e-05,-7.444975e-05,1,1
4.82337e-05,-9.098041e-05,1,1
5.536457e-05,-0.0001037836,1,1
6.055066e-05,-0.0001128592,1,1
6.055066e-05,-0.0001201522,1,1
6.087479e-05,-0.0001287416,1,1
6.314371e-05,-0.0001381414,1,1
6.687121e-05,-0.0001507825,1,1
6.444023e-05,-0.0001624512,1,1
4.839576e-05,-0.0001674752,1,1
9.338019e-06,-0.0001618029,1,1
-5.532604e-05,-0.000144462,1,1
-0.0001332795,-0.0001209625,1,1
-0.000206533,-9.713889e-05,1,1
-0.0002617972,-8.125649e-05,1,1
-0.0002995585,-7.769106e-05,1,1
-0.0003303509,-8.239095e-05,1,1
-0.0003582261,-8.806324e-05,1,1
-0.0003797808,-9.065628e-05,1,1
-0.0003844807,-8.806324e-05,1,1
-0.0003559572,-8.222889e-05,1,1
-0.0002943724,-6.845333e-05,1,1
-0.0002063709,-4.835724e-05,1,1
-9.859748e-05,-2.615429e-05,1,1
2.295151e-05,-1.367526e-05,1,1
0.0001488763,-1.805102e-05,1,1
0.0002594049,-3.522994e-05,1,1
0.0003430306,-4.965376e-05,1,1
0.0004020224,-4.138842e-05,1,1
0.0004486972,-1.844488e-06,1,1
0.0005084993,5.747142e-05,1,1
0.0006031455,0.0001151667,1,1
0.0007420356,0.0001558451,1,1
0.0009102596,0.000175455,1,1
0.00107589,0.000180479,1,1
0.001198412,0.0001864754,1,1
0.001253676,0.0002030061,1,1
0.001239253,0.0002363916,1,1
0.001165999,0.0002762596,1,1
0.001051094,0.0003055935,1,1
0.0009141492,0.0003086727,1,1
0.0007707212,0.0002816078,1,1
0.0006255105,0.0002386605,1,1
0.0004700898,0.0001973338,1,1
0.0002858215,0.0001697827,1,1
6.298164e-05,0.000155521,1,1
-0.0001885437,0.0001504969,1,1
-0.000434883,0.0001487142,1,1
-0.0006379507,0.0001446626,1,1
-0.0007622549,0.0001344524,1,1
-0.0007757063,0.0001205148,1,1
-0.0006716604,0.0001054428,1,1
-0.0004818819,9.16672e-05,1,1
-0.000261311,8.242948e-05,1,1
-5.2733e-05,7.918817e-05,1,1
0.000123432,8.04847e-05,1,1
0.0002613496,8.226741e-05,1,1
0.0003704196,8.145709e-05,1,1
0.0004658761,7.416415e-05,1,1
0.0005551741,6.03886e-05,1,1
0.0006417171,4.110282e-05,1,1
0.0007099467,1.808955e-05,1,1
0.0007357151,-3.951337e-06,1,1
0.0007101087,-2.258885e-05,1,1
0.0006430136,-3.668853e-05,1,1
0.0005585775,-4.268495e-05,1,1
0.0004796517,-4.284701e-05,1,1
0.0004164462,-4.317115e-05,1,1
0.0003624784,-4.787104e-05,1,1
0.0002963557,-5.872941e-05,1,1
0.0001970097,-7.282909e-05,1,1
5.763349e-05,-8.887356e-05,1,1
-0.0001156143,-0.0001062146,1,1
-0.0003047445,-0.000122097,1,1
-0.0004885266,-0.0001326312,1,1
-0.0006394094,-0.0001405724,1,1
-0.0007334072,-0.0001439758,1,1
-0.00076501,-0.0001417068,1,1
-0.0007549619,-0.0001361966,1,1
-0.0007356761,-0.0001295519,1,1
-0.0007254661,-0.0001214487,1,1
-0.0007184973,-0.0001167488,1,1
-0.0007011562,-0.0001203142,1,1
-0.0006676087,-0.0001293899,1,1
-0.0006214201,-0.0001404103,1,1
-0.0005672903,-0.0001504584,1,1
-0.0005185087,-0.0001574272,1,1
-0.0004886886,-0.0001624512,1,1
-0.0004805854,-0.0001613168,1,1
-0.0004882024,-0.0001480274,1,1
-0.0005084606,-0.000119828,1,1
-0.0005408737,-7.850138e-05,1,1
-0.0005809038,-3.328516e-05,1,1
-0.0006214201,3.179537e-06,1,1
-0.0006549676,2.700314e-05,1,1
-0.0006760361,4.142696e-05,1,1
-0.0006813843,5.1475e-05,1,1
-0.0006604778,6.281957e-05,1,1
-0.0006032689,7.335383e-05,1,1
-0.000509595,7.724339e-05,1,1
-0.0003912874,7.432621e-05,1,1
-0.0002671454,6.735741e-05,1,1
-0.0001626133,6.136099e-05,1,1
-9.697683e-05,5.876794e-05,1,1
-6.926366e-05,5.957827e-05,1,1
-6.326724e-05,6.055066e-05,1,1
-6.342931e-05,6.055066e-05,1,1
-5.581224e-05,5.957827e-05,1,1
-3.620233e-05,5.747142e-05,1,1
-7.192643e-06,5.633696e-05,1,1
2.100672e-05,5.56887e-05,1,1
3.705119e-05,5.552663e-05,1,1
4.256141e-05,5.504044e-05,1,1
4.272347e-05,5.374392e-05,1,1
4.499239e-05,5.56887e-05,1,1
5.974033e-05,6.525056e-05,1,1
9.118101e-05,8.486046e-05,1,1
0.000135749,0.0001091703,1,1
0.0001895547,0.0001312112,1,1
0.0002475741,0.0001430419,1,1
0.0003034866,0.0001453108,1,1
0.0003459477,0.0001385041,1,1
0.0003650715,0.0001245665,1,1
0.0003537269,0.000110953,1,1
0.0003125623,0.0001026876,1,1
0.0002480603,0.0001041462,1,1
0.0001699448,0.0001128978,1,1
9.344993e-05,0.0001250527,1,1
3.462021e-05,0.000135911,1,1
4.80019e-06,0.0001428799,1,1
2.855407e-06,0.0001435281,1,1
2.34377e-05,0.0001362352,1,1
5.957827e-05,0.0001237561,1,1
0.0001043083,0.0001091703,1,1
0.0001558451,9.604298e-05,1,1
0.00021273,9.069481e-05,1,1
0.0002657254,9.409818e-05,1,1
0.0003005694,9.928428e-05,1,1
0.0003031625,9.782569e-05,1,1
0.0002689667,8.42122e-05,1,1
0.0002086784,6.006447e-05,1,1
0.0001378558,3.364782e-05,1,1
7.124698e-05,1.760335e-05,1,1
2.262738e-05,1.533444e-05,1,1
-3.303076e-06,2.084466e-05,1,1
-6.544382e-06,2.165498e-05,1,1
1.031041e-05,9.986281e-06,1,1
4.337174e-05,-8.165035e-06,1,1
8.42122e-05,-2.599222e-05,1,1
0.0001172735,-3.879538e-05,1,1
0.0001325077,-4.770897e-05,1,1
0.0001336421,-5.808115e-05,1,1
0.0001266733,-6.634648e-05,1,1
0.0001197045,-6.44017e-05,1,1
0.0001266733,-4.43056e-05,1,1
0.0001624898,-8.813297e-06,1,1
0.0002326641,3.121684e-05,1,1
0.0003213138,5.779555e-05,1,1
0.0004026706,5.94162e-05,1,1
0.0004514523,3.575467e-05,1,1
0.0004519385,-4.275467e-06,1,1
0.0003969983,-4.819517e-05,1,1
0.00029198,-8.611845e-05,1,1
0.0001537382,-0.0001141558,1,1
1.679302e-05,-0.0001324691,1,1
-8.82253e-05,-0.0001464067,1,1
-0.0001431655,-0.0001564548,1,1
-0.0001472171,-0.0001640719,1,1
-0.000112211,-0.0001716889,1,1
-5.59743e-05,-0.0001820611,1,1
2.855407e-06,-0.0001968091,1,1
4.35338e-05,-0.0002143121,1,1
4.677511e-05,-0.0002284118,1,1
1.533444e-05,-0.0002279256,1,1
-3.604027e-05,-0.0002081536,1,1
-8.271508e-05,-0.0001760647,1,1
-0.0001028112,-0.0001417068,1,1
-8.644259e-05,-0.0001133454,1,1
-3.522994e-05,-9.017008e-05,1,1
3.18651e-05,-6.051213e-05,1,1
9.571884e-05,-9.299493e-06,1,1
0.0001401247,6.508849e-05,1,1
0.0001522796,0.000145797,1,1
0.0001339663,0.0002109473,1,1
9.669123e-05,0.0002443328,1,1
5.698522e-05,0.0002435224,1,1
3.008238e-05,0.0002119197,1,1
3.008238e-05,0.0001624898,1,1
5.244739e-05,0.0001125736,1,1
8.761557e-05,7.465034e-05,1,1
0.0001213252,5.585077e-05,1,1
0.0001402868,5.504044e-05,1,1
0.0001436902,6.606088e-05,1,1
0.0001378558,7.999851e-05,1,1
0.0001252147,9.247754e-05,1,1
0.0001072255,0.0001012291,1,1
8.502253e-05,0.0001070634,1,1
6.03886e-05,0.0001119254,1,1
3.640293e-05,0.0001161391,1,1
1.630683e-05,0.0001195424,1,1
2.623614e-07,0.0001197045,1,1
-9.461558e-06,0.0001169494,1,1
-4.275467e-06,0.0001130598,1,1
2.441009e-05,0.0001132219,1,1
7.805372e-05,0.0001169494,1,1
0.0001430419,0.0001214872,1,1
0.0001900409,0.0001229458,1,1
0.0001916615,0.0001193804,1,1
0.0001310491,0.0001107909,1,1
8.527692e-06,0.0001017153,1,1
-0.0001515928,9.798775e-05,1,1
-0.0003201407,9.944634e-05,1,1
-0.0004728062,0.0001030118,1,1
-0.0005917621,0.000106091,1,1
-0.0006674466,0.0001049566,1,1
-0.0006979149,9.717743e-05,1,1
-0.0006901358,8.372601e-05,1,1
-0.0006554538,6.573675e-05,1,1
-0.000606186,4.402e-05,1,1
-0.0005400634,1.825161e-05,1,1
-0.0004506033,-1.318906e-05,1,1
-0.0003366714,-5.095028e-05,1,1
-0.0002053985,-8.871149e-05,1,1
-6.731888e-05,-0.0001229073,1,1
6.654708e-05,-0.000147055,1,1
0.0001926339,-0.0001583996,1,1
0.0003052694,-0.0001571031,1,1
0.0003942432,-0.0001532135,1,1
0.0004475628,-0.0001524032,1,1
0.0004563143,-0.00015451,1,1
0.0004187151,-0.0001567789,1,1
0.0003449753,-0.0001527273,1,1
0.0002527602,-0.0001340898,1,1
0.0001608691,-0.0001010285,1,1
8.696731e-05,-6.051213e-05,1,1
4.110282e-05,-2.437157e-05,1,1
2.797553e-05,-2.168618e-06,1,1
4.483033e-05,5.86492e-07,1,1
7.740546e-05,-1.562004e-05,1,1
0.0001073875,-4.511593e-05,1,1
0.0001253768,-7.542214e-05,1,1
0.0001248906,-9.713889e-05,1,1
0.0001093323,-0.0001065387,1,1
9.490851e-05,-0.0001067007,1,1
9.977047e-05,-0.0001000561,1,1
0.0001248906,-9.033215e-05,1,1
0.0001590864,-7.995997e-05,1,1
0.0001914995,-7.509801e-05,1,1
0.0002120818,-7.850138e-05,1,1
0.0002137024,-9.146661e-05,1,1
0.000190365,-0.0001128592,1,1
0.0001441764,-0.0001373311,1,1
8.648112e-05,-0.000159534,1,1
3.996837e-05,-0.0001791439,1,1
3.737532e-05,-0.0001977815,1,1
0.0001007429,-0.0002147983,1,1
0.0002315296,-0.0002245222,1,1
0.0004005638,-0.0002222533,1,1
0.0005593878,-0.0002021572,1,1
0.0006595443,-0.0001605064,1,1
0.0006674855,-9.486997e-05,1,1
0.0005775391,-1.140634e-05,1,1
0.000418391,7.173317e-05,1,1
0.0002407673,0.0001344524,1,1
8.858796e-05,0.0001683241,1,1
-2.518189e-05,0.0001848548,1,1
-0.0001089697,0.0002081922,1,1
-0.0001765509,0.0002511395,1,1
-0.0002379736,0.0003023522,1,1
-0.0002964792,0.00033671,1,1
-0.0003473677,0.0003380065,1,1
-0.0003804291,0.0003073762,1,1
-0.0003896668,0.0002621599,1,1
-0.0003737844,0.0002239125,1,1
-0.0003373197,0.0002060853,1,1
-0.0002888622,0.0002085163,1,1
-0.0002306807,0.0002237505,1,1
-0.0001608306,0.0002433604,1,1
-8.595638e-05,0.0002611876,1,1
-2.0482e-05,0.0002735045,1,1
1.484824e-05,0.0002767458,1,1
9.175954e-06,0.0002650771,1,1
-2.971972e-05,0.0002394708,1,1
-8.384954e-05,0.0002065715,1,1
-0.0001408965,0.0001717275,1,1
-0.0001912988,0.0001362352,1,1
-0.0002204706,0.0001046324,1,1
-0.0002154466,8.064677e-05,1,1
-0.0001746061,6.265751e-05,1,1
-0.0001096179,4.742337e-05,1,1
-3.798505e-05,2.797553e-05,1,1
2.165498e-05,5.448452e-06,1,1
5.974033e-05,-1.643037e-05,1,1
7.286763e-05,-3.004385e-05,1,1
6.071273e-05,-3.198864e-05,1,1
2.862379e-05,-2.42095e-05,1,1
-1.724069e-05,-1.399939e-05,1,1
-7.898758e-05,-5.085794e-06,1,1
-0.0001530514,2.623614e-07,1,1
-0.0002298704,4.151929e-06,1,1
-0.000303448,7.069105e-06,1,1
-0.0003640605,1.144487e-05,1,1
-0.0004086284,1.776542e-05,1,1
-0.0004261314,2.651694e-05,1,1
-0.000402794,3.429608e-05,1,1
-0.0003352128,3.786152e-05,1,1
-0.0002287359,3.332369e-05,1,1
-0.0001000561,2.149292e-05,1,1
2.39239e-05,3.989864e-06,1,1
0.0001268354,-1.562004e-05,1,1
0.0002025199,-3.458168e-05,1,1
0.0002532463,-5.111234e-05,1,1
0.0002793389,-7.039812e-05,1,1
0.0002790148,-9.519411e-05,1,1
0.000257298,-0.0001274451,1,1
0.0002149989,-0.0001621271,1,1
0.0001462832,-0.0001925954,1,1
4.77475e-05,-0.0002126914,1,1
-7.218083e-05,-0.0002235498,1,1
-0.0001935677,-0.0002292221,1,1
-0.0002924276,-0.0002303566,1,1
-0.000350609,-0.0002259808,1,1
-0.0003656811,-0.0002130156,1,1
-0.0003412093,-0.0001956746,1,1
-0.0002809209,-0.0001778474,1,1
-0.0001929195,-0.0001606685,1,1
-9.486997e-05,-0.000142031,1,1
-1.351319e-05,-0.0001170729,1,1
2.635488e-05,-8.109443e-05,1,1
2.165498e-05,-3.522994e-05,1,1
-7.678839e-06,9.500085e-06,1,1
-2.583016e-05,4.434413e-05,1,1
-2.492749e-06,6.314371e-05,1,1
6.881599e-05,6.670914e-05,1,1
0.0001694586,5.844381e-05,1,1
0.0002731804,4.758544e-05,1,1
0.0003517821,4.013043e-05,1,1
0.0003866261,3.478228e-05,1,1
0.0003783608,3.218923e-05,1,1
0.0003425444,3.024445e-05,1,1
0.0003030004,2.81376e-05,1,1
0.0002812837,2.862379e-05,1,1
0.0002835526,3.348575e-05,1,1
0.0002992729,4.385793e-05,1,1
0.0003133726,6.03886e-05,1,1
0.0003085106,8.356394e-05,1,1
0.0002702632,0.0001093323,1,1
0.0001991165,0.0001279698,1,1
0.0001130598,0.0001338042,1,1
4.013043e-05,0.0001304008,1,1
3.827799e-06,0.000123432,1,1
1.079661e-05,0.000118408,1,1
5.131294e-05,0.0001185701,1,1
0.0001044704,0.0001240803,1,1
0.0001475797,0.0001323456,1,1
0.0001658931,0.0001409351,1,1
0.0001526038,0.0001472556,1,1
0.0001120874,0.000150659,1,1
4.839576e-05,0.0001469315,1,1
-2.858527e-05,0.0001372076,1,1
-0.0001067007,0.0001240803,1,1
-0.0001665028,0.0001128978,1,1
-0.0001906506,0.000106091,1,1
-0.0001749302,0.0001049566,1,1
-0.0001314967,0.0001091703,1,1
-8.303922e-05,0.0001138702,1,1
-5.176061e-05,0.0001156529,1,1
-5.257093e-05,0.000113546,1,1
-8.530812e-05,0.000110953,1,1
-0.000134576,0.0001138702,1,1
-0.0001765509,0.0001273216,1,1
-0.0001874093,0.0001526038,1,1
-0.0001525652,0.0001830721,1,1
-7.688073e-05,0.0002057612,1,1
2.39239e-05,0.0002158093,1,1
0.0001224596,0.0002083542,1,1
0.0001919856,0.0001843686,1,1
0.0002145127,0.0001509831,1,1
0.0001885823,0.0001166253,1,1
0.0001239182,8.453633e-05,1,1
3.267542e-05,5.730935e-05,1,1
-6.602235e-05,3.818565e-05,1,1
-0.0001477033,2.473423e-05,1,1
-0.0001903264,1.22552e-05,1,1
-0.000181737,-3.627206e-06,1,1
-0.0001232314,-2.453363e-05,1,1
-3.360929e-05,-4.932962e-05,1,1
5.714729e-05,-7.33153e-05,1,1
0.000123432,-9.017008e-05,1,1
0.0001483901,-9.892161e-05,1,1
0.0001328318,-0.0001010285,1,1
9.960841e-05,-0.0001007043,1,1
7.027458e-05,-0.0001050801,1,1
4.531652e-05,-0.0001169109,1,1
1.501031e-05,-0.0001357104,1,1
-2.46957e-05,-0.0001562927,1,1
-7.039812e-05,-0.0001731475,1,1
-0.0001175591,-0.0001836818,1,1
-0.0001614788,-0.0001904885,1,1
-0.0001938919,-0.0001932436,1,1
-0.0002081536,-0.0001912988,1,1
-0.000209126,-0.0001853024,1,1
-0.0002047502,-0.0001784957,1,1
-0.0002002124,-0.0001690959,1,1
-0.0001977815,-0.0001579134,1,1
-0.0001935677,-0.0001438137,1,1
-0.000186761,-0.0001245279,1,1
-0.0001749302,-9.843541e-05,1,1
-0.0001464067,-7.250496e-05,1,1
-8.433573e-05,-5.22468e-05,1,1
2.068259e-05,-3.960571e-05,1,1
0.0001611932,-3.312309e-05,1,1
0.0003083486,-3.198864e-05,1,1
0.0004286011,-3.441962e-05,1,1
0.0005005581,-3.701266e-05,1,1
0.0005245438,-3.798505e-05,1,1
0.0005148199,-3.863332e-05,1,1
0.0004918066,-4.090223e-05,1,1
0.0004725208,-4.495386e-05,1,1
0.0004644175,-4.819517e-05,1,1
0.0004657141,-5.013995e-05,1,1
0.000468145,-5.078821e-05,1,1
0.0004689553,-5.257093e-05,1,1
0.0004691174,-5.305713e-05,1,1
0.0004676588,-5.354332e-05,1,1
0.0004650658,-5.22468e-05,1,1
0.0004613383,-4.38194e-05,1,1
0.0004540453,-2.339918e-05,1,1
0.000433301,7.393236e-06,1,1
0.0003853296,3.93201e-05,1,1
0.0003015418,6.265751e-05,1,1
0.0001850168,7.400208e-05,1,1
5.649903e-05,7.708133e-05,1,1
-5.370539e-05,7.999851e-05,1,1
-0.0001217728,9.069481e-05,1,1
-0.0001477033,0.000110953,1,1
-0.0001532135,0.0001312112,1,1
-0.0001616409,0.0001393144,1,1
-0.0001814128,0.0001351007,1,1
-0.0002079916,0.0001255389,1,1
-0.0002271153,0.0001201907,1,1
-0.0002241981,0.0001192183,1,1
-0.0001950263,0.0001222976,1,1
-0.0001488377,0.0001271595,1,1
-0.0001042698,0.0001336421,1,1
-8.303922e-05,0.0001427178,1,1
-0.0001118868,0.0001563313,1,1
-0.000208964,0.0001699448,1,1
-0.0003697327,0.0001772377,1,1
-0.0005616181,0.0001731861,1,1
-0.0007360002,0.000158114,1,1
-0.0008492839,0.000140773,1,1
-0.0008761868,0.0001278078,1,1
-0.0008084435,0.000118408,1,1
-0.000650916,0.000110953,1,1
-0.0004282383,0.0001028497,1,1
-0.0001739578,9.150514e-05,1,1
8.194328e-05,7.52986e-05,1,1
0.0003096451,5.779555e-05,1,1
0.0004824068,4.35338e-05,1,1
0.0005789978,3.445814e-05,1,1
0.0005965008,3.121684e-05,1,1
0.0005533914,3.316162e-05,1,1
0.0004741415,3.721326e-05,1,1
0.0003780367,4.02925e-05,1,1
0.0002803113,4.061663e-05,1,1
0.0001848548,3.818565e-05,1,1
9.069481e-05,3.332369e-05,1,1
-5.085794e-06,2.554455e-05,1,1
-9.033215e-05,1.501031e-05,1,1
-0.0001467309,7.485573e-07,1,1
-0.0001635857,-1.740276e-05,1,1
-0.0001426792,-4.138842e-05,1,1
-0.0001026491,-6.91016e-05,1,1
-5.662256e-05,-9.308726e-05,1,1
-1.20546e-05,-0.0001084835,1,1
2.894792e-05,-0.000114804,1,1
6.362991e-05,-0.0001133454,1,1
8.502253e-05,-0.0001052422,1,1
7.772959e-05,-9.438378e-05,1,1
2.975825e-05,-8.547019e-05,1,1
-5.354332e-05,-8.336335e-05,1,1
-0.0001530514,-8.887356e-05,1,1
-0.0002420253,-9.713889e-05,1,1
-0.0003036101,-0.0001024871,1,1
-0.0003352128,-9.956988e-05,1,1
-0.0003436402,-8.725291e-05,1,1
-0.0003324577,-6.764301e-05,1,1
-0.0003049066,-4.511593e-05,1,1
-0.0002619593,-2.194059e-05,1,1
-0.0002071812,-1.520357e-06,1,1
-0.0001536997,1.047248e-05,1,1
-0.0001180453,1.193106e-05,1,1
-0.0001075111,4.80019e-06,1,1
-0.0001178833,-8.327101e-06,1,1
-0.0001379794,-2.258885e-05,1,1
-0.0001553203,-2.907146e-05,1,1
-0.0001592099,-2.534396e-05,1,1
-0.0001378173,-1.853722e-05,1,1
-8.82253e-05,-1.416145e-05,1,1
-2.210265e-05,-1.027188e-05,1,1
3.55926e-05,-4.923729e-06,1,1
5.439218e-05,3.017472e-06,1,1
1.54965e-05,1.257933e-05,1,1
-7.493595e-05,2.197911e-05,1,1
-0.0001908126,2.781346e-05,1,1
-0.0002987481,3.202716e-05,1,1
-0.0003762153,3.640293e-05,1,1
-0.0004160834,4.45062e-05,1,1
-0.0004256453,5.649903e-05,1,1
-0.0004155972,7.238143e-05,1,1
-0.0003920977,9.328786e-05,1,1
-0.0003515814,0.0001154908,1,1
-0.0002875656,0.0001328318,1,1
-0.0002005366,0.0001396385,1,1
-0.0001042698,0.0001352628,1,1
-2.501983e-05,0.0001219734,1,1
2.068259e-05,0.0001054428,1,1
3.818565e-05,9.26396e-05,1,1
5.179914e-05,8.259155e-05,1,1
8.680524e-05,7.562274e-05,1,1
0.0001493625,7.059871e-05,1,1
0.0002231022,6.849186e-05,1,1
0.0002824181,6.735741e-05,1,1
0.000307052,6.881599e-05,1,1
0.0002965178,7.465034e-05,1,1
0.0002691288,8.388807e-05,1,1
0.0002454672,9.377406e-05,1,1
0.0002427121,0.0001044704,1,1
0.0002628082,0.0001127357,1,1
0.000294573,0.0001174356,1,1
0.0003234207,0.0001171115,1,1
0.0003394651,0.0001141943,1,1
0.0003346032,0.0001094944,1,1
0.0003025142,9.993253e-05,1,1
0.0002428742,8.259155e-05,1,1
0.0001660552,5.811968e-05,1,1
8.761557e-05,2.894792e-05,1,1
1.9224e-05,-1.358292e-06,1,1
-3.701266e-05,-2.907146e-05,1,1
-8.109443e-05,-4.722278e-05,1,1
-0.0001131834,-5.127441e-05,1,1
-0.0001303623,-4.090223e-05,1,1
-0.0001306864,-2.404744e-05,1,1
-0.0001177212,-9.623623e-06,1,1
-0.0001041077,-2.81688e-06,1,1
-0.0001042698,-3.627206e-06,1,1
-0.0001230693,-7.192643e-06,1,1
-0.000159534,-9.137427e-06,1,1
-0.0002036158,-8.327101e-06,1,1
-0.0002429977,-7.516774e-06,1,1
-0.0002668213,-1.108221e-05,1,1
-0.0002629317,-2.728874e-05,1,1
-0.0002220912,-5.872941e-05,1,1
-0.0001524032,-0.0001041077,1,1
-7.412562e-05,-0.0001538618,1,1
-2.492749e-06,-0.0001985918,1,1
6.006447e-05,-0.0002326255,1,1
0.0001231079,-0.0002575835,1,1
0.0001974959,-0.0002692523,1,1
0.0002814457,-0.0002605007,1,1
0.0003645853,-0.0002353806,1,1
0.0004370285,-0.0002083157,1,1
0.0004939134,-0.0001851404,1,1
0.0005428572,-0.0001543479,1,1
0.0005963388,-9.486997e-05,1,1
0.0006631098,-5.247859e-06,1,1
0.0007360392,8.729144e-05,1,1
0.0007916276,0.0001493625,1,1
0.0008029722,0.0001623277,1,1
0.0007605111,0.0001281319,1,1
0.0006772094,6.557468e-05,1,1
0.0005749461,-3.303076e-06,1,1
0.000470576,-5.64605e-05,1,1
0.0003756057,-8.417367e-05,1,1
0.0003021901,-8.952183e-05,1,1
0.000262322,-8.222889e-05,1,1
0.000259729,-7.072225e-05,1,1
0.00027707,-5.629844e-05,1,1
0.0002837146,-3.458168e-05,1,1
0.0002566497,-1.520357e-06,1,1
0.0001911753,4.239934e-05,1,1
9.150514e-05,8.356394e-05,1,1
-3.198864e-05,0.0001122495,1,1
-0.0001585616,0.0001276457,1,1
-0.0002543422,0.0001385041,1,1
-0.0002964792,0.0001501728,1,1
-0.0002827037,0.0001594105,1,1
-0.0002350565,0.0001573037,1,1
-0.0001849783,0.0001391524,1,1
-0.0001577513,0.0001132219,1,1
-0.0001697442,8.729144e-05,1,1
-0.0002120432,7.20573e-05,1,1
-0.000266173,6.768154e-05,1,1
-0.0003094444,7.173317e-05,1,1
-0.0003240303,8.161915e-05,1,1
-0.0002993964,9.280167e-05,1,1
-0.0002391081,9.977047e-05,1,1
-0.0001481895,0.0001018773,1,1
-4.236082e-05,0.0001013911,1,1
5.844381e-05,9.426025e-05,1,1
0.0001410971,8.032264e-05,1,1
0.0002047888,5.99024e-05,1,1
0.0002477361,3.786152e-05,1,1
0.000267184,2.197911e-05,1,1
0.000262322,1.727922e-05,1,1
0.0002441707,2.035846e-05,1,1
0.0002278021,2.910999e-05,1,1
0.0002287745,4.466826e-05,1,1
0.0002527602,6.962632e-05,1,1
0.0002948972,9.960841e-05,1,1
0.000341572,0.0001294284,1,1
0.0003691231,0.0001501728,1,1
0.0003611819,0.0001602208,1,1
0.0003089969,0.0001584381,1,1
0.0002148369,0.0001488763,1,1
9.231547e-05,0.0001336421,1,1
-3.766092e-05,0.0001169494,1,1
-0.0001551583,0.0001007429,1,1
-0.0002483458,8.129502e-05,1,1
-0.0003151167,5.601284e-05,1,1
-0.0003566054,2.570662e-05,1,1
-0.0003758912,-3.303076e-06,1,1
-0.0003820497,-2.46957e-05,1,1
-0.000387722,-4.122636e-05,1,1
-0.0004053871,-5.629844e-05,1,1
-0.0004439586,-6.796714e-05,1,1
-0.0004961436,-7.412562e-05,1,1
-0.0005377944,-7.315322e-05,1,1
-0.0005478425,-6.877746e-05,1,1
-0.0005282326,-6.245691e-05,1,1
-0.0004951713,-5.402952e-05,1,1
-0.0004627582,-4.462973e-05,1,1
-0.0004418518,-3.652646e-05,1,1
-0.0004331002,-3.020592e-05,1,1
-0.0004228902,-2.534396e-05,1,1
-0.0003963114,-2.177852e-05,1,1
-0.0003441264,-2.226472e-05,1,1
-0.0002689281,-2.356124e-05,1,1
-0.0001794681,-2.177852e-05,1,1
-9.162867e-05,-1.513384e-05,1,1
-2.939559e-05,-1.034161e-06,1,1
-1.448558e-05,1.338965e-05,1,1
-5.176061e-05,2.424803e-05,1,1
-0.000119828,2.39239e-05,1,1
-0.0001799543,8.041497e-06,1,1
-0.0002011848,-2.080613e-05,1,1
-0.0001770371,-5.354332e-05,1,1
-0.000127121,-8.158062e-05,1,1
-7.347736e-05,-0.0001015147,1,1
-3.231277e-05,-0.0001193418,1,1
-4.923729e-06,-0.0001376552,1,1
2.003433e-05,-0.0001522411,1,1
5.974033e-05,-0.0001606685,1,1
0.0001292664,-0.000164396,1,1
0.0002263435,-0.0001652063,1,1
0.000336548,-0.000161965,1,1
0.0004422146,-0.0001532135,1,1
0.0005311884,-0.0001387897,1,1
0.0006028214,-0.0001232314,1,1
0.000659058,-0.0001054042,1,1
0.0006961711,-7.914964e-05,1,1
0.0007024916,-3.847125e-05,1,1
0.0006660269,1.679302e-05,1,1
0.0005849942,7.465034e-05,1,1
0.0004717105,0.0001197045,1,1
0.0003485408,0.0001461212,1,1
0.0002381743,0.0001503349,1,1
0.0001594105,0.000135749,1,1
0.0001185701,0.0001140322,1,1
0.0001041462,9.604298e-05,1,1
9.069481e-05,8.615699e-05,1,1
5.714729e-05,8.518459e-05,1,1
3.989864e-06,8.79397e-05,1,1
-5.078821e-05,9.361199e-05,1,1
-9.632857e-05,9.993253e-05,1,1
-0.0001360346,0.0001054428,1,1
-0.0001796301,0.0001141943,1,1
-0.0002292221,0.0001325077,1,1
-0.0002771934,0.0001616794,1,1
-0.0003215994,0.0001949028,1,1
-0.0003687603,0.0002232643,1,1
-0.0004178661,0.0002363916,1,1
-0.0004570859,0.0002278021,1,1
-0.0004763717,0.0002013854,1,1
-0.0004668098,0.0001647587,1,1
-0.0004316416,0.0001310491,1,1
-0.0003843186,0.0001077117,1,1
-0.0003397507,9.474644e-05,1,1
-0.000300855,8.907416e-05,1,1
-0.0002605007,8.858796e-05,1,1
-0.0002094502,8.972242e-05,1,1
-0.0001405724,8.550872e-05,1,1
-5.613637e-05,7.319176e-05,1,1
4.418206e-05,5.730935e-05,1,1
0.0001539003,4.515445e-05,1,1
0.0002560015,4.223728e-05,1,1
0.0003261758,4.709924e-05,1,1
0.0003430306,5.163707e-05,1,1
0.0003077003,4.628891e-05,1,1
0.0002409294,2.927205e-05,1,1
0.000162976,6.90704e-06,1,1
8.810177e-05,-1.075808e-05,1,1
2.424803e-05,-1.837515e-05,1,1
-2.031993e-05,-1.318906e-05,1,1
-4.641245e-05,2.855407e-06,1,1
-6.035007e-05,2.246531e-05,1,1
-7.201877e-05,3.510641e-05,1,1
-8.644259e-05,3.624086e-05,1,1
-0.0001070249,2.586868e-05,1,1
-0.0001418689,7.879432e-06,1,1
-0.0001890299,-8.651231e-06,1,1
-0.0002342462,-1.805102e-05,1,1
-0.0002592042,-1.983374e-05,1,1
-0.000253856,-2.258885e-05,1,1
-0.0002118811,-3.150244e-05,1,1
-0.0001308485,-4.414354e-05,1,1
-2.583016e-05,-5.629844e-05,1,1
7.708133e-05,-6.537409e-05,1,1
0.0001503349,-7.428769e-05,1,1
0.0001773998,-8.40116e-05,1,1
0.0001573037,-9.568031e-05,1,1
0.0001119254,-0.0001101041,1,1
6.930219e-05,-0.0001255003,1,1
5.358185e-05,-0.0001350622,1,1
7.465034e-05,-0.000132145,1,1
0.0001213252,-0.0001203142,1,1
0.0001686482,-0.0001076731,1,1
0.0001979821,-9.616651e-05,1,1
0.0001989545,-8.854943e-05,1,1
0.0001673517,-8.465986e-05,1,1
0.0001072255,-8.384954e-05,1,1
2.603075e-05,-8.303922e-05,1,1
-5.565017e-05,-8.465986e-05,1,1
-0.0001105903,-8.952183e-05,1,1
-0.0001203142,-9.713889e-05,1,1
-8.206682e-05,-0.0001060525,1,1
-5.085794e-06,-0.0001120489,1,1
9.393612e-05,-0.00010978,1,1
0.0001992786,-9.859748e-05,1,1
0.0002944109,-8.239095e-05,1,1
0.0003670162,-6.731888e-05,1,1
0.0004089912,-6.197072e-05,1,1
0.0004132049,-7.18567e-05,1,1
0.0003794953,-9.989401e-05,1,1
0.0003099692,-0.0001376552,1,1
0.0002224539,-0.000164396,1,1
0.0001496866,-0.0001574272,1,1
0.0001216493,-0.0001063766,1,1
0.0001464453,-2.356124e-05,1,1
0.0002038164,6.492643e-05,1,1
0.0002607014,0.0001339663,1,1
0.0002948972,0.000170593,1,1
0.0003039728,0.000178048,1,1
0.000299435,0.0001709172,1,1
0.0002892249,0.0001636242,1,1
0.0002806354,0.0001652449,1,1
0.000279663,0.0001696206,1,1
0.0002867939,0.0001720516,1,1
0.000297004,0.0001691344,1,1
0.0003057555,0.0001633001,1,1
0.0003083486,0.000160545,1,1
0.000299597,0.0001636242,1,1
0.000274801,0.0001676758,1,1
0.000237526,0.0001709172,1,1
0.0001963614,0.0001731861,1,1
0.0001642725,0.0001798307,1,1
0.0001561692,0.000187934,1,1
0.0001837203,0.000192958,1,1
0.0002509774,0.0001906891,1,1
0.0003422202,0.0001825859,1,1
0.0004235771,0.0001692965,1,1
0.0004644175,0.0001521176,1,1
0.0004478869,0.000133318,1,1
0.0003757678,0.0001148425,1,1
0.0002639427,9.750156e-05,1,1
0.0001310491,8.534666e-05,1,1
-6.382317e-06,7.691926e-05,1,1
-0.0001358725,7.189524e-05,1,1
-0.0002509389,6.622294e-05,1,1
-0.0003463953,5.876794e-05,1,1
-0.0004264556,4.45062e-05,1,1
-0.0004997091,2.295151e-05,1,1
-0.0005728005,-4.113403e-06,1,1
-0.0006447575,-3.036798e-05,1,1
-0.0007110422,-5.370539e-05,1,1
-0.0007614446,-7.23429e-05,1,1
-0.0007831613,-8.498399e-05,1,1
-0.0007661444,-9.130454e-05,1,1
-0.0007115284,-9.2439e-05,1,1
-0.0006327647,-9.29252e-05,1,1
-0.0005381186,-9.227693e-05,1,1
-0.0004353692,-8.174268e-05,1,1
-0.0003358611,-5.22468e-05,1,1
-0.0002530457,-5.734056e-06,1,1
-0.0001969711,4.709924e-05,1,1
-0.0001676373,9.280167e-05,1,1
-0.0001580754,0.0001214872,1,1
-0.0001621271,0.0001242423,1,1
-0.000174282,0.0001007429,1,1
-0.0001919471,5.957827e-05,1,1
-0.0002154466,1.1769e-05,1,1
-0.0002449425,-3.458168e-05,1,1
-0.0002744383,-7.250496e-05,1,1
-0.000288538,-0.0001005423,1,1
-0.000276221,-0.0001229073,1,1
-0.0002370013,-0.0001415448,1,1
-0.0001974573,-0.0001592099,1,1
-0.0002123673,-0.0001720131,1,1
-0.0003250027,-0.0001752544,1,1
-0.0005332566,-0.0001713648,1,1
-0.0007847819,-0.0001681235,1,1
-0.001005029,-0.0001729855,1,1
-0.001129333,-0.0001875713,1,1
-0.001131926,-0.000201509,1,1
-0.001026745,-0.00019924,1,1
-0.0008517149,-0.0001755785,1,1
-0.0006554538,-0.0001399241,1,1
-0.0004799371,-0.0001044318,1,1
-0.000343154,-7.882551e-05,1,1
-0.0002370013,-6.342931e-05,1,1
-0.0001331174,-5.402952e-05,1,1
-3.951337e-06,-4.365734e-05,1,1
0.0001636242,-3.182657e-05,1,1
0.0003634508,-1.545797e-05,1,1
0.0005853184,3.341602e-06,1,1
0.0008154513,2.052053e-05,1,1
0.001028567,3.105477e-05,1,1
0.001197116,3.705119e-05,1,1
0.001297758,4.483033e-05,1,1
0.001326606,6.022653e-05,1,1
0.001298569,8.275361e-05,1,1
0.001235525,0.0001078737,1,1
0.001154492,0.0001312112,1,1
0.001067301,0.0001492004,1,1
0.0009773547,0.0001569795,1,1
0.0008794671,0.0001551968,1,1
0.0007697488,0.0001470936,1,1
0.0006472273,0.0001375317,1,1
0.000517575,0.0001302388,1,1
0.0003874365,0.0001247285,1,1
0.0002574601,0.0001192183,1,1
0.0001271595,0.0001091703,1,1
2.693341e-06,9.21534e-05,1,1
-0.000104918,7.67572e-05,1,1
-0.0001844921,7.043665e-05,1,1
-0.000231329,7.886404e-05,1,1
-0.0002528836,0.0001012291,1,1
-0.0002634179,0.0001266733,1,1
-0.0002770314,0.0001425557,1,1
-0.0002993964,0.0001454729,1,1
-0.0003297026,0.0001386662,1,1
-0.0003575778,0.0001276457,1,1
-0.0003663294,0.0001205148,1,1
-0.0003488263,0.0001190562,1,1
-0.0003091203,0.0001219734,1,1
-0.0002606628,0.0001244044,1,1
-0.0002092881,0.0001190562,1,1
-0.0001441378,0.0001018773,1,1
-5.889148e-05,7.52986e-05,1,1
2.586868e-05,4.580272e-05,1,1
8.129502e-05,1.873781e-05,1,1
9.750156e-05,-1.844488e-06,1,1
9.296373e-05,-1.383732e-05,1,1
0.0001002567,-1.643037e-05,1,1
0.0001342904,-1.237873e-05,1,1
0.0001895547,-2.654814e-06,1,1
0.0002420638,9.500085e-06,1,1
0.0002650771,2.246531e-05,1,1
0.0002454672,3.040651e-05,1,1
0.0001885823,2.76514e-05,1,1
0.0001099806,1.727922e-05,1,1
3.089271e-05,3.503668e-06,1,1
-3.360929e-05,-1.270286e-05,1,1
-7.428769e-05,-2.988179e-05,1,1
-8.741498e-05,-4.916756e-05,1,1
-7.444975e-05,-7.282909e-05,1,1
-3.895745e-05,-0.0001008664,1,1
9.986281e-06,-0.0001303623,1,1
6.525056e-05,-0.0001536997,1,1
0.0001182459,-0.0001666649,1,1
0.0001633001,-0.0001712027,1,1
0.0002000889,-0.0001713648,1,1
0.0002294227,-0.0001729855,1,1
0.0002477361,-0.0001775233,1,1
0.0002483844,-0.0001794681,1,1
0.0002321778,-0.0001677994,1,1
0.0002036544,-0.0001381414,1,1
0.0001718896,-9.681477e-05,1,1
0.0001410971,-5.516398e-05,1,1
0.0001151667,-2.177852e-05,1,1
9.296373e-05,-4.761664e-06,1,1
7.027458e-05,-2.330684e-06,1,1
4.256141e-05,-7.354709e-06,1,1
5.448452e-06,-1.318906e-05,1,1
-4.544006e-05,-1.562004e-05,1,1
-0.0001044318,-1.383732e-05,1,1
-0.0001598582,-7.840905e-06,1,1
-0.0001981056,-7.100305e-07,1,1
-0.000213988,7.879432e-06,1,1
-0.0002104225,1.663096e-05,1,1
-0.0001924333,2.39239e-05,1,1
-0.0001676373,2.554455e-05,1,1
-0.0001425172,2.197911e-05,1,1
-0.0001185315,1.630683e-05,1,1
-8.352541e-05,1.338965e-05,1,1
-2.988179e-05,1.679302e-05,1,1
3.850978e-05,2.505836e-05,1,1
0.0001098185,3.462021e-05,1,1
0.0001696206,4.191315e-05,1,1
0.0002145127,4.693717e-05,1,1
0.0002482223,5.050261e-05,1,1
0.0002762596,5.293359e-05,1,1
0.0003004074,5.374392e-05,1,1
0.0003218,5.325772e-05,1,1
0.0003407616,5.034055e-05,1,1
0.0003577785,4.645098e-05,1,1
0.0003666921,4.547859e-05,1,1
0.0003525924,4.920609e-05,1,1
0.000302028,5.439218e-05,1,1
0.0002149989,6.233338e-05,1,1
0.0001072255,7.691926e-05,1,1
1.234753e-06,0.0001000946,1,1
-7.979791e-05,0.0001336421,1,1
-0.0001224211,0.0001735102,1,1
-0.0001298761,0.0002125679,1,1
-0.0001138316,0.000242388,1,1
-8.547019e-05,0.0002577842,1,1
-5.419158e-05,0.0002547049,1,1
-3.247483e-05,0.0002341226,1,1
-2.647842e-05,0.0002023578,1,1
-3.555408e-05,0.0001686482,1,1
-5.402952e-05,0.0001422316,1,1
-7.590833e-05,0.0001271595,1,1
-0.0001003802,0.000121001,1,1
-0.0001305243,0.0001171115,1,1
-0.0001656925,0.0001096565,1,1
-0.0001987538,9.68533e-05,1,1
-0.0002173914,8.307774e-05,1,1
-0.0002147983,7.546067e-05,1,1
-0.0001982676,7.481241e-05,1,1
-0.000179306,8.016057e-05,1,1
-0.000159372,8.875003e-05,1,1
-0.0001392759,9.507057e-05,1,1
-0.0001185315,9.296373e-05,1,1
-0.0001028112,8.080883e-05,1,1
-0.0001024871,5.893001e-05,1,1
-0.0001242038,3.526847e-05,1,1
-0.0001783336,1.582063e-05,1,1
-0.0002765452,1.234753e-06,1,1
-0.0004152731,-1.270286e-05,1,1
-0.0005750695,-2.923353e-05,1,1
-0.000722873,-4.80331e-05,1,1
-0.0008316188,-6.569822e-05,1,1
-0.0008885037,-8.174268e-05,1,1
-0.0008930415,-9.730096e-05,1,1
-0.0008543079,-0.0001089697,1,1
-0.0007844578,-0.0001143178,1,1
-0.0006877048,-0.0001144799,1,1
-0.0005659938,-0.000112211,1,1
-0.0004277521,-0.0001135075,1,1
-0.0002848105,-0.0001173971,1,1
-0.0001491618,-0.0001180453,1,1
-2.923353e-05,-0.0001131834,1,1
7.67572e-05,-0.0001076731,1,1
0.0001808031,-0.0001055663,1,1
0.0002887387,-0.0001057284,1,1
0.0003942432,-0.0001050801,1,1
0.0004837033,-9.956988e-05,1,1
0.0005436675,-8.838737e-05,1,1
0.0005674912,-7.218083e-05,1,1
0.0005553362,-5.451572e-05,1,1
0.0005153061,-4.349527e-05,1,1
0.0004553419,-4.576419e-05,1,1
0.0003816021,-6.099833e-05,1,1
0.0002987867,-7.914964e-05,1,1
0.0002096508,-9.049421e-05,1,1
0.0001221355,-9.098041e-05,1,1
5.487838e-05,-8.190475e-05,1,1
3.413401e-05,-6.537409e-05,1,1
7.400208e-05,-4.106429e-05,1,1
0.0001642725,-1.156841e-05,1,1
0.0002769079,1.582063e-05,1,1
0.000376416,3.445814e-05,1,1
0.0004392974,4.337174e-05,1,1
0.0004574487,4.969229e-05,1,1
0.0004443214,6.573675e-05,1,1
0.0004190393,9.977047e-05,1,1
0.0003926226,0.0001495245,1,1
0.0003679886,0.0002023578,1,1
0.000346596,0.0002415777,1,1
0.0003321722,0.0002540567,1,1
0.000324231,0.0002389846,1,1
0.0003159656,0.0002078681,1,1
0.0003007315,0.0001751309,1,1
0.0002723701,0.0001462832,1,1
0.0002323399,0.0001206769,1,1
0.0001897167,9.896015e-05,1,1
0.0001577899,8.259155e-05,1,1
0.0001477418,7.254349e-05,1,1
0.0001641104,6.865393e-05,1,1
0.0001984683,7.043665e-05,1,1
0.0002412535,7.189524e-05,1,1
0.0002799871,7.076078e-05,1,1
0.0003047831,7.254349e-05,1,1
0.0003109416,7.870197e-05,1,1
0.000304297,8.518459e-05,1,1
0.0002908455,8.79397e-05,1,1
0.0002709115,8.712937e-05,1,1
0.0002420638,8.486046e-05,1,1
0.0002067336,8.453633e-05,1,1
0.000173024,8.583286e-05,1,1
0.0001454729,8.826383e-05,1,1
0.000121001,8.810177e-05,1,1
8.972242e-05,8.129502e-05,1,1
5.325772e-05,6.573675e-05,1,1
1.533444e-05,4.612685e-05,1,1
-2.356124e-05,2.975825e-05,1,1
-6.861539e-05,1.760335e-05,1,1
-0.0001253383,7.069105e-06,1,1
-0.0001985918,-2.006553e-06,1,1
-0.0002799486,-8.651231e-06,1,1
-0.0003522297,-1.513384e-05,1,1
-0.0003948528,-2.680255e-05,1,1
-0.0003937184,-4.495386e-05,1,1
-0.0003423437,-6.48879e-05,1,1
-0.0002577456,-8.514606e-05,1,1
-0.0001713648,-0.0001034594,1,1
-0.0001115627,-0.0001211246,1,1
-8.968389e-05,-0.0001404103,1,1
-9.762509e-05,-0.0001590478,1,1
-0.0001126972,-0.0001684476,1,1
-0.000114804,-0.0001648822,1,1
-0.0001002181,-0.0001525652,1,1
-8.190475e-05,-0.0001415448,1,1
-7.947377e-05,-0.000137169,1,1
-0.0001104282,-0.0001408965,1,1
-0.0001749302,-0.0001498101,1,1
-0.0002601766,-0.0001588858,1,1
-0.0003475298,-0.0001673132,1,1
-0.0004212695,-0.0001741199,1,1
-0.0004715097,-0.0001783336,1,1
-0.0004995471,-0.000174282,1,1
-0.0005097571,-0.0001616409,1,1
-0.0005045711,-0.0001433275,1,1
-0.0004838267,-0.0001212866,1,1
-0.0004543308,-0.0001007043,1,1
-0.00042759,-8.320128e-05,1,1
-0.0004147869,-7.169464e-05,1,1
-0.0004144627,-6.472583e-05,1,1
-0.0004133283,-6.132246e-05,1,1
-0.0003979321,-6.164659e-05,1,1
-0.0003640605,-6.974985e-05,1,1
-0.0003131719,-8.741498e-05,1,1
-0.000251101,-0.0001094559,1,1
-0.0001809267,-0.0001238797,1,1
-0.0001102662,-0.0001243659,1,1
-5.240886e-05,-0.0001170729,1,1
-1.740276e-05,-0.0001083214,1,1
-9.299493e-06,-0.0001036215,1,1
-2.145439e-05,-9.973194e-05,1,1
-4.511593e-05,-9.535618e-05,1,1
-7.056019e-05,-8.887356e-05,1,1
-9.162867e-05,-8.158062e-05,1,1
-0.0001057284,-7.23429e-05,1,1
-0.0001089697,-6.002594e-05,1,1
-9.260107e-05,-4.236082e-05,1,1
-5.613637e-05,-1.983374e-05,1,1
-1.156841e-05,7.069105e-06,1,1
2.262738e-05,3.624086e-05,1,1
3.834771e-05,6.346784e-05,1,1
3.656499e-05,9.588091e-05,1,1
2.424803e-05,0.0001396385,1,1
7.879432e-06,0.000195389,1,1
-1.124428e-05,0.0002602152,1,1
-3.377136e-05,0.0003222862,1,1
-5.743289e-05,0.0003634508,1,1
-7.785312e-05,0.0003749574,1,1
-8.692878e-05,0.0003574544,1,1
-8.174268e-05,0.0003208276,1,1
-6.035007e-05,0.0002786906,1,1
-1.821308e-05,0.0002397949,1,1
4.839576e-05,0.0002115956,1,1
0.0001351007,0.0001945787,1,1
0.0002237505,0.0001827479,1,1
0.0002932765,0.0001723757,1,1
0.000331686,0.0001642725,1,1
0.0003394651,0.0001644345,1,1
0.0003269861,0.0001738343,1,1
0.0003109416,0.0001897167,1,1
0.0002973281,0.0002057612,1,1
0.0002851732,0.0002137024,1,1
0.0002730183,0.0002115956,1,1
0.000267184,0.0002015475,1,1
0.0002754493,0.0001876099,1,1
0.0002916559,0.0001728619,1,1
0.0002926282,0.0001579519,1,1
0.0002532463,0.000145635,1,1
0.000163138,0.0001396385,1,1
3.624086e-05,0.0001368834,1,1
-9.908367e-05,0.0001312112,1,1
-0.0002084778,0.0001167873,1,1
-0.0002724935,9.21534e-05,1,1
-0.0002846485,6.265751e-05,1,1
-0.000246401,3.073064e-05,1,1
-0.0001600202,-2.81688e-06,1,1
-2.501983e-05,-3.539201e-05,1,1
0.0001511452,-6.294311e-05,1,1
0.0003503235,-8.109443e-05,1,1
0.0005431813,-9.260107e-05,1,1
0.0007049226,-0.0001031353,1,1
0.0008164236,-0.0001151281,1,1
0.0008684467,-0.0001274451,1,1
0.0008661778,-0.0001394379,1,1
0.0008292268,-0.0001478653,1,1
0.0007823899,-0.0001496481,1,1
0.0007501388,-0.0001442999,1,1
0.0007443045,-0.0001336036,1,1
0.0007723419,-0.0001175591,1,1
0.0008242028,-0.0001003802,1,1
0.0008817361,-8.692878e-05,1,1
0.0009318143,-8.158062e-05,1,1
0.0009653618,-8.206682e-05,1,1
0.000973141,-8.498399e-05,1,1
0.0009468864,-8.611845e-05,1,1
0.0008760638,-8.125649e-05,1,1
0.0007535422,-6.91016e-05,1,1
0.0005789978,-5.159854e-05,1,1
0.0003725265,-3.21507e-05,1,1
0.0001686482,-1.432352e-05,1,1
-5.89612e-06,-1.844488e-06,1,1
-0.0001451102,1.396819e-06,1,1
-0.000251101,-6.382317e-06,1,1
-0.000328244,-1.967167e-05,1,1
-0.0003844807,-3.441962e-05,1,1
-0.0004284004,-4.884343e-05,1,1
-0.0004698891,-5.986387e-05,1,1
-0.0005108916,-6.537409e-05,1,1
-0.0005481666,-6.261898e-05,1,1
-0.0005755557,-5.581224e-05,1,1
-0.0005930586,-5.030202e-05,1,1
-0.0006024585,-5.078821e-05,1,1
-0.0006045654,-5.548811e-05,1,1
-0.0006045654,-5.759496e-05,1,1
-0.0006094273,-5.22468e-05,1,1
-0.0006253097,-3.992984e-05,1,1
-0.0006473506,-2.583016e-05,1,1
-0.0006625847,-1.3027e-05,1,1
-0.0006598296,-5.479652e-07,1,1
-0.0006360059,1.371378e-05,1,1
-0.0005916001,2.846173e-05,1,1
-0.0005316359,3.948217e-05,1,1
-0.0004612996,4.320967e-05,1,1
-0.0003830221,4.612685e-05,1,1
-0.0003019894,6.265751e-05,1,1
-0.0002232257,0.0001044704,1,1
-0.0001501342,0.0001673517,1,1
-9.940781e-05,0.0002292607,1,1
-9.049421e-05,0.000267346,1,1
-0.0001332795,0.0002713977,1,1
-0.0002156086,0.0002470879,1,1
-0.0003104168,0.0002068957,1,1
-0.0003916115,0.0001675138,1,1
-0.0004437966,0.00013818,1,1
-0.000459841,0.0001182459,1,1
-0.0004416897,0.0001054428,1,1
-0.0003932322,9.912221e-05,1,1
-0.0003160891,9.766362e-05,1,1
-0.000204102,9.555677e-05,1,1
-6.261898e-05,9.020862e-05,1,1
8.875003e-05,8.486046e-05,1,1
0.0002253711,8.291568e-05,1,1
0.0003295791,8.84259e-05,1,1
0.0003905157,0.0001025256,1,1
0.0004038051,0.0001177597,1,1
0.0003726885,0.0001218114,1,1
0.0003049452,0.0001094944,1,1
0.0002128921,8.486046e-05,1,1
0.000110953,5.730935e-05,1,1
1.484824e-05,3.672706e-05,1,1
-6.164659e-05,2.100672e-05,1,1
-0.0001044318,5.448452e-06,1,1
-0.0001070249,-1.092015e-05,1,1
-6.942573e-05,-2.534396e-05,1,1
-2.654814e-06,-4.05781e-05,1,1
7.52986e-05,-5.500191e-05,1,1
0.0001522796,-6.504996e-05,1,1
0.0002192126,-6.829127e-05,1,1
0.0002662116,-6.602235e-05,1,1
0.0002908455,-6.342931e-05,1,1
0.0002992729,-6.39155e-05,1,1
0.0003051073,-6.81292e-05,1,1
0.0003159656,-7.412562e-05,1,1
0.0003271482,-8.044617e-05,1,1
0.000324393,-8.757704e-05,1,1
0.0002934386,-9.308726e-05,1,1
0.0002278021,-9.114248e-05,1,1
0.0001367214,-7.801519e-05,1,1
3.364782e-05,-5.905355e-05,1,1
-7.574627e-05,-4.317115e-05,1,1
-0.0001934057,-3.506788e-05,1,1
-0.0003227338,-3.620233e-05,1,1
-0.0004549791,-4.252288e-05,1,1
-0.0005682627,-5.095028e-05,1,1
-0.0006473506,-6.099833e-05,1,1
-0.0006899738,-7.412562e-05,1,1
-0.0007050458,-8.919769e-05,1,1
-0.0007063423,-0.0001028112,1,1
-0.0006967805,-0.0001136696,1,1
-0.0006674466,-0.0001209625,1,1
-0.0006058619,-0.0001259865,1,1
-0.000509595,-0.0001289037,1,1
-0.0003885323,-0.0001293899,1,1
-0.0002596904,-0.0001282554,1,1
-0.000134738,-0.0001308485,1,1
-1.562004e-05,-0.0001397621,1,1
0.0001007429,-0.0001493239,1,1
0.0002172679,-0.0001548341,1,1
0.0003299033,-0.00015451,1,1
0.0004289252,-0.0001489998,1,1
0.0005096338,-0.0001423551,1,1
0.0005658705,-0.0001352242,1,1
0.0005934216,-0.0001245279,1,1
0.0005929354,-0.0001055663,1,1
0.0005734875,-8.303922e-05,1,1
0.0005486915,-5.986387e-05,1,1
0.0005237334,-3.004385e-05,1,1
0.0004874308,1.792748e-05,1,1
0.0004201737,8.891209e-05,1,1
0.0003140208,0.000168,1,1
0.0001897167,0.0002328261,1,1
8.388807e-05,0.0002657254,1,1
1.906194e-05,0.0002626462,1,1
-5.085794e-06,0.0002339606,1,1
-2.330684e-06,0.0001924718,1,1
9.824215e-06,0.0001474177,1,1
2.165498e-05,0.0001080358,1,1
3.510641e-05,7.90261e-05,1,1
5.439218e-05,5.763349e-05,1,1
7.67572e-05,3.60788e-05,1,1
9.863601e-05,1.338965e-05,1,1
0.0001166253,-1.520357e-06,1,1
0.0001245665,1.290346e-05,1,1
0.0001138702,7.108491e-05,1,1
7.951231e-05,0.0001611932,1,1
3.98063e-05,0.0002517878,1,1
2.76514e-05,0.0003124002,1,1
7.724339e-05,0.0003286068,1,1
0.0001934442,0.0003089969,1,1
0.0003508097,0.0002694529,1,1
0.000517575,0.0002273159,1,1
0.0006734819,0.0001963614,1,1
0.0008089686,0.000180479,1,1
0.0009165801,0.0001757791,1,1
0.0009849718,0.0001783722,1,1
0.0009943716,0.0001842065,1,1
0.0009284109,0.0001882582,1,1
0.0007819037,0.0001872858,1,1
0.0005640878,0.000177886,1,1
0.0003036487,0.000160545,1,1
3.996837e-05,0.0001393144,1,1
-0.0001865989,0.0001163011,1,1
-0.0003536883,9.16672e-05,1,1
-0.0004580583,6.46023e-05,1,1
-0.0005068399,3.996837e-05,1,1
-0.000516888,2.035846e-05,1,1
-0.0005008436,6.744974e-06,1,1
-0.000464703,-4.275467e-06,1,1
-0.0004212695,-1.529591e-05,1,1
-0.000385291,-2.745081e-05,1,1
-0.0003663294,-4.187462e-05,1,1
-0.0003643846,-6.148453e-05,1,1
-0.000382698,-8.158062e-05,1,1
-0.0004117076,-9.568031e-05,1,1
-0.0004365036,-9.973194e-05,1,1
-0.0004439586,-9.422172e-05,1,1
-0.0004271038,-8.579432e-05,1,1
-0.0003893426,-8.060823e-05,1,1
-0.0003379679,-8.255302e-05,1,1
-0.0002799486,-8.903562e-05,1,1
-0.0002235498,-9.616651e-05,1,1
-0.000176713,-0.0001013526,1,1
-0.0001451102,-0.0001054042,1,1
-0.0001255003,-0.0001101041,1,1
-0.0001112386,-0.0001156143,1,1
-9.681477e-05,-0.000122097,1,1
-8.02841e-05,-0.0001300382,1,1
-6.764301e-05,-0.0001376552,1,1
-6.958779e-05,-0.0001421931,1,1
-9.324933e-05,-0.0001396,1,1
-0.000134576,-0.0001300382,1,1
-0.0001788198,-0.0001144799,1,1
-0.0002123673,-9.535618e-05,1,1
-0.0002274394,-7.704279e-05,1,1
-0.0002233878,-6.180866e-05,1,1
-0.0002037779,-5.127441e-05,1,1
-0.0001778474,-4.576419e-05,1,1
-0.0001540238,-4.673658e-05,1,1
-0.0001340898,-5.289507e-05,1,1
-0.0001133454,-5.937768e-05,1,1
-8.40116e-05,-6.44017e-05,1,1
-4.527799e-05,-6.893953e-05,1,1
-5.57199e-06,-7.23429e-05,1,1
3.073064e-05,-7.542214e-05,1,1
6.606088e-05,-7.914964e-05,1,1
0.0001052807,-8.239095e-05,1,1
0.0001467694,-7.833932e-05,1,1
0.0001767515,-6.48879e-05,1,1
0.0001791825,-4.025397e-05,1,1
0.0001545486,-3.303076e-06,1,1
0.0001172735,4.466826e-05,1,1
8.178122e-05,9.750156e-05,1,1
5.876794e-05,0.0001425557,1,1
5.779555e-05,0.0001670276,1,1
8.437427e-05,0.000165569,1,1
0.0001263492,0.0001445005,1,1
0.0001587623,0.0001150046,1,1
0.0001620036,8.84259e-05,1,1
0.0001274836,7.20573e-05,1,1
6.168512e-05,6.735741e-05,1,1
-1.529591e-05,7.124698e-05,1,1
-7.477388e-05,7.6271e-05,1,1
-9.843541e-05,8.340187e-05,1,1
-8.741498e-05,9.458438e-05,1,1
-5.338126e-05,0.0001101427,1,1
-1.383732e-05,0.0001269974,1,1
1.533444e-05,0.0001414213,1,1
2.278944e-05,0.0001514693,1,1
5.124321e-06,0.000155683,1,1
-2.939559e-05,0.0001524417,1,1
-6.48879e-05,0.0001451488,1,1
-9.114248e-05,0.0001375317,1,1
-0.0001065387,0.0001287802,1,1
-0.0001151281,0.0001193804,1,1
-0.0001186936,0.0001067393,1,1
-0.000112211,8.826383e-05,1,1
-8.320128e-05,6.476436e-05,1,1
-2.664048e-05,3.93201e-05,1,1
4.72613e-05,1.663096e-05,1,1
0.0001193804,1.072688e-06,1,1
0.0001820997,-4.437533e-06,1,1
0.0002420638,-6.220252e-06,1,1
0.000304459,-8.975362e-06,1,1
0.0003603715,-1.562004e-05,1,1
0.0003918123,-2.809907e-05,1,1
0.0003783608,-4.284701e-05,1,1
0.0003180725,-5.143648e-05,1,1
0.0002334744,-5.127441e-05,1,1
0.0001524417,-4.673658e-05,1,1
9.766362e-05,-4.009191e-05,1,1
8.275361e-05,-3.539201e-05,1,1
0.0001072255,-3.26369e-05,1,1
0.0001558451,-3.053005e-05,1,1
0.0002023578,-2.647842e-05,1,1
0.0002289366,-1.967167e-05,1,1
0.0002360674,-9.623623e-06,1,1
0.0002312055,1.072688e-06,1,1
0.0002179161,8.527692e-06,1,1
0.0001968476,1.1769e-05,1,1
0.0001621656,1.22552e-05,1,1
0.0001154908,9.66215e-06,1,1
6.152305e-05,4.47606e-06,1,1
5.448452e-06,-1.034161e-06,1,1
-4.754691e-05,-9.623623e-06,1,1
-9.211487e-05,-2.275091e-05,1,1
-0.0001243659,-4.106429e-05,1,1
-0.0001384655,-6.035007e-05,1,1
-0.0001277692,-7.769106e-05,1,1
-8.320128e-05,-9.324933e-05,1,1
3.017472e-06,-0.0001078352,1,1
0.0001213252,-0.0001206384,1,1
0.0002446569,-0.0001285796,1,1
0.0003457857,-0.0001276072,1,1
0.0004106118,-0.0001185315,1,1
0.0004315182,-0.0001045939,1,1
0.0004086671,-9.049421e-05,1,1
0.0003496752,-7.931171e-05,1,1
0.0002676702,-6.893953e-05,1,1
0.0001783722,-5.710876e-05,1,1
9.896015e-05,-4.641245e-05,1,1
4.272347e-05,-3.928157e-05,1,1
1.808955e-05,-3.231277e-05,1,1
2.035846e-05,-2.485776e-05,1,1
3.624086e-05,-1.513384e-05,1,1
4.742337e-05,-3.858999e-07,1,1
4.256141e-05,1.582063e-05,1,1
2.927205e-05,2.910999e-05,1,1
3.429608e-05,4.061663e-05,1,1
7.67572e-05,5.860588e-05,1,1
0.0001539003,8.648112e-05,1,1
0.0002431983,0.000118408,1,1
0.0003078624,0.0001436902,1,1
0.0003127243,0.0001526038,1,1
0.0002467637,0.0001415833,1,1
0.0001237561,0.0001187321,1,1
-3.182657e-05,0.0001000946,1,1
-0.0001856265,9.523264e-05,1,1
-0.0003050687,0.0001077117,1,1
-0.0003734602,0.0001360731,1,1
-0.0003932322,0.0001688103,1,1
-0.0003776739,0.0001919856,1,1
-0.000345585,0.0001963614,1,1
-0.0003143064,0.0001770756,1,1
-0.0002932379,0.0001391524,1,1
-0.0002831898,9.296373e-05,1,1
-0.00027849,5.066468e-05,1,1
-0.0002752487,2.181705e-05,1,1
-0.0002658489,5.772582e-06,1,1
-0.0002405667,-1.844488e-06,1,1
-0.0001963229,-8.002969e-06,1,1
-0.0001399241,-1.643037e-05,1,1
-8.02841e-05,-2.534396e-05,1,1
-2.437157e-05,-3.21507e-05,1,1
2.052053e-05,-2.971972e-05,1,1
4.953022e-05,-7.030578e-06,1,1
5.925414e-05,4.35338e-05,1,1
5.487838e-05,0.0001171115,1,1
4.02925e-05,0.0001939304,1,1
1.727922e-05,0.0002461155,1,1
-9.137427e-06,0.0002576221,1,1
-3.053005e-05,0.0002307193,1,1
-3.992984e-05,0.0001801549,1,1
-4.203669e-05,0.0001240803,1,1
-5.095028e-05,7.724339e-05,1,1
-7.639453e-05,4.596478e-05,1,1
-0.0001217728,2.81376e-05,1,1
-0.000181737,2.003433e-05,1,1
-0.0002504527,1.744129e-05,1,1
-0.0003212752,1.873781e-05,1,1
-0.0003909633,2.165498e-05,1,1
-0.0004528722,2.262738e-05,1,1
-0.0005031124,1.582063e-05,1,1
-0.0005444391,-1.682422e-06,1,1
-0.0005784728,-2.971972e-05,1,1
-0.0006003517,-6.472583e-05,1,1
-0.000593869,-0.0001011905,1,1
-0.0005486528,-0.0001311726,1,1
-0.0004692408,-0.0001468929,1,1
-0.000370543,-0.0001459206,1,1
-0.0002673075,-0.0001336036,1,1
-0.0001723372,-0.0001180453,1,1
-9.746302e-05,-0.0001089697,1,1
-4.722278e-05,-0.0001125351,1,1
-1.578211e-05,-0.0001248521,1,1
6.096713e-06,-0.0001392759,1,1
2.424803e-05,-0.000149486,1,1
3.915804e-05,-0.0001527273,1,1
4.628891e-05,-0.0001478653,1,1
4.239934e-05,-0.0001394379,1,1
2.943412e-05,-0.0001302002,1,1
1.64689e-05,-0.0001212866,1,1
1.241726e-05,-0.0001143178,1,1
8.203562e-06,-0.0001101041,1,1
-1.707863e-05,-0.0001063766,1,1
-7.104638e-05,-9.811128e-05,1,1
-0.0001376552,-8.40116e-05,1,1
-0.0001924333,-6.569822e-05,1,1
-0.000216581,-3.944364e-05,1,1
-0.00019924,-7.516774e-06,1,1
-0.0001404103,2.424803e-05,1,1
-4.706071e-05,4.677511e-05,1,1
6.379197e-05,6.03886e-05,1,1
0.0001762653,6.687121e-05,1,1
0.0002783665,6.768154e-05,1,1
0.0003640991,6.751948e-05,1,1
0.0004360561,6.638502e-05,1,1
0.0005025029,6.589881e-05,1,1
0.0005674912,6.444023e-05,1,1
0.0006235657,6.071273e-05,1,1
0.0006629477,5.682316e-05,1,1
0.0006804507,5.260946e-05,1,1
0.0006772094,5.082674e-05,1,1
0.0006624615,5.163707e-05,1,1
0.0006410689,5.406805e-05,1,1
0.0006135177,6.087479e-05,1,1
0.0005773771,7.643307e-05,1,1
0.0005341057,0.0001004187,1,1
0.0004840274,0.0001304008,1,1
0.0004352458,0.0001589243,1,1
0.0003958639,0.0001772377,1,1
0.0003676645,0.0001808031,1,1
0.000341572,0.0001686482,1,1
0.0003080245,0.000145797,1,1
0.0002639427,0.0001227837,1,1
0.0002185644,0.0001070634,1,1
0.0001850168,0.0001067393,1,1
0.0001710792,0.0001224596,1,1
0.0001749688,0.0001492004,1,1
0.0001843686,0.0001761032,1,1
0.0001871237,0.0001926339,1,1
0.0001772377,0.0001945787,1,1
0.0001624898,0.0001832341,1,1
0.0001503349,0.0001647587,1,1
0.0001467694,0.0001438522,1,1
0.0001490383,0.0001252147,1,1
0.0001436902,0.0001086841,1,1
0.0001192183,9.053275e-05,1,1
7.092284e-05,7.076078e-05,1,1
7.879432e-06,5.244739e-05,1,1
-5.791909e-05,3.705119e-05,1,1
-0.0001238797,2.359977e-05,1,1
-0.0001930815,9.66215e-06,1,1
-0.0002733039,-7.100305e-07,1,1
-0.0003624398,-8.651231e-06,1,1
-0.0004528722,-1.756482e-05,1,1
-0.0005285567,-2.501983e-05,1,1
-0.0005734488,-3.21507e-05,1,1
-0.000578797,-3.490581e-05,1,1
-0.0005494631,-3.555408e-05,1,1
-0.0005014918,-3.620233e-05,1,1
-0.0004587066,-3.992984e-05,1,1
-0.0004418518,-4.932962e-05,1,1
-0.00046211,-6.294311e-05,1,1
-0.0005128364,-7.23429e-05,1,1
-0.0005703696,-7.363943e-05,1,1
-0.0006003517,-6.926366e-05,1,1
-0.0005809038,-6.245691e-05,1,1
-0.0005235327,-5.662256e-05,1,1
-0.0004630823,-5.483985e-05,1,1
-0.0004285624,-5.613637e-05,1,1
-0.0004204592,-6.002594e-05,1,1
-0.000417542,-6.877746e-05,1,1
-0.0003958252,-8.255302e-05,1,1
-0.0003389403,-9.778715e-05,1,1
-0.0002358668,-0.0001115627,1,1
-9.098041e-05,-0.0001195039,1,1
8.161915e-05,-0.0001193418,1,1
0.0002642668,-0.000114804,1,1
0.000440756,-0.0001125351,1,1
0.0005927734,-0.0001159385,1,1
0.0007097846,-0.0001201522,1,1
0.0007937344,-0.0001211246,1,1
0.0008592089,-0.0001141558,1,1
0.0009204697,-0.0001000561,1,1
0.0009794616,-8.271508e-05,1,1
0.001026136,-6.310517e-05,1,1
0.001040236,-4.284701e-05,1,1
0.001010254,-2.307504e-05,1,1
0.0009397555,-3.789272e-06,1,1
0.0008379783,1.517237e-05,1,1
0.0007170775,3.380988e-05,1,1
0.0005871011,5.034055e-05,1,1
0.0004553419,6.184718e-05,1,1
0.0003277964,6.622294e-05,1,1
0.0002049509,6.768154e-05,1,1
8.826383e-05,6.995045e-05,1,1
-9.623623e-06,6.962632e-05,1,1
-7.072225e-05,6.638502e-05,1,1
-9.114248e-05,6.200925e-05,1,1
-9.065628e-05,5.99024e-05,1,1
-9.730096e-05,6.476436e-05,1,1
-0.0001327933,7.805372e-05,1,1
-0.0001984297,9.620504e-05,1,1
-0.0002734659,0.0001124116,1,1
-0.0003313232,0.0001222976,1,1
-0.0003561192,0.000128294,1,1
-0.0003454229,0.0001325077,1,1
-0.0003047445,0.0001334801,1,1
-0.000246401,0.0001331559,1,1
-0.0001864369,0.0001329939,1,1
-0.0001441378,0.0001328318,1,1
-0.0001334415,0.0001310491,1,1
-0.0001660166,0.0001273216,1,1
-0.0002384598,0.0001245665,1,1
-0.0003337542,0.000128294,1,1
-0.0004248349,0.0001375317,1,1
-0.0004854474,0.0001459591,1,1
-0.0004990608,0.0001487142,1,1
-0.0004638926,0.0001436902,1,1
-0.0003904771,0.000130887,1,1
-0.0002972895,0.0001164632,1,1
-0.0002042641,0.0001043083,1,1
-0.0001287416,9.571884e-05,1,1
-7.736692e-05,8.810177e-05,1,1
-4.754691e-05,7.691926e-05,1,1
-2.89094e-05,5.909208e-05,1,1
-1.480971e-05,3.93201e-05,1,1
-4.923729e-06,2.359977e-05,1,1
-5.085794e-06,1.452411e-05,1,1
-1.918548e-05,8.527692e-06,1,1
-4.203669e-05,7.485573e-07,1,1
-5.872941e-05,-9.785688e-06,1,1
-4.527799e-05,-2.145439e-05,1,1
1.241726e-05,-3.198864e-05,1,1
0.0001067393,-3.733679e-05,1,1
0.0002117576,-3.911951e-05,1,1
0.0003038107,-3.717473e-05,1,1
0.0003649094,-3.604027e-05,1,1
0.0003903536,-4.041603e-05,1,1
0.000378847,-5.078821e-05,1,1
0.0003342791,-6.342931e-05,1,1
0.0002668598,-7.477388e-05,1,1
0.0001924718,-8.125649e-05,1,1
0.0001235941,-8.368748e-05,1,1
7.124698e-05,-8.02841e-05,1,1
4.369587e-05,-7.169464e-05,1,1
3.624086e-05,-6.229485e-05,1,1
3.721326e-05,-5.516398e-05,1,1
2.781346e-05,-5.143648e-05,1,1
-1.20546e-05,-5.046408e-05,1,1
-8.530812e-05,-5.32192e-05,1,1
-0.0001801163,-6.229485e-05,1,1
-0.0002767073,-7.995997e-05,1,1
-0.000350609,-0.0001034594,1,1
-0.0003838324,-0.0001266348,1,1
-0.0003658432,-0.0001423551,1,1
-0.0003015032,-0.0001511067,1,1
-0.0002088019,-0.000151917,1,1
-0.000112373,-0.0001464067,1,1
-3.911951e-05,-0.0001379794,1,1
-6.544382e-06,-0.0001287416,1,1
-1.092015e-05,-0.0001217728,1,1
-3.911951e-05,-0.0001209625,1,1
-7.752899e-05,-0.0001250141,1,1
-0.0001118868,-0.0001310105,1,1
-0.0001326312,-0.0001340898,1,1
-0.0001368449,-0.0001323071,1,1
-0.0001276072,-0.0001256624,1,1
-0.0001125351,-0.0001130213,1,1
-0.0001003802,-9.260107e-05,1,1
-9.875954e-05,-6.650855e-05,1,1
-0.0001157764,-3.879538e-05,1,1
-0.0001532135,-1.724069e-05,1,1
-0.0002053985,-5.247859e-06,1,1
-0.0002609869,9.106227e-07,1,1
-0.0003066893,5.934648e-06,1,1
-0.0003348887,1.12828e-05,1,1
-0.0003436402,1.582063e-05,1,1
-0.0003326198,2.133085e-05,1,1
-0.0002987481,2.829966e-05,1,1
-0.0002368392,3.769945e-05,1,1
-0.0001439758,4.385793e-05,1,1
-3.474375e-05,4.742337e-05,1,1
6.362991e-05,5.19612e-05,1,1
0.000128456,6.281957e-05,1,1
0.0001529279,8.259155e-05,1,1
0.0001436902,0.0001101427,1,1
0.0001046324,0.0001388282,1,1
3.964424e-05,0.0001642725,1,1
-4.560212e-05,0.0001848548,1,1
-0.0001389517,0.0002007372,1,1
-0.0002246843,0.000210137,1,1
-0.0002908069,0.0002073819,1,1
-0.0003318095,0.0001872858,1,1
-0.0003519055,0.0001568175,1,1
-0.0003557951,0.0001344524,1,1
-0.0003428299,0.0001346145,1,1
-0.0003091203,0.0001551968,1,1
-0.0002523975,0.0001809652,1,1
-0.0001720131,0.0001949028,1,1
-7.120844e-05,0.0001892305,1,1
4.531652e-05,0.0001634622,1,1
0.0001723757,0.0001244044,1,1
0.0003000832,8.226741e-05,1,1
0.0004217943,4.742337e-05,1,1
0.000534916,2.327564e-05,1,1
0.0006409068,1.22552e-05,1,1
0.0007447907,1.614476e-05,1,1
0.0008473782,3.575467e-05,1,1
0.0009365142,6.881599e-05,1,1
0.0009898337,0.0001056048,1,1
0.000992751,0.0001329939,1,1
0.0009489932,0.0001449867,1,1
0.0008724983,0.0001441764,1,1
0.0007767176,0.0001362352,1,1
0.0006751026,0.0001242423,1,1
0.0005754323,0.0001090082,1,1
0.0004757621,8.74535e-05,1,1
0.0003692851,5.56887e-05,1,1
0.0002540567,2.116879e-05,1,1
0.000135749,-1.173047e-05,1,1
2.894792e-05,-4.106429e-05,1,1
-5.257093e-05,-6.618442e-05,1,1
-0.0001028112,-8.287715e-05,1,1
-0.000122259,-9.049421e-05,1,1
-0.0001203142,-9.276313e-05,1,1
-0.0001154523,-9.098041e-05,1,1
-0.0001243659,-8.854943e-05,1,1
-0.0001548341,-8.806324e-05,1,1
-0.0002083157,-8.773911e-05,1,1
-0.0002742763,-8.271508e-05,1,1
-0.0003326198,-6.926366e-05,1,1
-0.0003666535,-4.673658e-05,1,1
-0.0003684362,-2.291298e-05,1,1
-0.0003459091,-1.189254e-05,1,1
-0.0003130099,-1.983374e-05,1,1
-0.0002815692,-4.625038e-05,1,1
-0.0002564491,-8.125649e-05,1,1
-0.0002365151,-0.0001109144,1,1
-0.0002186879,-0.0001289037,1,1
-0.0001972953,-0.0001342519,1,1
-0.0001687718,-0.0001327933,1,1
-0.0001421931,-0.0001313347,1,1
-0.0001358725,-0.0001311726,1,1
-0.0001655305,-0.0001339277,1,1
-0.0002332737,-0.0001412206,1,1
-0.0003267854,-0.0001493239,1,1
-0.0004224039,-0.0001525652,1,1
-0.0004938748,-0.0001442999,1,1
-0.0005189948,-0.0001240417,1,1
-0.0004805854,-9.519411e-05,1,1
-0.0003770257,-6.099833e-05,1,1
-0.0002258187,-2.615429e-05,1,1
-5.370539e-05,4.47606e-06,1,1
0.0001143563,2.619281e-05,1,1
0.0002584324,3.705119e-05,1,1
0.0003662059,4.272347e-05,1,1
0.0004410801,4.77475e-05,1,1
0.0004981271,5.325772e-05,1,1
0.0005530673,5.94162e-05,1,1
0.0006125454,6.573675e-05,1,1
0.0006734819,7.270556e-05,1,1
0.0007290703,7.853991e-05,1,1
0.0007744487,8.437427e-05,1,1
0.0008117238,9.458438e-05,1,1
0.000837168,0.0001128978,1,1
0.0008413817,0.0001338042,1,1
0.000817234,0.0001516314,1,1
0.0007647247,0.0001613553,1,1
0.0006904988,0.0001600588,1,1
0.0006021731,0.0001496866,1,1
0.0005094717,0.0001349386,1,1
0.0004188772,0.0001252147,1,1
0.0003303894,0.0001299146,1,1
0.000232502,0.0001464453,1,1
0.0001177597,0.0001650828,1,1
-1.108221e-05,0.000178048,1,1
-0.0001434896,0.0001869616,1,1
-0.0002673075,0.0001924718,1,1
-0.0003745947,0.0001932822,1,1
-0.0004582204,0.0001914995,1,1
-0.0005134846,0.0001882582,1,1
-0.0005387668,0.000185503,1,1
-0.0005334187,0.0001820997,1,1
-0.0004943609,0.0001783722,1,1
-0.0004251591,0.0001735102,1,1
-0.0003389403,0.0001671896,1,1
-0.0002525595,0.0001568175,1,1
-0.0001765509,0.0001420695,1,1
-0.0001276072,0.0001242423,1,1
-0.0001120489,0.0001054428,1,1
-0.0001206384,8.956036e-05,1,1
-0.0001308485,7.740546e-05,1,1
-0.0001180453,6.687121e-05,1,1
-7.833932e-05,5.390598e-05,1,1
-3.21507e-05,3.543054e-05,1,1
-3.465141e-06,1.063454e-05,1,1
-8.327101e-06,-1.610624e-05,1,1
-4.625038e-05,-3.766092e-05,1,1
-0.0001050801,-4.949169e-05,1,1
-0.0001695821,-5.419158e-05,1,1
-0.0002297083,-5.662256e-05,1,1
-0.0002778417,-6.099833e-05,1,1
-0.0003147926,-7.088431e-05,1,1
-0.0003426678,-8.887356e-05,1,1
-0.0003570916,-0.0001135075,1,1
-0.0003486642,-0.0001396,1,1
-0.0003193304,-0.0001629374,1,1
-0.0002812451,-0.0001828714,1,1
-0.0002475355,-0.0001981056,1,1
-0.0002297083,-0.0002049123,1,1
-0.0002329496,-0.0002037779,1,1
-0.0002561249,-0.0001981056,1,1
-0.0002912931,-0.0001930815,1,1
-0.0003342404,-0.0001940539,1,1
-0.0003773498,-0.000199078,1,1
-0.0004121938,-0.0002026434,1,1
-0.0004311555,-0.0002019951,1,1
-0.0004241867,-0.0001958367,1,1
-0.000390315,-0.0001840059,1,1
-0.0003420196,-0.0001690959,1,1
-0.0003019894,-0.00015451,1,1
-0.0002862691,-0.0001402483,1,1
-0.0002968033,-0.0001292278,1,1
-0.0003120375,-0.0001183694,1,1
-0.0003102548,-0.0001057284,1,1
-0.0002802727,-9.162867e-05,1,1
-0.0002203085,-7.363943e-05,1,1
-0.0001376552,-5.435365e-05,1,1
-4.219875e-05,-3.604027e-05,1,1
5.390598e-05,-1.934754e-05,1,1
0.0001435281,-3.303076e-06,1,1
0.0002227781,1.322759e-05,1,1
0.0002947351,2.748934e-05,1,1
0.0003569682,3.850978e-05,1,1
0.0004034809,4.612685e-05,1,1
0.0004336251,5.260946e-05,1,1
0.0004449697,6.055066e-05,1,1
0.0004399457,7.238143e-05,1,1
0.0004232529,8.972242e-05,1,1
0.000398619,0.000110953,1,1
0.0003733368,0.0001320215,1,1
0.00035162,0.0001513072,1,1
0.0003276344,0.0001652449,1,1
0.0002916559,0.0001752929,1,1
0.0002362295,0.0001850168,1,1
0.0001576278,0.0001983062,1,1
6.055066e-05,0.0002148369,1,1
-4.47918e-05,0.0002310434,1,1
-0.0001489998,0.0002466017,1,1
-0.0002465631,0.0002624841,1,1
-0.0003288923,0.0002751252,1,1
-0.0003929081,0.0002788527,1,1
-0.000437314,0.0002691288,1,1
-0.0004559515,0.0002504913,1,1
-0.0004395829,0.000227478,1,1
-0.0003807532,0.000202844,1,1
-0.0002812451,0.0001801549,1,1
-0.0001514308,0.0001603829,1,1
-8.002969e-06,0.0001436902,1,1
0.0001391524,0.000133318,1,1
0.000284687,0.0001265113,1,1
0.0004227667,0.000120839,1,1
0.0005328091,0.000111115,1,1
0.0005932595,9.750156e-05,1,1
0.0005958526,8.259155e-05,1,1
0.0005601982,6.816773e-05,1,1
0.0005247059,5.730935e-05,1,1
0.0005203301,5.228533e-05,1,1
0.0005545259,4.985435e-05,1,1
0.0006096281,4.807163e-05,1,1
0.000663758,4.45062e-05,1,1
0.0006995744,3.867184e-05,1,1
0.0007144845,3.154097e-05,1,1
0.000715781,2.149292e-05,1,1
0.0007174017,5.610517e-06,1,1
0.000725667,-1.270286e-05,1,1
0.0007378219,-2.955766e-05,1,1
0.0007409012,-4.43056e-05,1,1
0.0007127018,-6.132246e-05,1,1
0.0006300483,-8.222889e-05,1,1
0.0004931031,-0.0001050801,1,1
0.0003255275,-0.0001250141,1,1
0.0001573037,-0.0001396,1,1
1.727922e-05,-0.0001499722,1,1
-7.315322e-05,-0.0001571031,1,1
-0.000107349,-0.0001606685,1,1
-9.762509e-05,-0.0001596961,1,1
-6.326724e-05,-0.0001566169,1,1
-2.194059e-05,-0.000151917,1,1
7.879432e-06,-0.0001459206,1,1
1.403791e-05,-0.0001392759,1,1
-8.165035e-06,-0.0001344139,1,1
-4.819517e-05,-0.0001264727,1,1
-9.405965e-05,-0.000112211,1,1
-0.0001344139,-9.438378e-05,1,1
-0.0001660166,-7.736692e-05,1,1
-0.0001878955,-6.229485e-05,1,1
-0.0001971332,-5.111234e-05,1,1
-0.0001908126,-4.349527e-05,1,1
-0.0001673132,-3.847125e-05,1,1
-0.0001282554,-3.555408e-05,1,1
-8.125649e-05,-3.441962e-05,1,1
-3.766092e-05,-3.344723e-05,1,1
-6.220252e-06,-3.21507e-05,1,1
9.500085e-06,-3.134038e-05,1,1
1.193106e-05,-3.117831e-05,1,1
-2.006553e-06,-3.587821e-05,1,1
-3.166451e-05,-4.187462e-05,1,1
-7.396356e-05,-4.673658e-05,1,1
-0.00012469,-4.965376e-05,1,1
-0.0001856265,-4.641245e-05,1,1
-0.0002532078,-3.68506e-05,1,1
-0.0003151167,-2.031993e-05,1,1
-0.0003525538,-1.034161e-06,1,1
-0.0003544986,1.517237e-05,1,1
-0.0003345645,2.230325e-05,1,1
-0.0003138202,2.359977e-05,1,1
-0.0003055549,2.473423e-05,1,1
-0.0003115513,3.283749e-05,1,1
-0.0003277578,5.260946e-05,1,1
-0.0003549848,7.594687e-05,1,1
-0.0003885323,9.588091e-05,1,1
-0.0004188385,0.0001094944,1,1
-0.000437314,0.0001185701,1,1
-0.0004394208,0.0001286181,1,1
-0.0004251591,0.0001470936,1,1
-0.0003935563,0.0001715654,1,1
-0.0003520676,0.0001976579,1,1
-0.0003062031,0.0002188885,1,1
-0.0002533699,0.0002287745,1,1
-0.0001930815,0.0002258573,1,1
-0.0001282554,0.0002104611,1,1
-5.953974e-05,0.0001843686,1,1
1.695509e-05,0.0001548727,1,1
9.620504e-05,0.000130887,1,1
0.0001689724,0.0001216493,1,1
0.0002161334,0.0001279698,1,1
0.0002198609,0.0001412592,1,1
0.0001746447,0.0001514693,1,1
8.988449e-05,0.0001459591,1,1
-9.299493e-06,0.0001224596,1,1
-9.486997e-05,8.907416e-05,1,1
-0.0001472171,5.730935e-05,1,1
-0.0001609926,3.332369e-05,1,1
-0.0001483515,1.501031e-05,1,1
-0.0001326312,-6.176923e-08,1,1
-0.0001392759,-1.432352e-05,1,1
-0.0001874093,-2.7937e-05,1,1
-0.0002754107,-3.717473e-05,1,1
-0.0003851289,-4.236082e-05,1,1
-0.0004906334,-4.009191e-05,1,1
-0.0005684248,-3.312309e-05,1,1
-0.0006052136,-3.150244e-05,1,1
-0.0005974344,-4.138842e-05,1,1
-0.0005520562,-6.0188e-05,1,1
-0.0004809095,-7.574627e-05,1,1
-0.0003959873,-8.239095e-05,1,1
-0.0003049066,-8.174268e-05,1,1
-0.0002198223,-7.736692e-05,1,1
-0.0001558065,-7.477388e-05,1,1
-0.0001188556,-7.833932e-05,1,1
-0.0001067007,-8.563225e-05,1,1
-0.0001050801,-9.486997e-05,1,1
-9.616651e-05,-0.0001076731,1,1
-6.780507e-05,-0.0001276072,1,1
-2.145439e-05,-0.0001527273,1,1
2.359977e-05,-0.0001741199,1,1
4.985435e-05,-0.0001822232,1,1
5.61749e-05,-0.0001731475,1,1
5.244739e-05,-0.0001561307,1,1
5.244739e-05,-0.0001407345,1,1
6.768154e-05,-0.0001313347,1,1
9.037068e-05,-0.0001256624,1,1
9.474644e-05,-0.0001233935,1,1
6.395404e-05,-0.0001217728,1,1
6.420843e-06,-0.0001185315,1,1
-4.689865e-05,-0.0001131834,1,1
-6.213279e-05,-0.000104756,1,1
-2.534396e-05,-9.778715e-05,1,1
5.747142e-05,-9.357346e-05,1,1
0.0001662173,-9.211487e-05,1,1
0.0002786906,-9.179074e-05,1,1
0.0003785229,-9.114248e-05,1,1
0.0004615004,-9.000802e-05,1,1
0.0005409124,-8.465986e-05,1,1
0.0006446343,-7.299116e-05,1,1
0.0007966516,-5.872941e-05,1,1
0.0009950198,-4.333321e-05,1,1
0.001200843,-2.647842e-05,1,1
