EMG1,EMG2,class,user
-0.0003167374,-6.634648e-05,1,1
-0.0003459091,-6.553616e-05,1,1
-0.0003619536,-6.715681e-05,1,1
-0.0003591985,-7.412562e-05,1,1
-0.0003378059,-8.725291e-05,1,1
-0.0003040963,-0.0001034594,1,1
-0.0002640662,-0.0001169109,1,1
-0.0002159328,-0.0001245279,1,1
-0.0001511067,-0.0001305243,1,1
-6.586029e-05,-0.0001373311,1,1
2.797553e-05,-0.0001428413,1,1
0.0001114392,-0.0001464067,1,1
0.0001773998,-0.0001489998,1,1
0.0002318537,-0.0001522411,1,1
0.0002832284,-0.0001585616,1,1
0.0003331446,-0.0001621271,1,1
0.0003743092,-0.0001585616,1,1
0.0003969983,-0.0001472171,1,1
0.0003974845,-0.0001298761,1,1
0.0003757678,-0.0001130213,1,1
0.0003284447,-0.0001007043,1,1
0.0002545429,-9.66527e-05,1,1
0.0001568175,-0.0001026491,1,1
4.320967e-05,-0.0001165867,1,1
-7.412562e-05,-0.0001340898,1,1
-0.0001851404,-0.0001502963,1,1
-0.0002804347,-0.000159534,1,1
-0.0003514194,-0.0001587237,1,1
-0.0003971218,-0.0001452723,1,1
-0.0004219178,-0.0001229073,1,1
-0.0004319658,-9.19528e-05,1,1
-0.0004305072,-6.0188e-05,1,1
-0.0004167317,-2.453363e-05,1,1
-0.0003861013,1.711715e-05,1,1
-0.0003327818,6.83298e-05,1,1
-0.0002496423,0.0001269974,1,1
-0.0001467309,0.0001825859,1,1
-4.47918e-05,0.0002237505,1,1
3.154097e-05,0.0002453052,1,1
6.962632e-05,0.0002470879,1,1
7.092284e-05,0.0002328261,1,1
5.017848e-05,0.0002117576,1,1
2.538249e-05,0.0001924718,1,1
1.112074e-05,0.0001824238,1,1
9.013889e-06,0.0001819376,1,1
1.436204e-05,0.0001824238,1,1
1.9224e-05,0.0001739964,1,1
1.695509e-05,0.0001564933,1,1
8.527692e-06,0.0001362352,1,1
-3.858999e-07,0.0001179218,1,1
-3.951337e-06,0.0001083599,1,1
-1.034161e-06,0.0001101427,1,1
5.772582e-06,0.000120839,1,1
1.322759e-05,0.0001323456,1,1
2.01964e-05,0.0001401247,1,1
2.359977e-05,0.0001365593,1,1
1.776542e-05,0.0001151667,1,1
-8.720959e-07,8.340187e-05,1,1
-2.242678e-05,6.83298e-05,1,1
-3.652646e-05,9.977047e-05,1,1
-3.928157e-05,0.0001801549,1,1
-3.587821e-05,0.0002786906,1,1
-3.490581e-05,0.0003546993,1,1
-4.43056e-05,0.0003781987,1,1
-6.715681e-05,0.0003464339,1,1
-9.730096e-05,0.0002738286,1,1
-0.0001219349,0.0001856651,1,1
-0.0001303623,0.0001026876,1,1
-0.0001149661,3.98063e-05,1,1
-7.396356e-05,7.717366e-06,1,1
-2.015787e-05,7.555301e-06,1,1
2.295151e-05,2.748934e-05,1,1
3.624086e-05,4.807163e-05,1,1
2.39239e-05,5.61749e-05,1,1
4.80019e-06,4.77475e-05,1,1
-2.238346e-07,2.489629e-05,1,1
1.760335e-05,-3.465141e-06,1,1
5.390598e-05,-3.117831e-05,1,1
9.458438e-05,-5.548811e-05,1,1
0.0001187321,-7.688073e-05,1,1
0.0001091703,-9.794922e-05,1,1
6.930219e-05,-0.0001212866,1,1
1.889987e-05,-0.0001451102,1,1
-1.756482e-05,-0.0001650443,1,1
-2.566809e-05,-0.0001784957,1,1
-2.168618e-06,-0.0001849783,1,1
4.320967e-05,-0.0001874093,1,1
9.426025e-05,-0.0001885437,1,1
0.0001341283,-0.0001900023,1,1
0.0001543865,-0.0001911368,1,1
0.000160545,-0.0001870851,1,1
0.0001654069,-0.0001775233,1,1
0.0001757791,-0.000166827,1,1
0.0001913374,-0.0001583996,1,1
0.0002043026,-0.0001528894,1,1
0.0001996027,-0.0001488377,1,1
0.0001718896,-0.0001426792,1,1
0.0001334801,-0.0001361966,1,1
9.717743e-05,-0.0001305243,1,1
6.83298e-05,-0.0001259865,1,1
4.677511e-05,-0.0001216107,1,1
2.927205e-05,-0.0001195039,1,1
1.468618e-05,-0.000119666,1,1
2.531276e-06,-0.0001209625,1,1
-5.409925e-06,-0.0001230693,1,1
-1.3027e-05,-0.0001232314,1,1
-2.210265e-05,-0.0001167488,1,1
-3.441962e-05,-0.0001036215,1,1
-5.062615e-05,-8.174268e-05,1,1
-6.569822e-05,-5.062615e-05,1,1
-7.363943e-05,-1.335113e-05,1,1
-7.461182e-05,2.01964e-05,1,1
-7.299116e-05,4.158902e-05,1,1
-6.974985e-05,4.742337e-05,1,1
-6.926366e-05,3.60788e-05,1,1
-7.688073e-05,1.274139e-05,1,1
-9.454585e-05,-1.562004e-05,1,1
-0.000117235,-3.782299e-05,1,1
-0.0001342519,-4.706071e-05,1,1
-0.000137169,-4.219875e-05,1,1
-0.000119666,-1.950961e-05,1,1
-7.444975e-05,2.165498e-05,1,1
-4.437533e-06,7.254349e-05,1,1
7.918817e-05,0.0001190562,1,1
0.0001615174,0.0001485521,1,1
0.0002284504,0.0001598967,1,1
0.000267346,0.0001584381,1,1
0.0002762596,0.0001496866,1,1
0.0002603772,0.0001393144,1,1
0.0002279642,0.0001295905,1,1
0.0001882582,0.0001177597,1,1
0.0001454729,0.000101067,1,1
0.0001020394,7.90261e-05,1,1
6.184718e-05,5.844381e-05,1,1
3.364782e-05,4.564065e-05,1,1
2.116879e-05,4.45062e-05,1,1
2.246531e-05,5.779555e-05,1,1
3.640293e-05,8.194328e-05,1,1
6.217132e-05,0.0001096565,1,1
0.0001030118,0.000135749,1,1
0.0001524417,0.0001563313,1,1
0.0001971717,0.0001670276,1,1
0.0002214815,0.0001699448,1,1
0.0002198609,0.0001671896,1,1
0.0001970097,0.0001652449,1,1
0.0001624898,0.0001731861,1,1
0.0001352628,0.000192958,1,1
0.0001216493,0.0002146748,1,1
0.0001156529,0.000225047,1,1
0.0001107909,0.000217754,1,1
0.0001116012,0.0001942546,1,1
0.0001310491,0.0001618415,1,1
0.0001741585,0.0001304008,1,1
0.0002334744,0.0001056048,1,1
0.000289387,8.648112e-05,1,1
0.0003253654,6.768154e-05,1,1
0.0003347652,4.72613e-05,1,1
0.0003187208,2.76514e-05,1,1
0.0002838767,7.555301e-06,1,1
0.0002378501,-9.947754e-06,1,1
0.000180479,-2.534396e-05,1,1
0.0001030118,-4.138842e-05,1,1
5.286387e-06,-5.710876e-05,1,1
-0.0001013526,-6.667062e-05,1,1
-0.0001849783,-6.164659e-05,1,1
-0.0002092881,-4.333321e-05,1,1
-0.0001571031,-2.323711e-05,1,1
-5.095028e-05,-1.497178e-05,1,1
5.244739e-05,-2.615429e-05,1,1
9.53947e-05,-5.467778e-05,1,1
4.871989e-05,-9.519411e-05,1,1
-7.266703e-05,-0.0001363587,1,1
-0.0002220912,-0.0001658546,1,1
-0.0003403989,-0.0001797922,1,1
-0.0003906392,-0.0001828714,1,1
-0.0003682741,-0.0001818991,1,1
-0.0002968033,-0.0001780095,1,1
-0.0002053985,-0.0001697442,1,1
-0.000119828,-0.0001577513,1,1
-5.59743e-05,-0.0001483515,1,1
-2.404744e-05,-0.0001457585,1,1
-2.307504e-05,-0.0001477033,1,1
-4.171256e-05,-0.0001464067,1,1
-5.678463e-05,-0.0001334415,1,1
-5.143648e-05,-0.0001013526,1,1
-2.129233e-05,-5.192267e-05,1,1
2.278944e-05,-4.275467e-06,1,1
6.427817e-05,2.359977e-05,1,1
7.594687e-05,2.278944e-05,1,1
3.056858e-05,9.106227e-07,1,1
-7.23429e-05,-2.809907e-05,1,1
-0.0002070192,-4.787104e-05,1,1
-0.0003321336,-4.997789e-05,1,1
-0.0004180282,-3.749886e-05,1,1
-0.0004590307,-1.724069e-05,1,1
-0.0004533584,8.203562e-06,1,1
-0.0003969597,4.045456e-05,1,1
-0.0002857829,7.983644e-05,1,1
-0.0001251762,0.0001211631,1,1
5.61749e-05,0.0001603829,1,1
0.0002221298,0.0001940925,1,1
0.0003464339,0.0002184023,1,1
0.0004237391,0.0002321778,1,1
0.00046069,0.0002337985,1,1
0.0004668485,0.0002229401,1,1
0.0004571246,0.0002059233,1,1
0.0004439973,0.0001919856,1,1
0.0004412422,0.0001876099,1,1
0.0004546936,0.0001934442,1,1
0.000485486,0.0001992786,1,1
0.000522599,0.0001970097,1,1
0.0005465847,0.0001864754,1,1
0.0005368608,0.0001702689,1,1
0.0004896998,0.0001550348,1,1
0.0004303838,0.0001461212,1,1
0.0003864641,0.0001453108,1,1
0.0003626405,0.0001493625,1,1
0.0003407616,0.0001511452,1,1
0.0002978143,0.0001466074,1,1
0.0002218057,0.0001409351,1,1
0.0001119254,0.0001394765,1,1
-2.258885e-05,0.000140773,1,1
-0.0001648822,0.0001368834,1,1
-0.0002953447,0.0001247285,1,1
-0.000400201,0.0001049566,1,1
-0.000477182,7.821578e-05,1,1
-0.0005332566,5.1475e-05,1,1
-0.0005758798,2.81376e-05,1,1
-0.0006050515,7.393236e-06,1,1
-0.0006172064,-1.027188e-05,1,1
-0.000611048,-2.453363e-05,1,1
-0.000593869,-3.847125e-05,1,1
-0.0005757177,-5.2733e-05,1,1
-0.0005603215,-6.472583e-05,1,1
-0.0005402254,-7.282909e-05,1,1
-0.0005058676,-7.736692e-05,1,1
-0.000459679,-8.02841e-05,1,1
-0.0004178661,-8.530812e-05,1,1
-0.0004044147,-9.697683e-05,1,1
-0.000424997,-0.0001167488,1,1
-0.0004674581,-0.0001381414,1,1
-0.0005176983,-0.0001546721,1,1
-0.0005617801,-0.0001609926,1,1
-0.0005896553,-0.0001558065,1,1
-0.0005930586,-0.0001472171,1,1
-0.0005658317,-0.0001418689,1,1
-0.0005188328,-0.0001425172,1,1
-0.0004710235,-0.0001504584,1,1
-0.0004309934,-0.0001652063,1,1
-0.0003883702,-0.0001854645,1,1
-0.0003303509,-0.0002099363,1,1
-0.0002551526,-0.000236353,1,1
-0.0001728234,-0.0002580697,1,1
-9.535618e-05,-0.0002731418,1,1
-2.923353e-05,-0.000286107,1,1
1.792748e-05,-0.0003023136,1,1
4.35338e-05,-0.0003180339,1,1
5.61749e-05,-0.0003300267,1,1
6.362991e-05,-0.0003342404,1,1
6.83298e-05,-0.000328082,1,1
7.027458e-05,-0.0003112272,1,1
6.962632e-05,-0.0002804347,1,1
7.286763e-05,-0.0002277635,1,1
8.826383e-05,-0.0001532135,1,1
0.0001205148,-6.974985e-05,1,1
0.000160707,5.610517e-06,1,1
0.0002010613,6.427817e-05,1,1
0.0002352571,0.0001104668,1,1
0.0002585945,0.0001498487,1,1
0.0002709115,0.0001866375,1,1
0.0002733424,0.0002154851,1,1
0.0002704253,0.0002295848,1,1
0.0002626462,0.0002255332,1,1
0.0002525981,0.000207706,1,1
0.0002407673,0.0001843686,1,1
0.0002279642,0.0001639484,1,1
0.0002185644,0.0001477418,1,1
0.0002289366,0.0001318594,1,1
0.0002837146,0.0001150046,1,1
0.0003952156,0.0001020394,1,1
0.0005509604,0.0001033359,1,1
0.0007298806,0.0001163011,1,1
0.0009172284,0.000130725,1,1
0.0011002,0.0001412592,1,1
0.001256594,0.0001493625,1,1
0.001357074,0.0001574657,1,1
0.001376198,0.0001641104,1,1
0.001313154,0.0001658931,1,1
0.00118885,0.0001620036,1,1
0.001027271,0.000155521,1,1
0.0008464058,0.0001563313,1,1
0.0006530617,0.0001748067,1,1
0.0004514523,0.0002111094,1,1
0.0002482223,0.0002508154,1,1
6.249545e-05,0.000274639,1,1
-8.547019e-05,0.0002718839,1,1
-0.0001875713,0.0002462775,1,1
-0.0002570974,0.0002107852,1,1
-0.0003167374,0.0001773998,1,1
-0.0003867496,0.000155521,1,1
-0.0004736166,0.0001464453,1,1
-0.0005719902,0.0001464453,1,1
-0.0006669604,0.0001521176,1,1
-0.000742969,0.0001610312,1,1
-0.000784944,0.000168,1,1
-0.0007797579,0.0001670276,1,1
-0.000722873,0.0001574657,1,1
-0.0006175305,0.0001406109,1,1
-0.0004788027,0.0001175977,1,1
-0.0003311612,9.280167e-05,1,1
-0.0001956746,7.140904e-05,1,1
-8.498399e-05,5.212327e-05,1,1
-1.221667e-05,3.105477e-05,1,1
1.565857e-05,9.175954e-06,1,1
8.203562e-06,-1.383732e-05,1,1
-1.383732e-05,-3.879538e-05,1,1
-3.26369e-05,-6.81292e-05,1,1
-4.155049e-05,-0.000102325,1,1
-3.895745e-05,-0.0001361966,1,1
-2.615429e-05,-0.0001608306,1,1
-4.761664e-06,-0.0001681235,1,1
2.214118e-05,-0.0001536997,1,1
5.374392e-05,-0.0001206384,1,1
8.988449e-05,-7.801519e-05,1,1
0.0001304008,-4.041603e-05,1,1
0.0001746447,-2.194059e-05,1,1
0.0002229401,-2.955766e-05,1,1
0.0002814457,-5.808115e-05,1,1
0.0003624784,-9.438378e-05,1,1
0.0004663623,-0.0001238797,1,1
0.0005734875,-0.0001366828,1,1
0.0006553305,-0.0001308485,1,1
0.0006866092,-0.0001130213,1,1
0.0006584098,-9.373552e-05,1,1
0.0005786736,-8.433573e-05,1,1
0.0004634451,-8.968389e-05,1,1
0.0003384927,-0.0001045939,1,1
0.0002253711,-0.0001214487,1,1
0.0001325077,-0.0001327933,1,1
5.714729e-05,-0.000137169,1,1
-1.221667e-05,-0.000137007,1,1
-9.179074e-05,-0.000137007,1,1
-0.0001853024,-0.0001350622,1,1
-0.0002851347,-0.0001287416,1,1
-0.0003792946,-0.0001190177,1,1
-0.0004585445,-0.000104756,1,1
-0.000514457,-8.44978e-05,1,1
-0.0005484907,-6.456377e-05,1,1
-0.0005651835,-4.90055e-05,1,1
-0.0005651835,-3.782299e-05,1,1
-0.0005528665,-2.89094e-05,1,1
-0.0005279084,-2.09682e-05,1,1
-0.0004954954,-1.270286e-05,1,1
-0.0004565997,-3.627206e-06,1,1
-0.0004105732,3.341602e-06,1,1
-0.0003588744,8.527692e-06,1,1
-0.0003057169,1.306552e-05,1,1
-0.0002590421,1.64689e-05,1,1
-0.0002232257,2.01964e-05,1,1
-0.0002026434,2.473423e-05,1,1
-0.0001929195,2.943412e-05,1,1
-0.0001958367,3.348575e-05,1,1
-0.0002241981,3.753739e-05,1,1
-0.0002883759,4.369587e-05,1,1
-0.0003825359,5.244739e-05,1,1
-0.0004838267,6.492643e-05,1,1
-0.0005612939,8.032264e-05,1,1
-0.0005909518,0.0001038221,1,1
-0.0005640491,0.0001344524,1,1
-0.0004865818,0.0001676758,1,1
-0.000380267,0.0002010613,1,1
-0.000266173,0.0002289366,1,1
-0.0001592099,0.000242388,1,1
-6.261898e-05,0.000237526,1,1
3.073064e-05,0.0002213195,1,1
0.0001255389,0.0002049509,1,1
0.0002205092,0.0001942546,1,1
0.0003021901,0.0001874478,1,1
0.0003602095,0.0001806411,1,1
0.0003947294,0.0001782101,1,1
0.0004119083,0.0001848548,1,1
0.0004190393,0.0002031682,1,1
0.0004250357,0.0002258573,1,1
0.0004324906,0.0002378501,1,1
0.0004365423,0.0002281262,1,1
0.0004303838,0.0001939304,1,1
0.0004088291,0.0001409351,1,1
0.0003728506,8.210535e-05,1,1
0.0003347652,2.927205e-05,1,1
0.0003067279,-7.192643e-06,1,1
0.0002876042,-2.275091e-05,1,1
0.0002600531,-2.161646e-05,1,1
0.000202844,-1.432352e-05,1,1
0.000111115,-8.489166e-06,1,1
-2.330684e-06,-6.176923e-08,1,1
-0.0001118868,2.214118e-05,1,1
-0.0001935677,5.455425e-05,1,1
-0.0002368392,8.372601e-05,1,1
-0.000251101,9.328786e-05,1,1
-0.0002561249,7.67572e-05,1,1
-0.0002700626,4.013043e-05,1,1
-0.0003015032,-4.599598e-06,1,1
-0.0003420196,-4.85193e-05,1,1
-0.0003702189,-8.530812e-05,1,1
-0.0003606571,-0.0001107524,1,1
-0.0002987481,-0.0001245279,1,1
-0.000191623,-0.000127121,1,1
-7.120844e-05,-0.0001229073,1,1
2.586868e-05,-0.0001151281,1,1
7.157111e-05,-0.0001084835,1,1
6.46023e-05,-0.0001021629,1,1
2.408596e-05,-9.422172e-05,1,1
-2.113026e-05,-8.255302e-05,1,1
-5.030202e-05,-7.072225e-05,1,1
-5.159854e-05,-6.407757e-05,1,1
-2.291298e-05,-6.407757e-05,1,1
3.494434e-05,-6.958779e-05,1,1
0.0001167873,-7.963584e-05,1,1
0.0002104611,-9.179074e-05,1,1
0.0003034866,-0.0001010285,1,1
0.0003819262,-0.0001068628,1,1
0.000435732,-0.0001146419,1,1
0.0004553419,-0.0001269589,1,1
0.0004373526,-0.0001402483,1,1
0.0003950536,-0.0001498101,1,1
0.0003430306,-0.0001517549,1,1
0.0002952213,-0.0001477033,1,1
0.0002529222,-0.0001397621,1,1
0.0002119197,-0.0001261486,1,1
0.0001678379,-0.0001083214,1,1
0.0001253768,-9.081835e-05,1,1
9.150514e-05,-7.542214e-05,1,1
6.930219e-05,-6.39155e-05,1,1
5.341979e-05,-5.208474e-05,1,1
4.045456e-05,-3.944364e-05,1,1
3.737532e-05,-2.777494e-05,1,1
4.855783e-05,-1.950961e-05,1,1
7.513654e-05,-1.464765e-05,1,1
0.0001148425,-9.623623e-06,1,1
0.0001616794,4.244267e-07,1,1
0.0002104611,1.906194e-05,1,1
0.0002650771,4.272347e-05,1,1
0.0003299033,6.427817e-05,1,1
0.0003973225,7.756752e-05,1,1
0.0004427008,7.789165e-05,1,1
0.0004511282,7.011252e-05,1,1
0.0004307079,6.071273e-05,1,1
0.0004002396,5.471631e-05,1,1
0.000368961,5.56887e-05,1,1
0.0003315239,6.168512e-05,1,1
0.0002782044,6.751948e-05,1,1
0.0002051129,6.946425e-05,1,1
0.0001281319,6.800567e-05,1,1
6.751948e-05,6.719535e-05,1,1
3.348575e-05,7.027458e-05,1,1
2.035846e-05,7.999851e-05,1,1
1.889987e-05,9.798775e-05,1,1
3.105477e-05,0.000120839,1,1
5.763349e-05,0.000143204,1,1
8.518459e-05,0.000160707,1,1
9.458438e-05,0.0001691344,1,1
7.043665e-05,0.0001670276,1,1
1.047248e-05,0.000155683,1,1
-7.509801e-05,0.0001440143,1,1
-0.0001699062,0.0001378558,1,1
-0.0002580697,0.0001360731,1,1
-0.0003262992,0.0001291043,1,1
-0.0003713534,0.0001101427,1,1
-0.0004005251,8.080883e-05,1,1
-0.0004202971,4.985435e-05,1,1
-0.0004355313,2.441009e-05,1,1
-0.0004463896,8.365628e-06,1,1
-0.0004540067,2.693341e-06,1,1
-0.0004593548,2.855407e-06,1,1
-0.0004591928,2.531276e-06,1,1
-0.0004437966,2.623614e-07,1,1
-0.0004044147,-1.682422e-06,1,1
-0.0003416954,-2.81688e-06,1,1
-0.000266173,-5.89612e-06,1,1
-0.0001982676,-1.237873e-05,1,1
-0.0001566169,-1.918548e-05,1,1
-0.0001441378,-2.372331e-05,1,1
-0.0001530514,-2.46957e-05,1,1
-0.0001655305,-2.485776e-05,1,1
-0.000166827,-2.988179e-05,1,1
-0.0001549962,-4.511593e-05,1,1
-0.0001319829,-7.250496e-05,1,1
-0.0001037836,-0.0001050801,1,1
-7.785312e-05,-0.0001318209,1,1
-5.500191e-05,-0.0001462447,1,1
-3.441962e-05,-0.0001498101,1,1
-1.934754e-05,-0.0001493239,1,1
-1.416145e-05,-0.0001530514,1,1
-1.529591e-05,-0.0001707166,1,1
-1.480971e-05,-0.0002024813,1,1
-3.789272e-06,-0.0002399184,1,1
1.97102e-05,-0.0002593663,1,1
5.406805e-05,-0.0002344082,1,1
9.863601e-05,-0.0001506204,1,1
0.0001496866,-1.918548e-05,1,1
0.0001926339,0.0001239182,1,1
0.0002034923,0.0002331503,1,1
0.0001613553,0.0002782044,1,1
6.525056e-05,0.0002560015,1,1
-7.704279e-05,0.0001918236,1,1
-0.000243808,0.0001244044,1,1
-0.0004019837,9.296373e-05,1,1
-0.0005149432,0.0001125736,1,1
-0.0005569181,0.0001657311,1,1
-0.0005219121,0.0002174299,1,1
-0.0004222419,0.0002393087,1,1
-0.0002809209,0.0002240746,1,1
-0.0001225832,0.0001833962,1,1
2.846173e-05,0.0001376938,1,1
0.0001511452,9.798775e-05,1,1
0.0002263435,6.654708e-05,1,1
0.0002555152,4.077869e-05,1,1
0.0002576221,1.744129e-05,1,1
0.0002590807,-3.951337e-06,1,1
0.0002743149,-2.291298e-05,1,1
0.0003047831,-3.879538e-05,1,1
0.0003448133,-5.046408e-05,1,1
0.0003869503,-5.613637e-05,1,1
0.0004263322,-5.69467e-05,1,1
0.0004600418,-5.062615e-05,1,1
0.0004858102,-3.587821e-05,1,1
0.0005012064,-1.237873e-05,1,1
0.0005031512,1.338965e-05,1,1
0.0004893756,3.316162e-05,1,1
0.0004647417,4.158902e-05,1,1
0.0004399457,4.807163e-05,1,1
0.0004302217,6.362991e-05,1,1
0.0004540453,9.280167e-05,1,1
0.0005258403,0.0001297526,1,1
0.0006477135,0.000160707,1,1
0.0008003792,0.000177886,1,1
0.0009476967,0.0001827479,1,1
0.001056281,0.0001798307,1,1
0.001104414,0.0001739964,1,1
0.001079618,0.0001649207,1,1
0.0009844856,0.0001509831,1,1
0.0008384645,0.0001313732,1,1
0.0006673234,0.0001091703,1,1
0.0004825689,9.004655e-05,1,1
0.0002833905,7.546067e-05,1,1
7.432621e-05,6.492643e-05,1,1
-0.0001146419,5.94162e-05,1,1
-0.0002480217,5.536457e-05,1,1
-0.0003118754,4.985435e-05,1,1
-0.0003220855,4.077869e-05,1,1
-0.0003165753,2.76514e-05,1,1
-0.0003277578,1.322759e-05,1,1
-0.0003718396,2.531276e-06,1,1
-0.0004475241,-4.113403e-06,1,1
-0.0005415219,-1.25408e-05,1,1
-0.0006356818,-2.874733e-05,1,1
-0.0007133111,-5.581224e-05,1,1
-0.0007619307,-8.871149e-05,1,1
-0.0007758683,-0.0001233935,1,1
-0.000752855,-0.0001540238,1,1
-0.0007009942,-0.0001739578,1,1
-0.0006327647,-0.0001783336,1,1
-0.0005640491,-0.000166827,1,1
-0.000514457,-0.0001483515,1,1
-0.0005003574,-0.0001331174,1,1
-0.0005220741,-0.000127283,1,1
-0.0005685869,-0.0001298761,1,1
-0.0006304958,-0.0001397621,1,1
-0.0007086112,-0.0001481895,1,1
-0.000804878,-0.0001464067,1,1
-0.0009069791,-0.0001366828,1,1
-0.000988498,-0.0001293899,1,1
-0.001012646,-0.0001327933,1,1
-0.0009483058,-0.0001438137,1,1
-0.0007951541,-0.0001551583,1,1
-0.0005977586,-0.000161965,1,1
-0.0004139766,-0.0001635857,1,1
-0.0002804347,-0.000161965,1,1
-0.0001985918,-0.0001585616,1,1
-0.0001499722,-0.0001527273,1,1
-0.000112373,-0.0001397621,1,1
-7.056019e-05,-0.0001096179,1,1
-1.950961e-05,-6.132246e-05,1,1
3.883391e-05,-7.840905e-06,1,1
0.0001005808,2.992031e-05,1,1
0.0001503349,4.158902e-05,1,1
0.0001762653,3.056858e-05,1,1
0.0001798307,9.175954e-06,1,1
0.0001717275,-9.299493e-06,1,1
0.0001675138,-2.09682e-05,1,1
0.0001712413,-2.89094e-05,1,1
0.0001801549,-3.555408e-05,1,1
0.0001872858,-4.106429e-05,1,1
0.0001902029,-4.544006e-05,1,1
0.0001905271,-4.365734e-05,1,1
0.0001914995,-3.182657e-05,1,1
0.0001931201,-1.221667e-05,1,1
0.0001945787,1.144487e-05,1,1
0.0001905271,4.045456e-05,1,1
0.0001733481,7.918817e-05,1,1
0.0001399627,0.000130887,1,1
9.458438e-05,0.0001931201,1,1
4.628891e-05,0.0002595669,1,1
8.851824e-06,0.0003174242,1,1
-8.813297e-06,0.0003553475,1,1
-8.165035e-06,0.0003670162,1,1
4.151929e-06,0.0003534027,1,1
2.214118e-05,0.0003232586,1,1
4.191315e-05,0.0002830664,1,1
6.444023e-05,0.0002386605,1,1
9.733949e-05,0.0001940925,1,1
0.0001462832,0.0001576278,1,1
0.0002057612,0.0001352628,1,1
0.0002689667,0.0001287802,1,1
0.0003250413,0.0001346145,1,1
0.0003634508,0.0001446626,1,1
0.0003798194,0.000150659,1,1
0.0003785229,0.0001475797,1,1
0.0003704196,0.0001342904,1,1
0.0003657197,0.0001128978,1,1
0.0003678266,9.426025e-05,1,1
0.0003817642,9.069481e-05,1,1
0.0004073705,0.0001077117,1,1
0.0004427008,0.0001313732,1,1
0.0004781931,0.0001472556,1,1
0.0004979651,0.0001477418,1,1
0.0004858102,0.0001305629,1,1
0.0004392974,0.0001002567,1,1
0.0003676645,6.265751e-05,1,1
0.0002880904,3.008238e-05,1,1
0.0002115956,7.069105e-06,1,1
0.0001409351,-3.951337e-06,1,1
7.20573e-05,-5.247859e-06,1,1
3.017472e-06,3.017472e-06,1,1
-6.407757e-05,1.452411e-05,1,1
-0.0001316588,2.116879e-05,1,1
-0.0002058847,1.695509e-05,1,1
-0.0002862691,-2.238346e-07,1,1
-0.000367788,-2.89094e-05,1,1
-0.0004369898,-6.407757e-05,1,1
-0.0004833405,-9.649064e-05,1,1
-0.0004988988,-0.0001159385,1,1
-0.0004835025,-0.0001195039,1,1
-0.0004431483,-0.0001070249,1,1
-0.0003888564,-8.579432e-05,1,1
-0.0003261372,-6.39155e-05,1,1
-0.000258718,-4.722278e-05,1,1
-0.0001900023,-3.701266e-05,1,1
-0.0001242038,-3.377136e-05,1,1
-6.423963e-05,-3.733679e-05,1,1
-8.327101e-06,-4.511593e-05,1,1
5.504044e-05,-5.159854e-05,1,1
0.0001376938,-5.824322e-05,1,1
0.0002372019,-7.250496e-05,1,1
0.000341572,-9.519411e-05,1,1
0.0004342734,-0.0001225832,1,1
0.000507527,-0.0001468929,1,1
0.0005629533,-0.0001624512,1,1
0.0006049282,-0.0001690959,1,1
0.0006397723,-0.0001715269,1,1
0.0006713751,-0.0001759026,1,1
0.0006932539,-0.0001833576,1,1
0.0007000606,-0.0001895161,1,1
0.0006875816,-0.0001943781,1,1
0.0006533858,-0.0001971332,1,1
0.0005995801,-0.0001945401,1,1
0.000532485,-0.0001853024,1,1
0.0004546936,-0.000166989,1,1
0.0003684748,-0.0001407345,1,1
0.0002814457,-0.0001112386,1,1
0.000202682,-8.336335e-05,1,1
0.0001370455,-4.90055e-05,1,1
8.161915e-05,2.531276e-06,1,1
3.429608e-05,6.735741e-05,1,1
-6.706447e-06,0.0001253768,1,1
-4.090223e-05,0.0001573037,1,1
-7.072225e-05,0.0001529279,1,1
-0.0001054042,0.0001177597,1,1
-0.0001530514,6.865393e-05,1,1
-0.0002180396,2.700314e-05,1,1
-0.0002930758,6.90704e-06,1,1
-0.0003616295,9.66215e-06,1,1
-0.000400039,2.76514e-05,1,1
-0.0003917736,5.001642e-05,1,1
-0.0003361852,6.78436e-05,1,1
-0.0002548284,7.837785e-05,1,1
-0.0001807646,8.518459e-05,1,1
-0.0001457585,9.296373e-05,1,1
-0.0001587237,0.0001015532,1,1
-0.0002049123,0.0001104668,1,1
-0.0002533699,0.0001205148,1,1
-0.0002783279,0.0001279698,1,1
-0.0002676316,0.0001315353,1,1
-0.0002250084,0.0001312112,1,1
-0.0001624512,0.0001271595,1,1
-9.940781e-05,0.0001218114,1,1
-4.997789e-05,0.000118408,1,1
-1.837515e-05,0.0001192183,1,1
3.017472e-06,0.0001226217,1,1
2.181705e-05,0.0001244044,1,1
4.126489e-05,0.0001214872,1,1
6.41161e-05,0.0001130598,1,1
8.907416e-05,0.0001026876,1,1
0.0001088461,9.458438e-05,1,1
0.0001137081,9.523264e-05,1,1
0.0001025256,0.000105929,1,1
8.210535e-05,0.0001193804,1,1
6.006447e-05,0.0001253768,1,1
4.272347e-05,0.0001192183,1,1
2.635488e-05,9.863601e-05,1,1
-4.437533e-06,7.546067e-05,1,1
-5.775702e-05,6.427817e-05,1,1
-0.0001323071,7.400208e-05,1,1
-0.0002128535,9.928428e-05,1,1
-0.0002801106,0.0001295905,1,1
-0.0003227338,0.0001524417,1,1
-0.0003395886,0.0001594105,1,1
-0.000342992,0.0001504969,1,1
-0.000353202,0.0001299146,1,1
-0.0003830221,0.0001000946,1,1
-0.0004342347,5.876794e-05,1,1
-0.0004993849,1.22552e-05,1,1
-0.000556756,-2.988179e-05,1,1
-0.0005825245,-6.229485e-05,1,1
-0.0005578905,-8.044617e-05,1,1
-0.0004788027,-8.109443e-05,1,1
-0.0003567675,-6.748094e-05,1,1
-0.0002162569,-4.706071e-05,1,1
-8.190475e-05,-2.858527e-05,1,1
3.55926e-05,-1.902341e-05,1,1
0.0001402868,-2.42095e-05,1,1
0.0002404432,-4.398147e-05,1,1
0.0003399513,-7.18567e-05,1,1
0.000428277,-0.0001002181,1,1
0.0004845136,-0.0001240417,1,1
0.0004906721,-0.0001384655,1,1
0.0004435111,-0.0001447861,1,1
0.0003577785,-0.0001462447,1,1
0.0002694529,-0.0001436516,1,1
0.0002213195,-0.0001392759,1,1
0.0002336365,-0.0001358725,1,1
0.0003004074,-0.0001353863,1,1
0.0003885709,-0.0001361966,1,1
0.0004595556,-0.000134738,1,1
0.0004822447,-0.0001337657,1,1
0.0004402698,-0.0001357104,1,1
0.0003423823,-0.0001378173,1,1
0.0002122438,-0.0001349001,1,1
7.059871e-05,-0.0001245279,1,1
-6.278104e-05,-0.0001054042,1,1
-0.0001648822,-8.02841e-05,1,1
-0.000213988,-5.678463e-05,1,1
-0.0002036158,-4.074016e-05,1,1
-0.0001417068,-3.425755e-05,1,1
-5.013995e-05,-3.279896e-05,1,1
4.855783e-05,-3.490581e-05,1,1
0.0001344524,-3.717473e-05,1,1
0.0001955511,-3.458168e-05,1,1
0.0002334744,-2.566809e-05,1,1
0.0002535705,-1.270286e-05,1,1
0.0002584324,2.369211e-06,1,1
0.0002467637,2.052053e-05,1,1
0.0002135403,3.802358e-05,1,1
0.0001590864,5.001642e-05,1,1
9.037068e-05,5.601284e-05,1,1
2.181705e-05,6.427817e-05,1,1
-3.409549e-05,8.79397e-05,1,1
-7.833932e-05,0.0001300767,1,1
-0.0001151281,0.0001790204,1,1
-0.0001467309,0.0002149989,1,1
-0.0001699062,0.00022764,1,1
-0.0001825473,0.000220185,1,1
-0.0001906506,0.0002057612,1,1
-0.0001981056,0.0001955511,1,1
-0.0002058847,0.0001893926,1,1
-0.0002104225,0.0001840444,1,1
-0.000213988,0.0001770756,1,1
-0.0002207947,0.0001667035,1,1
-0.0002277635,0.00015309,1,1
-0.0002266291,0.0001373696,1,1
-0.0002152845,0.0001180839,1,1
-0.0002005366,0.0001000946,1,1
-0.0001951884,8.615699e-05,1,1
-0.0002105846,7.52986e-05,1,1
-0.0002467252,6.346784e-05,1,1
-0.0002888622,5.034055e-05,1,1
-0.0003139823,4.175109e-05,1,1
-0.000303286,4.693717e-05,1,1
-0.0002553146,6.606088e-05,1,1
-0.00018433,9.037068e-05,1,1
-0.000114804,0.0001044704,1,1
-6.148453e-05,9.717743e-05,1,1
-2.550602e-05,6.670914e-05,1,1
-2.492749e-06,2.197911e-05,1,1
1.565857e-05,-1.918548e-05,1,1
3.883391e-05,-4.544006e-05,1,1
7.562274e-05,-5.32192e-05,1,1
0.0001224596,-4.673658e-05,1,1
0.000163138,-3.490581e-05,1,1
0.0001777239,-2.550602e-05,1,1
0.0001513072,-2.42095e-05,1,1
7.594687e-05,-2.631635e-05,1,1
-3.830919e-05,-2.89094e-05,1,1
-0.0001697442,-3.441962e-05,1,1
-0.0002895104,-4.689865e-05,1,1
-0.0003671397,-6.796714e-05,1,1
-0.0003846427,-9.324933e-05,1,1
-0.0003444506,-0.0001182074,1,1
-0.0002648765,-0.0001408965,1,1
-0.0001749302,-0.000152079,1,1
-0.0001002181,-0.000134576,1,1
-5.451572e-05,-7.509801e-05,1,1
-4.106429e-05,1.873781e-05,1,1
-5.467778e-05,0.0001112771,1,1
-7.493595e-05,0.0001686482,1,1
-6.764301e-05,0.0001735102,1,1
-7.840905e-06,0.0001344524,1,1
9.879808e-05,7.20573e-05,1,1
0.0002248849,7.069105e-06,1,1
0.0003410858,-4.333321e-05,1,1
0.000425846,-7.23429e-05,1,1
0.0004623107,-8.190475e-05,1,1
0.0004435111,-7.931171e-05,1,1
0.0003778746,-7.299116e-05,1,1
0.0002926282,-7.444975e-05,1,1
0.0002169437,-8.709085e-05,1,1
0.0001731861,-0.0001054042,1,1
0.0001616794,-0.0001245279,1,1
0.0001637863,-0.000137169,1,1
0.0001598967,-0.0001360346,1,1
0.0001427178,-0.0001225832,1,1
0.0001146805,-0.0001020008,1,1
8.161915e-05,-8.417367e-05,1,1
4.596478e-05,-7.33153e-05,1,1
2.01964e-05,-6.991193e-05,1,1
1.144487e-05,-6.91016e-05,1,1
1.160693e-05,-6.423963e-05,1,1
9.500085e-06,-5.111234e-05,1,1
4.80019e-06,-3.522994e-05,1,1
1.234753e-06,-2.226472e-05,1,1
2.04508e-06,-1.610624e-05,1,1
1.014835e-05,-2.031993e-05,1,1
2.39239e-05,-3.247483e-05,1,1
3.867184e-05,-4.641245e-05,1,1
4.936815e-05,-5.69467e-05,1,1
5.131294e-05,-6.213279e-05,1,1
4.385793e-05,-6.829127e-05,1,1
3.105477e-05,-7.623246e-05,1,1
2.457216e-05,-8.514606e-05,1,1
3.656499e-05,-8.741498e-05,1,1
7.254349e-05,-7.250496e-05,1,1
0.0001281319,-3.21507e-05,1,1
0.0001884202,3.154097e-05,1,1
0.000237526,0.0001028497,1,1
0.0002691288,0.0001673517,1,1
0.0002906835,0.0002221298,1,1
0.0003162898,0.0002736666,1,1
0.0003498373,0.0003240689,1,1
0.0003830607,0.0003655576,1,1
0.0004042913,0.0003851676,1,1
0.00040105,0.0003731747,1,1
0.0003717161,0.0003302274,1,1
0.0003253654,0.0002663737,1,1
0.0002811216,0.0001989545,1,1
0.0002503292,0.0001446626,1,1
0.0002329882,0.0001101427,1,1
0.0002235884,9.426025e-05,1,1
0.0002213195,9.118101e-05,1,1
0.0002205092,9.247754e-05,1,1
0.0002109473,9.231547e-05,1,1
0.0001783722,8.599492e-05,1,1
0.0001172735,7.286763e-05,1,1
3.899597e-05,5.779555e-05,1,1
-3.928157e-05,4.661304e-05,1,1
-9.989401e-05,4.175109e-05,1,1
-0.0001384655,4.304761e-05,1,1
-0.0001647201,4.72613e-05,1,1
-0.0001958367,5.244739e-05,1,1
-0.0002418632,5.779555e-05,1,1
-0.0002964792,5.909208e-05,1,1
-0.0003428299,5.309566e-05,1,1
-0.0003638984,3.705119e-05,1,1
-0.0003559572,1.517237e-05,1,1
-0.0003361852,-6.220252e-06,1,1
-0.0003224097,-2.113026e-05,1,1
-0.0003211132,-2.89094e-05,1,1
-0.000325651,-3.182657e-05,1,1
-0.000330675,-3.053005e-05,1,1
-0.0003314853,-2.939559e-05,1,1
-0.0003295405,-3.344723e-05,1,1
-0.0003335922,-4.398147e-05,1,1
-0.0003561192,-5.759496e-05,1,1
-0.0004118697,-7.299116e-05,1,1
-0.0005100812,-9.098041e-05,1,1
-0.0006489712,-0.0001133454,1,1
-0.0008003402,-0.0001355484,1,1
-0.0009277235,-0.0001524032,1,1
-0.0009987081,-0.0001616409,1,1
-0.0009954668,-0.0001640719,1,1
-0.0009205926,-0.0001629374,1,1
-0.0007894818,-0.0001580754,1,1
-0.000623527,-0.0001428413,1,1
-0.0004496309,-0.0001167488,1,1
-0.000285945,-8.563225e-05,1,1
-0.0001405724,-6.197072e-05,1,1
-8.489166e-06,-4.916756e-05,1,1
0.0001197045,-4.657452e-05,1,1
0.0002504913,-5.095028e-05,1,1
0.0003875985,-5.59743e-05,1,1
0.000532485,-5.613637e-05,1,1
0.0006793162,-4.884343e-05,1,1
0.0008193408,-3.555408e-05,1,1
0.0009472105,-2.064406e-05,1,1
0.001066005,-9.137427e-06,1,1
0.001183988,-8.720959e-07,1,1
0.001306996,5.448452e-06,1,1
0.001434218,1.517237e-05,1,1
0.001552688,2.829966e-05,1,1
0.001641175,3.948217e-05,1,1
0.001674561,4.223728e-05,1,1
0.001636476,3.575467e-05,1,1
0.001528054,2.603075e-05,1,1
0.001364367,2.068259e-05,1,1
0.00116924,2.603075e-05,1,1
0.0009604999,4.256141e-05,1,1
0.0007387943,6.444023e-05,1,1
0.000502827,8.486046e-05,1,1
0.0002576221,0.0001031738,1,1
1.436204e-05,0.000121001,1,1
-0.0002156086,0.0001375317,1,1
-0.0004138145,0.000160545,1,1
-0.0005569181,0.0001940925,1,1
-0.0006342233,0.0002320158,1,1
-0.0006501057,0.000262322,1,1
-0.0006269303,0.0002743149,1,1
-0.0005995413,0.0002663737,1,1
-0.0006071584,0.0002396328,1,1
-0.0006698776,0.0002017096,1,1
-0.0007815406,0.0001608691,1,1
-0.0009105446,0.0001250527,1,1
-0.001023018,9.879808e-05,1,1
-0.001087358,8.599492e-05,1,1
-0.001085899,8.113296e-05,1,1
-0.001016859,7.708133e-05,1,1
-0.0008980656,6.962632e-05,1,1
-0.0007546378,5.925414e-05,1,1
-0.0006099135,5.066468e-05,1,1
-0.0004830164,4.758544e-05,1,1
-0.0003888564,5.131294e-05,1,1
-0.000330675,5.94162e-05,1,1
-0.000301017,6.573675e-05,1,1
-0.00027849,6.557468e-05,1,1
-0.0002470493,5.844381e-05,1,1
-0.0002034537,5.050261e-05,1,1
-0.0001524032,4.628891e-05,1,1
-9.730096e-05,4.466826e-05,1,1
-4.219875e-05,3.656499e-05,1,1
1.031041e-05,1.517237e-05,1,1
6.444023e-05,-1.594417e-05,1,1
0.0001326697,-4.80331e-05,1,1
0.0002227781,-7.477388e-05,1,1
0.0003315239,-9.130454e-05,1,1
0.0004465904,-9.551824e-05,1,1
0.0005511225,-8.968389e-05,1,1
0.0006251864,-8.07703e-05,1,1
0.0006541961,-7.266703e-05,1,1
0.0006397723,-6.780507e-05,1,1
0.0005989318,-6.780507e-05,1,1
0.0005483674,-7.817725e-05,1,1
0.0004990995,-9.843541e-05,1,1
0.000453235,-0.0001209625,1,1
0.0004083429,-0.0001391138,1,1
0.0003598854,-0.0001468929,1,1
0.0003106175,-0.0001436516,1,1
0.0002628082,-0.000134738,1,1
0.0002172679,-0.0001199901,1,1
0.0001762653,-0.0001005423,1,1
0.00013818,-8.158062e-05,1,1
9.507057e-05,-6.764301e-05,1,1
3.818565e-05,-6.553616e-05,1,1
-3.506788e-05,-7.412562e-05,1,1
-0.0001191798,-8.773911e-05,1,1
-0.0001968091,-0.000102325,1,1
-0.0002447804,-0.0001118868,1,1
-0.000246239,-0.0001161005,1,1
-0.0002000504,-0.0001144799,1,1
-0.0001250141,-0.0001065387,1,1
-5.176061e-05,-9.632857e-05,1,1
-8.165035e-06,-9.049421e-05,1,1
-1.270286e-05,-9.114248e-05,1,1
-6.06742e-05,-9.66527e-05,1,1
-0.0001255003,-0.0001039456,1,1
-0.0001724993,-0.0001076731,1,1
-0.0001820611,-9.827335e-05,1,1
-0.0001606685,-6.537409e-05,1,1
-0.0001314967,-8.002969e-06,1,1
-0.0001209625,6.103686e-05,1,1
-0.0001394379,0.000120839,1,1
-0.0001796301,0.0001597346,1,1
-0.0002280877,0.0001751309,1,1
-0.0002697385,0.0001688103,1,1
-0.0002969654,0.0001462832,1,1
-0.0003099306,0.0001174356,1,1
-0.0003121996,9.247754e-05,1,1
-0.000310741,7.659513e-05,1,1
-0.0003105789,6.670914e-05,1,1
-0.0003087962,6.136099e-05,1,1
-0.0003016653,5.763349e-05,1,1
-0.0002870794,5.56887e-05,1,1
-0.0002600145,5.601284e-05,1,1
-0.0002180396,5.876794e-05,1,1
-0.0001642339,6.217132e-05,1,1
-0.0001107524,6.865393e-05,1,1
-7.736692e-05,7.805372e-05,1,1
-7.720486e-05,8.956036e-05,1,1
-0.0001065387,9.798775e-05,1,1
-0.0001475412,0.0001018773,1,1
-0.0001739578,9.944634e-05,1,1
-0.00016942,8.972242e-05,1,1
-0.0001368449,7.238143e-05,1,1
-8.725291e-05,5.325772e-05,1,1
-3.247483e-05,3.834771e-05,1,1
2.327564e-05,3.510641e-05,1,1
7.772959e-05,4.693717e-05,1,1
0.0001206769,7.416415e-05,1,1
0.0001352628,0.0001069013,1,1
0.0001052807,0.0001279698,1,1
3.008238e-05,0.0001253768,1,1
-7.396356e-05,0.0001012291,1,1
-0.0001840059,6.735741e-05,1,1
-0.0002805968,3.60788e-05,1,1
-0.000350447,1.274139e-05,1,1
-0.0003869116,-1.034161e-06,1,1
-0.0003920977,-6.382317e-06,1,1
-0.0003755671,-7.192643e-06,1,1
-0.0003473677,-7.840905e-06,1,1
-0.0003063652,-8.165035e-06,1,1
-0.0002489941,-8.489166e-06,1,1
-0.0001747682,-1.140634e-05,1,1
-9.260107e-05,-1.707863e-05,1,1
-1.318906e-05,-2.242678e-05,1,1
5.795762e-05,-2.89094e-05,1,1
0.0001174356,-4.122636e-05,1,1
0.0001618415,-5.759496e-05,1,1
0.0001858272,-6.942573e-05,1,1
0.0001902029,-6.893953e-05,1,1
0.0001714034,-5.516398e-05,1,1
0.0001316974,-3.798505e-05,1,1
8.291568e-05,-2.712668e-05,1,1
3.883391e-05,-2.89094e-05,1,1
8.689758e-06,-4.187462e-05,1,1
1.720949e-06,-5.743289e-05,1,1
2.943412e-05,-6.974985e-05,1,1
9.620504e-05,-7.380149e-05,1,1
0.0001851789,-6.861539e-05,1,1
0.0002717218,-5.176061e-05,1,1
0.0003383307,-2.583016e-05,1,1
0.0003754436,2.693341e-06,1,1
0.0003817642,2.197911e-05,1,1
0.000361506,2.441009e-05,1,1
0.0003255275,1.630683e-05,1,1
0.0002872801,7.879432e-06,1,1
0.000254867,6.420843e-06,1,1
0.000230071,1.630683e-05,1,1
0.0002090025,3.235129e-05,1,1
0.0001992786,4.158902e-05,1,1
0.0002135403,3.526847e-05,1,1
0.0002545429,1.419998e-05,1,1
0.0003182346,-1.286493e-05,1,1
0.000388733,-3.571614e-05,1,1
0.0004524247,-5.111234e-05,1,1
0.0005072028,-6.083626e-05,1,1
0.0005545259,-6.06742e-05,1,1
0.0005896941,-4.754691e-05,1,1
0.0006086557,-2.501983e-05,1,1
0.0006060627,-7.100305e-07,1,1
0.0005801322,1.679302e-05,1,1
0.0005394538,2.295151e-05,1,1
0.0004911583,2.457216e-05,1,1
0.0004402698,3.640293e-05,1,1
0.0003867882,6.881599e-05,1,1
0.0003284447,0.0001171115,1,1
0.000277232,0.0001642725,1,1
0.0002483844,0.0001961994,1,1
0.0002525981,0.0002111094,1,1
0.000282256,0.0002141886,1,1
0.0003122381,0.0002106232,1,1
0.0003088348,0.0002041406,1,1
0.0002519498,0.0001968476,1,1
0.0001423936,0.0001867996,1,1
2.623614e-07,0.0001722137,1,1
-0.0001441378,0.0001517934,1,1
-0.0002593663,0.0001245665,1,1
-0.0003224097,9.523264e-05,1,1
-0.0003267854,6.687121e-05,1,1
-0.0002746004,3.705119e-05,1,1
-0.0001822232,4.313994e-06,1,1
-7.882551e-05,-3.393342e-05,1,1
3.989864e-06,-7.671866e-05,1,1
4.531652e-05,-0.0001141558,1,1
4.580272e-05,-0.0001306864,1,1
3.008238e-05,-0.0001146419,1,1
2.570662e-05,-6.942573e-05,1,1
4.612685e-05,-1.059602e-05,1,1
8.939829e-05,5.341979e-05,1,1
0.0001380179,0.0001229458,1,1
0.0001662173,0.0001923098,1,1
0.0001566554,0.0002527602,1,1
0.0001116012,0.0002948972,1,1
5.698522e-05,0.0003148312,1,1
2.505836e-05,0.0003102934,1,1
3.332369e-05,0.0002785285,1,1
7.448828e-05,0.0002193747,1,1
0.0001276457,0.0001425557,1,1
0.0001715654,6.508849e-05,1,1
0.0001866375,3.179537e-06,1,1
0.0001598967,-3.701266e-05,1,1
9.442231e-05,-5.581224e-05,1,1
7.717366e-06,-5.143648e-05,1,1
-7.995997e-05,-3.117831e-05,1,1
-0.0001533756,-1.318906e-05,1,1
-0.0002097743,-1.772689e-05,1,1
-0.0002541802,-4.997789e-05,1,1
-0.0002914552,-9.794922e-05,1,1
-0.0003215994,-0.0001467309,1,1
-0.0003457471,-0.0001828714,1,1
-0.00036795,-0.0001994021,1,1
-0.0003929081,-0.0001951884,1,1
-0.0004222419,-0.0001765509,1,1
-0.0004514136,-0.0001533756,1,1
-0.0004702132,-0.000134738,1,1
-0.0004677822,-0.0001230693,1,1
-0.0004382863,-0.0001175591,1,1
-0.0003856151,-0.0001183694,1,1
-0.0003253268,-0.0001209625,1,1
-0.0002746004,-0.0001203142,1,1
-0.0002455907,-0.0001182074,1,1
-0.0002376495,-0.0001186936,1,1
-0.0002447804,-0.0001259865,1,1
-0.0002635799,-0.0001368449,1,1
-0.0002890242,-0.0001455964,1,1
-0.0003178718,-0.0001499722,1,1
-0.0003468815,-0.0001489998,1,1
-0.0003739464,-0.0001404103,1,1
-0.0003958252,-0.0001248521,1,1
-0.0004107352,-0.0001045939,1,1
-0.0004209454,-8.271508e-05,1,1
-0.0004243487,-6.261898e-05,1,1
-0.0004183523,-4.43056e-05,1,1
-0.0004037664,-2.809907e-05,1,1
-0.0003801049,-1.464765e-05,1,1
-0.000342992,-4.923729e-06,1,1
-0.000301017,3.503668e-06,1,1
-0.0002716832,1.22552e-05,1,1
-0.0002694143,2.408596e-05,1,1
-0.0002864312,3.55926e-05,1,1
-0.0002963172,4.612685e-05,1,1
-0.0002656868,5.098881e-05,1,1
-0.0001763888,5.066468e-05,1,1
-3.344723e-05,4.596478e-05,1,1
0.0001398006,3.883391e-05,1,1
0.0003083486,3.056858e-05,1,1
0.0004345975,2.570662e-05,1,1
0.0004987754,3.299956e-05,1,1
0.0005033132,5.487838e-05,1,1
0.0004696036,8.680524e-05,1,1
0.0004276287,0.0001229458,1,1
0.0004028327,0.0001527658,1,1
0.0004132049,0.000165569,1,1
0.0004590694,0.0001563313,1,1
0.0005303781,0.0001297526,1,1
0.0006065489,0.0001002567,1,1
0.0006653786,8.064677e-05,1,1
0.0006982779,7.708133e-05,1,1
0.0007068674,8.972242e-05,1,1
0.0006981159,0.0001151667,1,1
0.0006775336,0.0001417454,1,1
0.0006446343,0.0001589243,1,1
0.0005971491,0.0001634622,1,1
0.0005401021,0.0001534141,1,1
0.0004820827,0.0001367214,1,1
0.0004381629,0.0001195424,1,1
0.0004211461,0.0001051186,1,1
0.0004295735,9.474644e-05,1,1
0.0004438352,8.696731e-05,1,1
0.0004394595,7.870197e-05,1,1
0.0003979707,7.027458e-05,1,1
0.0003130485,5.99024e-05,1,1
0.0001887444,4.499239e-05,1,1
4.385793e-05,2.603075e-05,1,1
-0.0001020008,6.744974e-06,1,1
-0.0002357047,-2.492749e-06,1,1
-0.0003470436,2.04508e-06,1,1
-0.0004358554,1.873781e-05,1,1
-0.0005024642,4.077869e-05,1,1
-0.0005462218,6.152305e-05,1,1
-0.0005651835,7.935024e-05,1,1
-0.0005621043,9.101894e-05,1,1
-0.0005468701,9.182927e-05,1,1
-0.0005321222,8.194328e-05,1,1
-0.0005215878,6.265751e-05,1,1
-0.000507002,3.413401e-05,1,1
-0.0004749131,-2.006553e-06,1,1
-0.0004241867,-4.349527e-05,1,1
-0.0003681121,-8.417367e-05,1,1
-0.0003190063,-0.0001152902,1,1
-0.0002815692,-0.0001314967,1,1
-0.000261149,-0.0001358725,1,1
-0.0002530457,-0.000134738,1,1
-0.0002509389,-0.0001336036,1,1
-0.0002528836,-0.0001332795,1,1
-0.0002567732,-0.0001340898,1,1
-0.0002627696,-0.0001342519,1,1
-0.0002663351,-0.0001284175,1,1
-0.0002600145,-0.0001133454,1,1
-0.0002399184,-9.227693e-05,1,1
-0.0002151224,-7.396356e-05,1,1
-0.0002010227,-6.407757e-05,1,1
-0.0002047502,-6.245691e-05,1,1
-0.0002224154,-6.423963e-05,1,1
-0.0002407288,-6.731888e-05,1,1
-0.000248832,-6.829127e-05,1,1
-0.000238946,-6.683268e-05,1,1
-0.0002023193,-6.261898e-05,1,1
-0.0001342519,-5.516398e-05,1,1
-3.393342e-05,-4.495386e-05,1,1
9.020862e-05,-3.733679e-05,1,1
0.0002209954,-3.458168e-05,1,1
0.0003357376,-3.296103e-05,1,1
0.0004179048,-2.777494e-05,1,1
0.000465552,-1.821308e-05,1,1
0.0004846757,-2.81688e-06,1,1
0.000485486,1.468618e-05,1,1
0.0004791655,2.927205e-05,1,1
0.0004765725,3.591673e-05,1,1
0.0004786793,3.624086e-05,1,1
0.0004781931,3.348575e-05,1,1
0.0004700898,2.910999e-05,1,1
0.0004545315,2.667901e-05,1,1
0.0004331389,3.364782e-05,1,1
0.000411098,5.406805e-05,1,1
0.0003950536,8.518459e-05,1,1
0.0003866261,0.0001195424,1,1
0.0003799815,0.0001467694,1,1
0.0003655576,0.0001639484,1,1
0.000339141,0.0001736723,1,1
0.0003028383,0.000178048,1,1
0.0002607014,0.0001785342,1,1
0.0002133783,0.0001773998,1,1
0.0001636242,0.0001770756,1,1
0.0001198666,0.0001757791,1,1
8.956036e-05,0.0001717275,1,1
7.108491e-05,0.0001641104,1,1
5.115087e-05,0.0001558451,1,1
2.34377e-05,0.0001519555,1,1
-7.678839e-06,0.0001524417,1,1
-3.652646e-05,0.0001488763,1,1
-5.548811e-05,0.0001368834,1,1
-6.650855e-05,0.0001187321,1,1
-7.590833e-05,0.0001012291,1,1
-8.044617e-05,8.648112e-05,1,1
-7.55842e-05,7.30297e-05,1,1
-6.521203e-05,5.811968e-05,1,1
-6.180866e-05,4.191315e-05,1,1
-7.590833e-05,2.376183e-05,1,1
-0.0001075111,7.393236e-06,1,1
-0.0001530514,-5.57199e-06,1,1
-0.0002010227,-1.25408e-05,1,1
-0.0002344082,-1.092015e-05,1,1
-0.0002433218,-1.682422e-06,1,1
-0.0002352185,1.12828e-05,1,1
-0.0002266291,2.149292e-05,1,1
-0.000238784,2.992031e-05,1,1
-0.0002788141,3.624086e-05,1,1
-0.0003434782,4.142696e-05,1,1
-0.0004206212,4.239934e-05,1,1
-0.0004873921,3.93201e-05,1,1
-0.0005191569,3.283749e-05,1,1
-0.0005013297,2.262738e-05,1,1
-0.0004369898,9.824215e-06,1,1
-0.0003418575,-2.238346e-07,1,1
-0.0002352185,-5.247859e-06,1,1
-0.0001365208,-8.489166e-06,1,1
-5.257093e-05,-1.480971e-05,1,1
2.133085e-05,-2.988179e-05,1,1
8.826383e-05,-5.532604e-05,1,1
0.000145635,-8.222889e-05,1,1
0.0001866375,-0.0001037836,1,1
0.0002070577,-0.0001182074,1,1
0.0002117576,-0.0001287416,1,1
0.0002054371,-0.0001405724,1,1
0.0001867996,-0.0001530514,1,1
0.0001539003,-0.0001645581,1,1
0.0001098185,-0.0001665028,1,1
5.649903e-05,-0.0001464067,1,1
2.531276e-06,-9.324933e-05,1,1
-4.203669e-05,-1.108221e-05,1,1
-7.752899e-05,7.659513e-05,1,1
-0.0001125351,0.000138342,1,1
-0.0001598582,0.0001487142,1,1
-0.0002224154,0.0001043083,1,1
-0.0002930758,2.181705e-05,1,1
-0.0003588744,-7.315322e-05,1,1
-0.0004139766,-0.0001577513,1,1
-0.0004484965,-0.0002188499,1,1
-0.0004515757,-0.0002499665,1,1
-0.0004214316,-0.0002548284,1,1
-0.0003638984,-0.0002446183,1,1
-0.0002971275,-0.0002274394,1,1
-0.0002397564,-0.0002100984,1,1
-0.0002003745,-0.0001968091,1,1
-0.0001734716,-0.0001857886,1,1
-0.0001447861,-0.0001686097,1,1
-9.616651e-05,-0.0001349001,1,1
-1.286493e-05,-8.465986e-05,1,1
0.0001145184,-2.971972e-05,1,1
0.0002778803,1.808955e-05,1,1
0.0004495075,5.293359e-05,1,1
0.0005981215,7.092284e-05,1,1
0.0007024916,7.708133e-05,1,1
0.0007595387,7.789165e-05,1,1
0.0007793107,7.740546e-05,1,1
0.0007749349,8.275361e-05,1,1
0.0007514353,9.63671e-05,1,1
0.0007065432,0.0001172735,1,1
0.0006345862,0.0001440143,1,1
0.000539778,0.0001726999,1,1
0.0004397836,0.0001996027,1,1
0.000354051,0.0002239125,1,1
0.0003023522,0.0002402811,1,1
0.0002914938,0.0002436845,1,1
0.0003099692,0.0002302331,1,1
0.0003389789,0.000205275,1,1
0.000363937,0.0001851789,1,1
0.0003804677,0.0001872858,1,1
0.0003820883,0.0002137024,1,1
0.0003569682,0.0002525981,1,1
0.000304459,0.0002840388,1,1
0.0002333123,0.0002906835,1,1
0.0001647587,0.0002702632,1,1
0.0001106288,0.0002316917,1,1
6.962632e-05,0.0001908512,1,1
3.543054e-05,0.0001576278,1,1
6.582909e-06,0.0001349386,1,1
-1.497178e-05,0.0001216493,1,1
-3.085418e-05,0.0001143563,1,1
-4.462973e-05,0.0001124116,1,1
-7.007399e-05,0.0001130598,1,1
-0.0001104282,0.000113546,1,1
-0.0001596961,0.000110953,1,1
-0.0002049123,0.0001041462,1,1
-0.0002357047,8.826383e-05,1,1
-0.0002472114,6.670914e-05,1,1
-0.0002355427,4.337174e-05,1,1
-0.0002047502,2.441009e-05,1,1
-0.000166989,1.1769e-05,1,1
-0.0001355484,3.989864e-06,1,1
-0.0001170729,-2.978945e-06,1,1
-0.0001114006,-1.318906e-05,1,1
-0.0001131834,-2.874733e-05,1,1
-0.0001125351,-4.997789e-05,1,1
-9.616651e-05,-7.396356e-05,1,1
-5.581224e-05,-9.746302e-05,1,1
6.420843e-06,-0.0001180453,1,1
6.83298e-05,-0.0001327933,1,1
9.863601e-05,-0.0001426792,1,1
7.57848e-05,-0.0001501342,1,1
5.772582e-06,-0.0001554824,1,1
-8.465986e-05,-0.0001553203,1,1
-0.0001665028,-0.0001491618,1,1
-0.0002324634,-0.000142031,1,1
-0.0002848105,-0.0001397621,1,1
-0.0003308371,-0.0001418689,1,1
-0.0003744326,-0.0001478653,1,1
-0.0004087905,-0.0001572651,1,1
-0.0004267797,-0.0001648822,1,1
-0.0004309934,-0.0001671511,1,1
-0.0004305072,-0.0001590478,1,1
-0.0004284004,-0.0001421931,1,1
-0.0004220798,-0.0001248521,1,1
-0.0004031182,-0.0001144799,1,1
-0.0003648708,-0.0001109144,1,1
-0.0003053928,-0.0001092938,1,1
-0.0002318152,-9.973194e-05,1,1
-0.0001525652,-7.833932e-05,1,1
-7.639453e-05,-5.354332e-05,1,1
-1.043395e-05,-3.539201e-05,1,1
4.515445e-05,-3.26369e-05,1,1
0.0001064152,-4.495386e-05,1,1
0.0001913374,-6.586029e-05,1,1
0.0003064038,-8.433573e-05,1,1
0.0004380009,-9.098041e-05,1,1
0.0005616568,-8.919769e-05,1,1
0.0006522514,-8.482193e-05,1,1
0.000681099,-8.222889e-05,1,1
0.0006306967,-7.898758e-05,1,1
0.0005078511,-6.699475e-05,1,1
0.0003410858,-4.05781e-05,1,1
0.0001689724,-1.682422e-06,1,1
2.441009e-05,4.466826e-05,1,1
-7.931171e-05,9.020862e-05,1,1
-0.0001408965,0.0001292664,1,1
-0.0001660166,0.0001550348,1,1
-0.0001656925,0.0001658931,1,1
-0.0001546721,0.0001658931,1,1
-0.000144462,0.0001665414,1,1
-0.0001381414,0.0001726999,1,1
-0.0001248521,0.0001850168,1,1
-9.179074e-05,0.0001970097,1,1
-4.349527e-05,0.0002020337,1,1
1.063454e-05,0.0001981441,1,1
5.52025e-05,0.0001850168,1,1
7.837785e-05,0.0001663793,1,1
7.400208e-05,0.0001540623,1,1
4.288554e-05,0.0001492004,1,1
-7.840905e-06,0.0001467694,1,1
-5.548811e-05,0.0001427178,1,1
-7.299116e-05,0.0001386662,1,1
-4.138842e-05,0.0001352628,1,1
2.992031e-05,0.0001321835,1,1
0.0001083599,0.0001286181,1,1
0.0001626518,0.0001231079,1,1
0.0001767515,0.0001138702,1,1
0.0001547106,0.0001015532,1,1
0.0001146805,8.972242e-05,1,1
7.999851e-05,8.356394e-05,1,1
6.78436e-05,8.145709e-05,1,1
8.486046e-05,8.437427e-05,1,1
0.0001295905,9.118101e-05,1,1
0.000187772,0.0001030118,1,1
0.0002386605,0.0001171115,1,1
0.000264753,0.0001320215,1,1
0.0002472499,0.0001487142,1,1
0.0001811273,0.0001686482,1,1
8.161915e-05,0.0001848548,1,1
-2.015787e-05,0.0001874478,1,1
-9.778715e-05,0.0001728619,1,1
-0.0001430034,0.0001410971,1,1
-0.0001660166,9.588091e-05,1,1
-0.0001875713,4.288554e-05,1,1
-0.0002230636,-1.529591e-05,1,1
-0.0002720074,-7.817725e-05,1,1
-0.0003275957,-0.0001415448,1,1
-0.0003814014,-0.0001987538,1,1
-0.0004240246,-0.000246401,1,1
-0.0004463896,-0.0002809209,1,1
-0.0004455793,-0.0003019894,1,1
-0.0004262935,-0.0003115513,1,1
-0.0003995528,-0.0003146305,1,1
-0.0003713534,-0.0003185201,1,1
-0.0003486642,-0.0003241924,1,1
-0.000338292,-0.0003206269,1,1
-0.0003446126,-0.0002914552,1,1
-0.0003669776,-0.0002332737,1,1
-0.0004023079,-0.0001608306,1,1
-0.0004392588,-9.276313e-05,1,1
-0.000457248,-4.446767e-05,1,1
-0.0004403932,-2.339918e-05,1,1
-0.0003862634,-2.631635e-05,1,1
-0.0003110651,-4.398147e-05,1,1
-0.0002326255,-6.699475e-05,1,1
-0.000161965,-8.611845e-05,1,1
-9.486997e-05,-9.503204e-05,1,1
-2.145439e-05,-9.211487e-05,1,1
6.087479e-05,-8.336335e-05,1,1
0.000150659,-7.444975e-05,1,1
0.0002402811,-6.942573e-05,1,1
0.0003205035,-6.991193e-05,1,1
0.0003866261,-7.299116e-05,1,1
0.0004381629,-7.137051e-05,1,1
0.0004731691,-6.0188e-05,1,1
0.0004890515,-4.009191e-05,1,1
0.000482893,-1.3027e-05,1,1
0.0004517764,1.744129e-05,1,1
0.0003971604,4.758544e-05,1,1
0.0003297412,7.30297e-05,1,1
0.0002686426,8.972242e-05,1,1
0.0002355812,9.814982e-05,1,1
0.0002422259,0.0001062531,1,1
0.000289387,0.0001175977,1,1
0.0003626405,0.0001320215,1,1
0.0004380009,0.0001464453,1,1
0.000490348,0.000158114,1,1
0.0005005581,0.0001624898,1,1
0.0004665244,0.0001563313,1,1
0.0004072085,0.0001466074,1,1
0.0003456236,0.0001414213,1,1
0.0003002453,0.0001425557,1,1
0.0002756114,0.0001488763,1,1
0.000262322,0.000155521,1,1
0.0002514636,0.0001576278,1,1
0.0002362295,0.0001509831,1,1
0.0002128921,0.000135911,1,1
0.0001764274,0.0001231079,1,1
0.0001271595,0.0001174356,1,1
7.140904e-05,0.0001216493,1,1
3.056858e-05,0.0001336421,1,1
2.716521e-05,0.0001480659,1,1
6.800567e-05,0.0001592484,1,1
0.0001368834,0.0001644345,1,1
0.0002090025,0.0001671896,1,1
0.0002613496,0.000170431,1,1
0.0002850112,0.0001702689,1,1
0.0002803113,0.0001628139,1,1
0.0002461155,0.0001467694,1,1
0.0001837203,0.0001247285,1,1
0.0001004187,0.0001009049,1,1
1.501031e-05,7.772959e-05,1,1
-4.85193e-05,5.163707e-05,1,1
-7.817725e-05,1.987227e-05,1,1
-8.093236e-05,-1.821308e-05,1,1
-8.07703e-05,-6.472583e-05,1,1
-9.924574e-05,-0.0001191798,1,1
-0.0001436516,-0.0001797922,1,1
-0.0002050744,-0.0002311669,1,1
-0.000266173,-0.0002520733,1,1
-0.00030831,-0.0002243602,1,1
-0.0003225718,-0.0001449482,1,1
-0.0003201407,-2.826114e-05,1,1
-0.0003214373,9.182927e-05,1,1
-0.0003426678,0.0001819376,1,1
-0.0003857772,0.0002287745,1,1
-0.0004361795,0.0002372019,1,1
-0.0004711856,0.0002211574,1,1
-0.0004742648,0.0001910133,1,1
-0.0004470379,0.0001498487,1,1
-0.0004039285,9.896015e-05,1,1
-0.0003648708,4.418206e-05,1,1
-0.000335537,-1.010982e-05,1,1
-0.000303286,-5.937768e-05,1,1
-0.0002535319,-9.746302e-05,1,1
-0.0001836818,-0.0001183694,1,1
-0.0001044318,-0.0001211246,1,1
-3.490581e-05,-0.0001114006,1,1
7.23117e-06,-0.0001003802,1,1
2.262738e-05,-9.616651e-05,1,1
2.262738e-05,-0.0001008664,1,1
2.214118e-05,-0.0001149661,1,1
2.992031e-05,-0.0001310105,1,1
5.001642e-05,-0.0001421931,1,1
8.74535e-05,-0.0001467309,1,1
0.0001427178,-0.0001451102,1,1
0.0002054371,-0.0001373311,1,1
0.0002657254,-0.0001248521,1,1
0.0003229345,-0.0001107524,1,1
0.0003816021,-9.681477e-05,1,1
0.0004469145,-8.628052e-05,1,1
0.0005156302,-7.785312e-05,1,1
0.0005730013,-7.169464e-05,1,1
0.0006028214,-6.326724e-05,1,1
0.0005885597,-5.159854e-05,1,1
0.0005200059,-3.393342e-05,1,1
0.0003969983,-1.286493e-05,1,1
0.0002420638,1.290346e-05,1,1
8.826383e-05,4.304761e-05,1,1
-3.863332e-05,7.67572e-05,1,1
-0.0001212866,0.0001104668,1,1
-0.0001587237,0.0001378558,1,1
-0.000164396,0.0001537382,1,1
-0.0001538618,0.0001573037,1,1
-0.0001394379,0.0001527658,1,1
-0.0001253383,0.0001441764,1,1
-0.0001078352,0.0001334801,1,1
-7.623246e-05,0.0001198666,1,1
-2.7937e-05,0.000103498,1,1
3.008238e-05,9.053275e-05,1,1
9.26396e-05,8.210535e-05,1,1
0.000155683,8.032264e-05,1,1
0.0002046267,8.518459e-05,1,1
0.0002307193,9.458438e-05,1,1
0.0002415777,0.0001046324,1,1
0.0002472499,0.0001151667,1,1
0.0002555152,0.0001257009,1,1
0.0002678322,0.0001380179,1,1
0.0002827423,0.0001511452,1,1
0.0003017039,0.0001602208,1,1
0.0003253654,0.0001590864,1,1
0.0003449753,0.0001451488,1,1
0.0003423823,0.0001245665,1,1
0.0003077003,0.0001013911,1,1
0.000249843,8.016057e-05,1,1
0.0001931201,6.006447e-05,1,1
0.0001535762,4.110282e-05,1,1
0.0001252147,2.408596e-05,1,1
8.486046e-05,1.290346e-05,1,1
1.663096e-05,1.112074e-05,1,1
-7.688073e-05,1.614476e-05,1,1
-0.0001846542,2.214118e-05,1,1
-0.0002948586,2.246531e-05,1,1
-0.0003946908,1.095867e-05,1,1
-0.0004689167,-9.623623e-06,1,1
-0.0005086227,-3.101625e-05,1,1
-0.0005128364,-4.592625e-05,1,1
-0.0004906334,-5.192267e-05,1,1
-0.0004583824,-5.500191e-05,1,1
-0.0004400691,-5.921561e-05,1,1
-0.0004515757,-6.294311e-05,1,1
-0.0004859335,-6.148453e-05,1,1
-0.0005207775,-5.078821e-05,1,1
-0.0005434667,-3.587821e-05,1,1
-0.0005549733,-2.485776e-05,1,1
-0.0005695592,-1.950961e-05,1,1
-0.0005951655,-1.740276e-05,1,1
-0.0006232028,-1.351319e-05,1,1
-0.0006324406,-8.165035e-06,1,1
-0.0006039171,-5.57199e-06,1,1
-0.0005347152,-1.432352e-05,1,1
-0.0004418518,-3.911951e-05,1,1
-0.0003517435,-7.542214e-05,1,1
-0.0002865932,-0.0001120489,1,1
-0.0002541802,-0.0001397621,1,1
-0.0002444563,-0.0001582375,1,1
-0.0002321393,-0.000166989,1,1
-0.0001930815,-0.0001605064,1,1
-0.0001227452,-0.0001384655,1,1
-3.490581e-05,-0.0001042698,1,1
5.19612e-05,-6.375344e-05,1,1
0.0001302388,-3.020592e-05,1,1
0.000200251,-1.092015e-05,1,1
0.0002652392,-7.354709e-06,1,1
0.0003287688,-1.594417e-05,1,1
0.0003905157,-3.020592e-05,1,1
0.000443187,-4.300908e-05,1,1
0.0004749518,-4.884343e-05,1,1
0.0004786793,-5.030202e-05,1,1
0.0004533971,-4.932962e-05,1,1
0.0004080188,-4.884343e-05,1,1
0.0003618301,-5.176061e-05,1,1
0.000331848,-5.759496e-05,1,1
0.0003346032,-6.731888e-05,1,1
0.0003773884,-8.012204e-05,1,1
0.0004504799,-8.871149e-05,1,1
0.0005222749,-8.952183e-05,1,1
0.0005550121,-8.044617e-05,1,1
0.0005230852,-6.375344e-05,1,1
0.0004200116,-4.414354e-05,1,1
0.0002663737,-2.599222e-05,1,1
9.31258e-05,-9.299493e-06,1,1
-6.958779e-05,7.393236e-06,1,1
-0.0002003745,2.262738e-05,1,1
-0.0002796244,3.705119e-05,1,1
-0.0002953447,5.714729e-05,1,1
-0.0002478596,9.199134e-05,1,1
-0.0001512687,0.0001406109,1,1
-2.907146e-05,0.0001924718,1,1
9.53947e-05,0.0002342847,1,1
0.0002124059,0.0002577842,1,1
0.0003214759,0.000259891,1,1
0.0004326527,0.0002431983,1,1
0.0005470709,0.0002171058,1,1
0.0006498204,0.0001918236,1,1
0.0007136742,0.0001725378,1,1
0.0007177258,0.0001587623,1,1
0.0006587339,0.0001464453,1,1
0.0005460985,0.000135911,1,1
0.0004005638,0.000128456,1,1
0.0002504913,0.0001203528,1,1
0.0001180839,0.0001132219,1,1
1.1769e-05,0.0001090082,1,1
-6.472583e-05,0.0001091703,1,1
-0.0001170729,0.0001122495,1,1
-0.0001551583,0.0001175977,1,1
-0.0001875713,0.0001232699,1,1
-0.0002182017,0.0001269974,1,1
-0.0002543422,0.0001274836,1,1
-0.0002937241,0.0001222976,1,1
-0.0003188442,0.0001107909,1,1
-0.0003019894,9.571884e-05,1,1
-0.000231491,7.789165e-05,1,1
-0.0001191798,5.779555e-05,1,1
4.47606e-06,3.834771e-05,1,1
0.0001047945,2.068259e-05,1,1
0.0001594105,7.069105e-06,1,1
0.0001699448,-1.520357e-06,1,1
0.0001548727,-7.678839e-06,1,1
0.0001321835,-1.351319e-05,1,1
0.0001065772,-1.805102e-05,1,1
7.594687e-05,-2.210265e-05,1,1
3.93201e-05,-2.874733e-05,1,1
-6.868513e-06,-4.090223e-05,1,1
-6.310517e-05,-5.727083e-05,1,1
-0.0001212866,-7.266703e-05,1,1
-0.0001715269,-8.417367e-05,1,1
-0.0002068571,-9.503204e-05,1,1
-0.0002229016,-0.0001086455,1,1
-0.0002172293,-0.0001230693,1,1
-0.000191785,-0.0001366828,1,1
-0.0001574272,-0.0001464067,1,1
-0.0001276072,-0.0001509446,1,1
-0.0001125351,-0.0001525652,1,1
-0.0001139937,-0.0001574272,1,1
-0.0001352242,-0.0001635857,1,1
-0.0001763888,-0.000166989,1,1
-0.0002290601,-0.0001661787,1,1
-0.000281083,-0.0001621271,1,1
-0.0003240303,-0.0001562927,1,1
-0.0003496366,-0.0001502963,1,1
-0.0003557951,-0.0001400862,1,1
-0.0003454229,-0.0001258245,1,1
-0.0003253268,-0.0001105903,1,1
-0.0002997205,-9.503204e-05,1,1
-0.0002771934,-8.287715e-05,1,1
-0.0002695764,-7.65566e-05,1,1
-0.0002836761,-8.060823e-05,1,1
-0.0003149546,-9.081835e-05,1,1
-0.0003525538,-0.0001024871,1,1
-0.0003846427,-0.0001102662,1,1
-0.0004057112,-0.0001128592,1,1
-0.0004181903,-0.0001084835,1,1
-0.0004279142,-9.713889e-05,1,1
-0.0004408794,-7.850138e-05,1,1
-0.0004590307,-5.062615e-05,1,1
-0.0004799371,-2.129233e-05,1,1
-0.0004992229,1.234753e-06,1,1
-0.0005082985,1.436204e-05,1,1
-0.0004914437,1.857574e-05,1,1
-0.0004365036,2.197911e-05,1,1
-0.00033813,3.283749e-05,1,1
-0.000199078,5.94162e-05,1,1
-3.604027e-05,0.0001043083,1,1
0.0001224596,0.0001579519,1,1
0.0002532463,0.0002039785,1,1
0.0003521062,0.000225209,1,1
0.0004290873,0.0002166196,1,1
0.0004895377,0.0001872858,1,1
0.000530054,0.0001539003,1,1
0.0005426951,0.0001269974,1,1
0.0005198439,0.0001143563,1,1
0.0004611762,0.0001166253,1,1
0.0003825745,0.0001299146,1,1
0.0003114278,0.0001441764,1,1
0.0002681563,0.0001558451,1,1
0.0002607014,0.0001654069,1,1
0.0002829043,0.0001775618,1,1
0.0003227724,0.0001914995,1,1
0.0003657197,0.0002044647,1,1
0.0004015361,0.0002146748,1,1
0.0004271425,0.0002216436,1,1
0.0004456179,0.0002237505,1,1
0.0004676588,0.0002211574,1,1
0.0005081752,0.0002114335,1,1
0.0005749461,0.0001950649,1,1
0.0006569512,0.0001743205,1,1
0.0007289083,0.0001550348,1,1
0.0007609973,0.0001425557,1,1
0.0007349047,0.0001386662,1,1
0.0006493342,0.00013818,1,1
0.0005247059,0.0001365593,1,1
0.0003840331,0.0001313732,1,1
0.0002487085,0.0001205148,1,1
0.0001281319,0.0001047945,1,1
1.97102e-05,8.858796e-05,1,1
-7.785312e-05,7.319176e-05,1,1
-0.0001715269,6.006447e-05,1,1
-0.000268604,4.628891e-05,1,1
-0.0003749188,2.829966e-05,1,1
-0.0004873921,5.934648e-06,1,1
-0.0005880346,-1.189254e-05,1,1
-0.0006586951,-1.99958e-05,1,1
-0.0006915944,-2.372331e-05,1,1
-0.0006878669,-3.134038e-05,1,1
-0.0006525366,-4.673658e-05,1,1
-0.0005872243,-6.423963e-05,1,1
-0.0004919299,-7.866345e-05,1,1
-0.000370381,-9.19528e-05,1,1
-0.000236353,-0.0001062146,1,1
-0.0001010285,-0.0001204763,1,1
3.024445e-05,-0.0001344139,1,1
0.0001592484,-0.0001462447,1,1
0.0002791768,-0.0001575893,1,1
0.0003772264,-0.0001708786,1,1
0.0004415663,-0.0001857886,1,1
0.0004658761,-0.00019924,1,1
0.0004610142,-0.0002105846,1,1
0.0004564763,-0.0002185258,1,1
0.0004759242,-0.0002237119,1,1
0.0005119027,-0.0002183637,1,1
0.0005441537,-0.000194216,1,1
0.0005537156,-0.0001491618,1,1
0.0005360505,-8.757704e-05,1,1
0.0005000719,-2.501983e-05,1,1
0.000458097,2.214118e-05,1,1
0.0004127187,4.304761e-05,1,1
0.0003608578,4.256141e-05,1,1
0.0002997591,3.024445e-05,1,1
0.000230071,1.565857e-05,1,1
0.0001498487,3.827799e-06,1,1
4.969229e-05,-2.330684e-06,1,1
-7.542214e-05,-2.238346e-07,1,1
-0.0002152845,8.689758e-06,1,1
-0.0003566054,1.97102e-05,1,1
-0.0004841508,2.181705e-05,1,1
-0.0005831727,7.069105e-06,1,1
-0.0006428128,-2.210265e-05,1,1
-0.0006629088,-4.90055e-05,1,1
-0.0006570745,-6.083626e-05,1,1
-0.000638599,-5.500191e-05,1,1
-0.0006165582,-3.928157e-05,1,1
-0.0005854416,-2.46957e-05,1,1
-0.0005355255,-1.480971e-05,1,1
-0.0004638926,-7.192643e-06,1,1
-0.0003779981,2.369211e-06,1,1
-0.000293562,1.808955e-05,1,1
-0.0002293842,3.721326e-05,1,1
-0.0001977815,5.714729e-05,1,1
-0.0001959987,8.129502e-05,1,1
-0.0002120432,0.0001137081,1,1
-0.0002256567,0.0001504969,1,1
-0.0002118811,0.0001837203,1,1
-0.0001556445,0.0002059233,1,1
-5.467778e-05,0.0002120818,1,1
7.918817e-05,0.0002039785,1,1
0.000217754,0.0001887444,1,1
0.0003355756,0.0001741585,1,1
0.0004196875,0.0001645966,1,1
0.000475438,0.0001574657,1,1
0.000520168,0.0001496866,1,1
0.0005707325,0.00013818,1,1
0.0006310208,0.000121001,1,1
0.0006976296,9.490851e-05,1,1
0.0007621317,6.622294e-05,1,1
0.0008157754,4.110282e-05,1,1
0.0008486747,2.246531e-05,1,1
0.000849485,8.041497e-06,1,1
0.0008112376,-4.923729e-06,1,1
0.0007311772,-1.740276e-05,1,1
0.000616597,-2.874733e-05,1,1
0.0004843516,-3.992984e-05,1,1
0.0003550234,-5.22468e-05,1,1
0.0002406053,-5.889148e-05,1,1
0.0001496866,-4.932962e-05,1,1
8.583286e-05,-1.821308e-05,1,1
3.494434e-05,3.299956e-05,1,1
-2.745081e-05,9.247754e-05,1,1
-0.0001191798,0.0001423936,1,1
-0.0002412149,0.0001628139,1,1
-0.0003750809,0.0001487142,1,1
-0.0004937127,0.0001072255,1,1
-0.0005755557,5.504044e-05,1,1
-0.0006180168,8.203562e-06,1,1
-0.0006240131,-2.210265e-05,1,1
-0.0005995413,-3.409549e-05,1,1
-0.0005480045,-3.377136e-05,1,1
-0.0004718339,-3.004385e-05,1,1
-0.0003814014,-2.939559e-05,1,1
-0.0002922655,-3.490581e-05,1,1
-0.0002276015,-4.592625e-05,1,1
-0.0002058847,-5.856735e-05,1,1
-0.0002293842,-7.072225e-05,1,1
-0.0002851347,-8.222889e-05,1,1
-0.000345585,-9.130454e-05,1,1
-0.0003791325,-9.973194e-05,1,1
-0.0003621157,-0.0001115627,1,1
-0.0002914552,-0.0001263107,1,1
-0.0001968091,-0.0001417068,1,1
-0.0001217728,-0.0001499722,1,1
-9.762509e-05,-0.0001462447,1,1
-0.0001261486,-0.0001306864,1,1
-0.0001840059,-0.0001141558,1,1
-0.0002386219,-0.0001029732,1,1
-0.000266173,-9.892161e-05,1,1
-0.0002592042,-9.956988e-05,1,1
-0.0002241981,-0.0001000561,1,1
-0.0001729855,-9.713889e-05,1,1
-0.0001219349,-8.968389e-05,1,1
-8.854943e-05,-7.477388e-05,1,1
-7.833932e-05,-5.613637e-05,1,1
-7.444975e-05,-4.625038e-05,1,1
-5.710876e-05,-4.90055e-05,1,1
-1.497178e-05,-5.872941e-05,1,1
3.850978e-05,-6.456377e-05,1,1
8.259155e-05,-6.148453e-05,1,1
0.0001054428,-5.046408e-05,1,1
0.0001077117,-3.620233e-05,1,1
0.0001009049,-2.372331e-05,1,1
9.409818e-05,-1.367526e-05,1,1
9.766362e-05,-4.437533e-06,1,1
0.0001107909,9.175954e-06,1,1
0.0001269974,3.170304e-05,1,1
0.0001385041,6.200925e-05,1,1
0.0001414213,8.988449e-05,1,1
0.0001342904,0.0001052807,1,1
0.0001150046,0.0001072255,1,1
8.259155e-05,9.863601e-05,1,1
3.510641e-05,8.518459e-05,1,1
-1.853722e-05,6.978839e-05,1,1
-6.197072e-05,5.925414e-05,1,1
-7.574627e-05,5.811968e-05,1,1
-5.840528e-05,6.751948e-05,1,1
-2.113026e-05,9.020862e-05,1,1
2.197911e-05,0.0001255389,1,1
6.168512e-05,0.0001712413,1,1
9.26396e-05,0.0002237505,1,1
0.0001153287,0.000272208,1,1
0.0001315353,0.0003091589,1,1
0.0001440143,0.0003342791,1,1
0.000153252,0.0003474063,1,1
0.0001594105,0.0003427064,1,1
0.0001684862,0.0003195311,1,1
0.0001848548,0.0002832284,1,1
0.0002133783,0.0002440086,1,1
0.0002503292,0.0002119197,1,1
0.0002876042,0.0001918236,1,1
0.0003030004,0.0001856651,1,1
0.0002801492,0.0001900409,1,1
0.0002213195,0.0001940925,1,1
0.0001469315,0.0001885823,1,1
7.384002e-05,0.0001723757,1,1
7.717366e-06,0.0001474177,1,1
-4.641245e-05,0.0001146805,1,1
-8.417367e-05,8.097089e-05,1,1
-9.973194e-05,5.52025e-05,1,1
-9.389759e-05,4.191315e-05,1,1
-8.141856e-05,3.996837e-05,1,1
-8.676672e-05,4.434413e-05,1,1
-0.0001238797,4.596478e-05,1,1
-0.0001799543,3.802358e-05,1,1
-0.0002293842,1.760335e-05,1,1
-0.0002593663,-1.140634e-05,1,1
-0.0002720074,-4.333321e-05,1,1
-0.0002689281,-7.153257e-05,1,1
-0.0002415391,-9.470791e-05,1,1
-0.0001789819,-0.0001164247,1,1
-9.130454e-05,-0.0001373311,1,1
-7.030578e-06,-0.0001532135,1,1
4.82337e-05,-0.0001614788,1,1
6.83298e-05,-0.0001632615,1,1
6.136099e-05,-0.0001622891,1,1
3.915804e-05,-0.0001645581,1,1
1.22552e-05,-0.0001708786,1,1
-9.785688e-06,-0.0001750923,1,1
-2.210265e-05,-0.0001739578,1,1
-2.129233e-05,-0.0001705545,1,1
-7.840905e-06,-0.0001660166,1,1
1.565857e-05,-0.0001606685,1,1
4.82337e-05,-0.0001551583,1,1
8.664318e-05,-0.0001502963,1,1
0.0001266733,-0.000149486,1,1
0.0001624898,-0.0001571031,1,1
0.0001861513,-0.0001715269,1,1
0.0001906891,-0.0001741199,1,1
0.0001707551,-0.0001467309,1,1
0.0001271595,-9.098041e-05,1,1
7.270556e-05,-3.150244e-05,1,1
2.797553e-05,8.041497e-06,1,1
7.393236e-06,1.857574e-05,1,1
1.565857e-05,7.555301e-06,1,1
4.855783e-05,-1.140634e-05,1,1
9.717743e-05,-2.761287e-05,1,1
0.0001500107,-3.749886e-05,1,1
0.0001945787,-3.960571e-05,1,1
0.0002231022,-3.506788e-05,1,1
0.0002255332,-2.615429e-05,1,1
0.0001994406,-1.351319e-05,1,1
0.0001524417,-2.492749e-06,1,1
0.0001049566,6.420843e-06,1,1
7.481241e-05,1.727922e-05,1,1
7.335383e-05,2.927205e-05,1,1
9.814982e-05,4.013043e-05,1,1
0.00013818,4.953022e-05,1,1
0.0001848548,5.633696e-05,1,1
0.000237526,6.136099e-05,1,1
0.0002937627,6.962632e-05,1,1
0.000344165,8.372601e-05,1,1
0.0003846814,0.0001026876,1,1
0.0004055878,0.0001226217,1,1
0.0003994293,0.0001394765,1,1
0.0003623164,0.0001493625,1,1
0.0003004074,0.0001513072,1,1
0.0002299089,0.0001475797,1,1
0.0001654069,0.0001399627,1,1
0.0001104668,0.0001300767,1,1
6.606088e-05,0.000121001,1,1
2.39239e-05,0.0001145184,1,1
-2.485776e-05,0.0001127357,1,1
-8.093236e-05,0.0001169494,1,1
-0.0001430034,0.0001227837,1,1
-0.0002039399,0.0001263492,1,1
-0.0002522354,0.0001229458,1,1
-0.0002789762,0.0001112771,1,1
-0.000285945,9.426025e-05,1,1
-0.0002776796,8.080883e-05,1,1
-0.0002574215,7.400208e-05,1,1
-0.0002305186,7.173317e-05,1,1
-0.0002086398,6.962632e-05,1,1
-0.0001898403,6.768154e-05,1,1
-0.0001676373,6.444023e-05,1,1
-0.0001352242,5.763349e-05,1,1
-9.179074e-05,4.677511e-05,1,1
-4.041603e-05,3.154097e-05,1,1
1.403791e-05,1.419998e-05,1,1
6.379197e-05,3.665733e-06,1,1
0.0001020394,1.338965e-05,1,1
0.0001216493,4.661304e-05,1,1
0.0001244044,9.231547e-05,1,1
0.0001164632,0.000130725,1,1
0.0001081979,0.0001446626,1,1
0.0001044704,0.0001281319,1,1
0.0001051186,8.923623e-05,1,1
0.0001015532,3.98063e-05,1,1
8.712937e-05,-1.124428e-05,1,1
5.682316e-05,-5.970181e-05,1,1
6.582909e-06,-0.0001032974,1,1
-6.504996e-05,-0.0001408965,1,1
-0.0001489998,-0.0001686097,1,1
-0.0002301945,-0.0001851404,1,1
-0.0002951827,-0.0001925954,1,1
-0.0003361852,-0.0001904885,1,1
-0.0003517435,-0.0001862748,1,1
-0.000342992,-0.0001864369,1,1
-0.0003144685,-0.0001919471,1,1
-0.0002729798,-0.0001968091,1,1
-0.0002177155,-0.0001956746,1,1
-0.0001402483,-0.0001848162,1,1
-3.717473e-05,-0.000166989,1,1
8.129502e-05,-0.0001477033,1,1
0.0001979821,-0.0001293899,1,1
0.000299435,-0.0001149661,1,1
0.0003749574,-0.0001084835,1,1
0.0004177427,-0.0001062146,1,1
0.0004213082,-0.0001063766,1,1
0.0003885709,-0.0001065387,1,1
0.0003289309,-0.0001088076,1,1
0.0002571359,-0.0001159385,1,1
0.0001861513,-0.0001238797,1,1
0.0001245665,-0.0001263107,1,1
7.546067e-05,-0.0001188556,1,1
3.802358e-05,-9.940781e-05,1,1
1.403791e-05,-7.153257e-05,1,1
5.286387e-06,-4.349527e-05,1,1
7.393236e-06,-2.194059e-05,1,1
1.484824e-05,-8.327101e-06,1,1
2.246531e-05,4.244267e-07,1,1
2.586868e-05,8.689758e-06,1,1
2.586868e-05,1.889987e-05,1,1
1.938607e-05,3.056858e-05,1,1
-1.844488e-06,4.466826e-05,1,1
-4.041603e-05,6.168512e-05,1,1
-8.806324e-05,7.999851e-05,1,1
-0.0001336036,9.68533e-05,1,1
-0.00016942,0.000108522,1,1
-0.0001972953,0.0001172735,1,1
-0.0002185258,0.0001274836,1,1
-0.0002332737,0.000140773,1,1
-0.0002395943,0.0001547106,1,1
-0.0002371633,0.0001647587,1,1
-0.0002217671,0.0001702689,1,1
-0.0001912988,0.0001733481,1,1
-0.0001447861,0.0001756171,1,1
-9.794922e-05,0.0001770756,1,1
-7.169464e-05,0.0001817755,1,1
-8.060823e-05,0.0001874478,1,1
-0.0001318209,0.0001885823,1,1
-0.0002290601,0.0001808031,1,1
-0.0003566054,0.0001670276,1,1
-0.0004878783,0.0001547106,1,1
-0.0005954896,0.0001503349,1,1
-0.000655778,0.0001517934,1,1
-0.0006561021,0.000158114,1,1
-0.000589007,0.0001647587,1,1
-0.0004635685,0.0001662173,1,1
-0.0003049066,0.0001569795,1,1
-0.0001477033,0.000138342,1,1
-1.124428e-05,0.0001188942,1,1
0.0001012291,0.0001062531,1,1
0.0001880961,9.766362e-05,1,1
0.0002459534,8.696731e-05,1,1
0.0002756114,7.351589e-05,1,1
0.0002817699,6.006447e-05,1,1
0.0002686426,4.709924e-05,1,1
0.0002483844,3.753739e-05,1,1
0.0002363916,3.413401e-05,1,1
0.0002396328,3.640293e-05,1,1
0.0002521119,4.061663e-05,1,1
0.0002626462,3.915804e-05,1,1
0.0002589186,3.073064e-05,1,1
0.0002394708,1.987227e-05,1,1
0.0002156472,9.500085e-06,1,1
0.0002124059,7.485573e-07,1,1
0.000249843,-9.461558e-06,1,1
0.0003307136,-2.566809e-05,1,1
0.0004352458,-4.868137e-05,1,1
0.0005363746,-7.153257e-05,1,1
0.000606711,-8.838737e-05,1,1
0.0006282657,-9.811128e-05,1,1
0.0005997422,-9.956988e-05,1,1
0.0005319988,-9.422172e-05,1,1
0.000448211,-8.158062e-05,1,1
0.0003722023,-6.342931e-05,1,1
0.0003208276,-4.85193e-05,1,1
0.0002923041,-4.576419e-05,1,1
0.0002741528,-5.970181e-05,1,1
0.0002504913,-8.563225e-05,1,1
0.0002265056,-0.000114804,1,1
0.000220023,-0.0001360346,1,1
0.0002427121,-0.0001452723,1,1
0.0002807975,-0.0001511067,1,1
0.000309483,-0.0001603444,1,1
0.0003148312,-0.0001729855,1,1
0.0002989488,-0.0001831956,1,1
0.0002723701,-0.0001835197,1,1
0.0002360674,-0.0001726613,1,1
0.0001892305,-0.0001559686,1,1
0.0001398006,-0.0001407345,1,1
0.0001004187,-0.0001329553,1,1
7.659513e-05,-0.000132145,1,1
5.763349e-05,-0.0001282554,1,1
2.34377e-05,-0.0001131834,1,1
-4.219875e-05,-8.709085e-05,1,1
-0.0001376552,-5.808115e-05,1,1
-0.0002442942,-3.571614e-05,1,1
-0.0003368335,-2.46957e-05,1,1
-0.0003925839,-2.226472e-05,1,1
-0.0004068457,-1.99958e-05,1,1
-0.0003937184,-9.785688e-06,1,1
-0.0003737844,7.879432e-06,1,1
-0.0003692465,2.489629e-05,1,1
-0.0003835083,3.899597e-05,1,1
-0.0004065215,5.017848e-05,1,1
-0.0004185144,5.957827e-05,1,1
-0.0004092767,6.914012e-05,1,1
-0.0003797808,7.772959e-05,1,1
-0.0003269475,8.648112e-05,1,1
-0.0002417012,9.896015e-05,1,1
-0.000117235,0.0001143563,1,1
2.76514e-05,0.0001300767,1,1
0.0001514693,0.0001470936,1,1
0.0002187264,0.0001660552,1,1
0.0002115956,0.0001856651,1,1
0.0001341283,0.0002005751,1,1
8.689758e-06,0.0002086784,1,1
-0.0001329553,0.0002109473,1,1
-0.0002585559,0.0002091646,1,1
-0.0003463953,0.0002055991,1,1
-0.0003895047,0.0002025199,1,1
-0.0003924218,0.0002020337,1,1
-0.0003715154,0.0002039785,1,1
-0.0003449367,0.0002081922,1,1
-0.000325813,0.0002119197,1,1
-0.0003198166,0.0002130541,1,1
-0.0003228959,0.0002090025,1,1
-0.0003274337,0.0001992786,1,1
-0.000335537,0.0001871237,1,1
-0.0003520676,0.0001751309,1,1
-0.0003783222,0.0001657311,1,1
-0.0004094387,0.0001600588,1,1
-0.0004395829,0.0001516314,1,1
-0.0004549791,0.0001360731,1,1
-0.0004463896,0.0001177597,1,1
-0.0004136524,0.0001023635,1,1
-0.0003587123,9.134307e-05,1,1
-0.0002804347,8.194328e-05,1,1
-0.000176875,6.978839e-05,1,1
-5.59743e-05,5.082674e-05,1,1
5.714729e-05,2.116879e-05,1,1
0.0001326697,-1.497178e-05,1,1
0.0001563313,-4.706071e-05,1,1
0.0001315353,-7.039812e-05,1,1
6.83298e-05,-8.692878e-05,1,1
-2.145439e-05,-9.697683e-05,1,1
-0.0001183694,-9.730096e-05,1,1
-0.0002029675,-8.806324e-05,1,1
-0.0002561249,-7.477388e-05,1,1
-0.0002624455,-6.618442e-05,1,1
-0.000221443,-6.715681e-05,1,1
-0.0001389517,-7.639453e-05,1,1
-2.874733e-05,-8.644259e-05,1,1
9.101894e-05,-8.984595e-05,1,1
0.0001991165,-8.012204e-05,1,1
0.0002762596,-6.294311e-05,1,1
0.0003125623,-4.884343e-05,1,1
0.0003122381,-4.819517e-05,1,1
0.0002901973,-6.0188e-05,1,1
0.0002642668,-7.898758e-05,1,1
0.0002493568,-0.0001002181,1,1
0.0002538946,-0.0001212866,1,1
0.0002756114,-0.0001423551,1,1
0.0002966799,-0.0001603444,1,1
0.0003052694,-0.0001755785,1,1
0.0002955454,-0.0001857886,1,1
0.0002715597,-0.0001883817,1,1
0.0002446569,-0.0001806025,1,1
0.0002266676,-0.0001634236,1,1
0.0002243987,-0.0001426792,1,1
0.0002331503,-0.0001240417,1,1
0.0002412535,-0.0001109144,1,1
0.0002378501,-0.0001037836,1,1
0.000217592,-9.713889e-05,1,1
0.0001808031,-8.692878e-05,1,1
0.0001389903,-7.039812e-05,1,1
0.0001020394,-4.90055e-05,1,1
8.080883e-05,-2.080613e-05,1,1
8.210535e-05,1.501031e-05,1,1
0.0001046324,5.374392e-05,1,1
0.0001375317,8.826383e-05,1,1
0.0001650828,0.0001148425,1,1
0.0001749688,0.0001326697,1,1
0.000155683,0.0001430419,1,1
0.0001064152,0.0001488763,1,1
4.142696e-05,0.0001537382,1,1
-2.064406e-05,0.0001615174,1,1
-6.699475e-05,0.000170431,1,1
-9.503204e-05,0.0001764274,1,1
-0.0001110765,0.000178048,1,1
-0.0001235555,0.0001761032,1,1
-0.0001314967,0.0001707551,1,1
-0.0001279313,0.000162976,1,1
-0.0001057284,0.0001517934,1,1
-6.423963e-05,0.0001404489,1,1
-1.221667e-05,0.0001338042,1,1
4.320967e-05,0.0001325077,1,1
9.766362e-05,0.0001370455,1,1
0.0001514693,0.0001438522,1,1
0.000207706,0.0001480659,1,1
0.0002692908,0.0001474177,1,1
0.0003358997,0.0001430419,1,1
0.0003992672,0.000138342,1,1
0.0004475628,0.000135749,1,1
0.0004739794,0.0001346145,1,1
0.0004785172,0.0001380179,1,1
0.0004652279,0.0001480659,1,1
0.0004391353,0.000163138,1,1
0.0004018603,0.0001801549,1,1
0.0003605336,0.0001931201,1,1
0.0003230965,0.0001991165,1,1
0.0002981384,0.0001934442,1,1
0.0002901973,0.0001765894,1,1
0.0002958695,0.0001563313,1,1
0.000309483,0.0001368834,1,1
0.0003248792,0.0001179218,1,1
0.0003384927,0.0001009049,1,1
0.0003504856,8.534666e-05,1,1
0.0003597233,7.335383e-05,1,1
0.0003605336,6.541262e-05,1,1
0.0003459477,6.281957e-05,1,1
0.0003133726,6.217132e-05,1,1
0.0002654013,5.99024e-05,1,1
0.0002057612,5.163707e-05,1,1
0.0001325077,3.575467e-05,1,1
4.385793e-05,9.500085e-06,1,1
-5.240886e-05,-2.453363e-05,1,1
-0.0001402483,-5.986387e-05,1,1
-0.000209126,-8.935975e-05,1,1
-0.0002577456,-0.0001120489,1,1
-0.0002912931,-0.0001302002,1,1
-0.0003164132,-0.0001434896,1,1
-0.0003313232,-0.0001517549,1,1
-0.0003326198,-0.0001546721,1,1
-0.0003203028,-0.0001533756,1,1
-0.0002990722,-0.0001480274,1,1
-0.0002733039,-0.0001425172,1,1
-0.0002494803,-0.0001381414,1,1
-0.0002318152,-0.0001379794,1,1
-0.0002225774,-0.0001447861,1,1
-0.000221443,-0.0001587237,1,1
-0.0002285739,-0.0001771992,1,1
-0.0002431597,-0.0001947022,1,1
-0.0002619593,-0.0001997262,1,1
-0.0002823795,-0.0001896782,1,1
-0.0003031239,-0.0001726613,1,1
-0.0003214373,-0.0001540238,1,1
-0.0003288923,-0.000137169,1,1
-0.0003251648,-0.0001243659,1,1
-0.0003185201,-0.0001164247,1,1
-0.0003206269,-0.0001141558,1,1
-0.0003348887,-0.0001146419,1,1
-0.0003549848,-0.0001190177,1,1
-0.0003736223,-0.0001251762,1,1
-0.000385291,-0.0001311726,1,1
-0.0003867496,-0.0001336036,1,1
-0.0003737844,-0.0001279313,1,1
-0.0003415334,-0.0001138316,1,1
-0.0002972895,-9.600444e-05,1,1
-0.0002472114,-7.963584e-05,1,1
-0.0001994021,-6.48879e-05,1,1
-0.0001598582,-4.932962e-05,1,1
-0.0001314967,-2.631635e-05,1,1
-0.0001177212,3.665733e-06,1,1
-0.0001169109,3.737532e-05,1,1
-0.0001193418,6.849186e-05,1,1
-0.00010978,8.972242e-05,1,1
-8.287715e-05,9.733949e-05,1,1
-4.43056e-05,9.069481e-05,1,1
-9.461558e-06,7.756752e-05,1,1
1.322759e-05,6.751948e-05,1,1
2.554455e-05,6.914012e-05,1,1
4.158902e-05,7.951231e-05,1,1
7.6271e-05,8.988449e-05,1,1
0.0001398006,9.588091e-05,1,1
0.0002354192,9.393612e-05,1,1
0.0003535648,8.356394e-05,1,1
0.0004741415,6.006447e-05,1,1
0.0005679773,2.149292e-05,1,1
0.0006071971,-2.210265e-05,1,1
0.0005848321,-5.953974e-05,1,1
0.0005211404,-7.963584e-05,1,1
0.0004509661,-7.590833e-05,1,1
0.0004099636,-5.419158e-05,1,1
0.0004175806,-2.761287e-05,1,1
0.0004736553,-1.383732e-05,1,1
0.000562305,-2.404744e-05,1,1
0.0006603546,-5.062615e-05,1,1
0.0007402529,-8.012204e-05,1,1
0.0007804451,-9.551824e-05,1,1
0.0007645627,-7.850138e-05,1,1
0.0006880678,-1.643037e-05,1,1
0.0005608465,8.323981e-05,1,1
0.0004046154,0.0001950649,1,1
0.0002384984,0.0002830664,1,1
6.816773e-05,0.0003203414,1,1
-0.0001063766,0.0003013798,1,1
-0.0002746004,0.00024255,1,1
-0.0004168937,0.000175455,1,1
-0.000511864,0.0001276457,1,1
-0.0005489769,0.000110953,1,1
-0.0005343911,0.0001239182,1,1
-0.0004886886,0.0001519555,1,1
-0.00042759,0.0001782101,1,1
-0.0003559572,0.0001910133,1,1
-0.000276059,0.0001830721,1,1
-0.0001956746,0.0001519555,1,1
-0.00012469,0.0001047945,1,1
-6.375344e-05,5.293359e-05,1,1
-8.813297e-06,4.151929e-06,1,1
2.570662e-05,-3.847125e-05,1,1
2.76514e-05,-6.926366e-05,1,1
-2.006553e-06,-8.611845e-05,1,1
-4.835724e-05,-9.632857e-05,1,1
-9.130454e-05,-0.0001055663,1,1
-0.0001131834,-0.0001162626,1,1
-0.0001058904,-0.0001300382,1,1
-7.23429e-05,-0.0001455964,1,1
-2.388537e-05,-0.000159372,1,1
3.154097e-05,-0.0001703924,1,1
8.599492e-05,-0.0001776853,1,1
0.0001269974,-0.0001788198,1,1
0.0001487142,-0.0001721751,1,1
0.0001514693,-0.0001648822,1,1
0.0001368834,-0.0001630995,1,1
0.0001015532,-0.000164396,1,1
4.564065e-05,-0.0001600202,1,1
-2.242678e-05,-0.0001452723,1,1
-9.503204e-05,-0.0001190177,1,1
-0.0001684476,-8.547019e-05,1,1
-0.0002391081,-4.770897e-05,1,1
-0.000301017,-1.237873e-05,1,1
-0.0003457471,1.484824e-05,1,1
-0.000365357,3.445814e-05,1,1
-0.0003585502,5.1475e-05,1,1
-0.0003403989,6.768154e-05,1,1
-0.0003361852,8.567078e-05,1,1
-0.0003601709,0.0001041462,1,1
-0.0004084663,0.0001187321,1,1
-0.0004637306,0.0001248906,1,1
-0.0005107295,0.0001248906,1,1
-0.0005476804,0.0001190562,1,1
-0.0005786349,0.0001119254,1,1
-0.0006040792,0.0001065772,1,1
-0.0006197995,0.0001098185,1,1
-0.0006223925,0.0001260251,1,1
-0.0006107238,0.0001495245,1,1
-0.0005877105,0.000170431,1,1
-0.0005518941,0.0001840444,1,1
-0.0004995471,0.0001872858,1,1
-0.0004251591,0.0001795066,1,1
-0.0003186821,0.0001654069,1,1
-0.0001681235,0.0001504969,1,1
2.894792e-05,0.0001394765,1,1
0.0002475741,0.000135749,1,1
0.0004428628,0.0001414213,1,1
0.0005749461,0.0001576278,1,1
0.0006358828,0.0001783722,1,1
0.0006420412,0.0001950649,1,1
0.0006172452,0.0002038164,1,1
0.0005806184,0.0002031682,1,1
0.0005443158,0.000192796,1,1
0.0005208163,0.0001736723,1,1
0.0005230852,0.0001514693,1,1
0.0005490156,0.0001305629,1,1
0.0005814288,0.0001116012,1,1
0.0006073592,9.182927e-05,1,1
0.0006208107,6.881599e-05,1,1
0.000621621,4.191315e-05,1,1
0.0006059006,1.54965e-05,1,1
0.0005712186,-6.706447e-06,1,1
0.0005187094,-2.09682e-05,1,1
0.0004603659,-2.874733e-05,1,1
0.0004005638,-3.441962e-05,1,1
0.0003402755,-4.187462e-05,1,1
0.0002728562,-5.22468e-05,1,1
0.0001984683,-6.342931e-05,1,1
0.0001302388,-6.845333e-05,1,1
8.097089e-05,-6.375344e-05,1,1
4.953022e-05,-5.338126e-05,1,1
2.311357e-05,-4.252288e-05,1,1
-9.947754e-06,-3.733679e-05,1,1
-5.629844e-05,-4.187462e-05,1,1
-0.0001125351,-5.451572e-05,1,1
-0.0001747682,-7.23429e-05,1,1
-0.0002350565,-9.146661e-05,1,1
-0.0002864312,-0.0001068628,1,1
-0.000320789,-0.0001159385,1,1
-0.0003366714,-0.000119828,1,1
-0.0003348887,-0.000122097,1,1
-0.000318358,-0.0001261486,1,1
-0.0002919414,-0.0001319829,1,1
-0.0002595283,-0.0001366828,1,1
-0.0002269532,-0.0001366828,1,1
-0.0001979435,-0.0001292278,1,1
-0.0001750923,-0.0001167488,1,1
-0.000159372,-0.0001028112,1,1
-0.0001491618,-9.324933e-05,1,1
-0.0001462447,-8.903562e-05,1,1
-0.0001538618,-8.725291e-05,1,1
-0.0001721751,-8.903562e-05,1,1
-0.0002002124,-9.973194e-05,1,1
-0.0002371633,-0.0001186936,1,1
-0.0002669833,-0.0001423551,1,1
-0.000273628,-0.0001624512,1,1
-0.0002515871,-0.000171851,1,1
-0.0002081536,-0.0001665028,1,1
-0.0001658546,-0.0001462447,1,1
-0.0001415448,-0.0001167488,1,1
-0.000137169,-8.692878e-05,1,1
-0.0001405724,-6.683268e-05,1,1
-0.0001379794,-5.451572e-05,1,1
-0.0001170729,-3.944364e-05,1,1
-7.007399e-05,-1.594417e-05,1,1
4.151929e-06,1.792748e-05,1,1
0.0001015532,5.666109e-05,1,1
0.000210137,9.182927e-05,1,1
0.0003111037,0.000115977,1,1
0.0003817642,0.0001261871,1,1
0.0004089912,0.0001231079,1,1
0.0003945674,0.0001122495,1,1
0.0003532407,0.0001028497,1,1
0.0003033245,9.944634e-05,1,1
0.0002558394,0.0001020394,1,1
0.0002162954,0.0001101427,1,1
0.0001887444,0.0001190562,1,1
0.0001790204,0.000128456,1,1
0.0001869616,0.0001365593,1,1
0.0002041406,0.0001446626,1,1
0.0002174299,0.0001553589,1,1
0.0002205092,0.0001665414,1,1
0.0002128921,0.0001773998,1,1
0.0002000889,0.0001858272,1,1
0.0001827479,0.0001940925,1,1
0.0001540623,0.0002031682,1,1
0.0001051186,0.0002114335,1,1
3.543054e-05,0.0002167816,1,1
-4.495386e-05,0.0002158093,1,1
-0.0001164247,0.0002106232,1,1
-0.0001564548,0.0002020337,1,1
-0.0001561307,0.0001897167,1,1
-0.0001193418,0.0001702689,1,1
-5.986387e-05,0.0001483901,1,1
3.503668e-06,0.0001295905,1,1
5.601284e-05,0.0001166253,1,1
8.356394e-05,0.0001030118,1,1
7.983644e-05,8.080883e-05,1,1
4.758544e-05,4.839576e-05,1,1
-6.220252e-06,1.322759e-05,1,1
-7.396356e-05,-1.545797e-05,1,1
-0.0001472171,-3.036798e-05,1,1
-0.0002097743,-2.907146e-05,1,1
-0.0002433218,-1.707863e-05,1,1
-0.0002407288,2.369211e-06,1,1
-0.0002057227,2.684107e-05,1,1
-0.0001517549,5.455425e-05,1,1
-9.892161e-05,8.097089e-05,1,1
-6.39155e-05,9.928428e-05,1,1
-4.738484e-05,0.0001051186,1,1
-3.425755e-05,0.0001002567,1,1
-6.544382e-06,9.377406e-05,1,1
4.02925e-05,9.717743e-05,1,1
9.944634e-05,0.0001099806,1,1
0.0001558451,0.0001211631,1,1
0.0001989545,0.0001193804,1,1
0.0002308813,0.0001004187,1,1
0.0002563256,6.751948e-05,1,1
0.000279663,2.862379e-05,1,1
0.0003000832,-1.027188e-05,1,1
0.0003099692,-4.673658e-05,1,1
0.0002987867,-8.141856e-05,1,1
0.000259729,-0.0001141558,1,1
0.0001957132,-0.0001407345,1,1
0.000120839,-0.000159534,1,1
5.649903e-05,-0.0001712027,1,1
2.052053e-05,-0.0001802784,1,1
2.165498e-05,-0.0001872472,1,1
6.006447e-05,-0.0001893541,1,1
0.0001320215,-0.0001810887,1,1
0.0002357433,-0.0001640719,1,1
0.0003681507,-0.0001451102,1,1
0.0005164405,-0.000132145,1,1
0.0006541961,-0.000127121,1,1
0.0007501388,-0.0001266348,1,1
0.0007861174,-0.0001295519,1,1
0.0007632662,-0.0001323071,1,1
0.0006986021,-0.0001323071,1,1
0.0006140039,-0.0001316588,1,1
0.0005274609,-0.000129714,1,1
0.0004451317,-0.0001280934,1,1
0.0003670162,-0.0001250141,1,1
0.0002955454,-0.000119666,1,1
0.0002265056,-0.0001102662,1,1
0.00015309,-9.454585e-05,1,1
6.962632e-05,-7.363943e-05,1,1
-2.631635e-05,-5.467778e-05,1,1
-0.0001313347,-4.236082e-05,1,1
-0.0002360289,-3.377136e-05,1,1
-0.0003253268,-2.550602e-05,1,1
-0.0003917736,-1.578211e-05,1,1
-0.0004363416,-7.840905e-06,1,1
-0.0004659995,-4.923729e-06,1,1
-0.0004899852,-9.137427e-06,1,1
-0.000519319,-1.464765e-05,1,1
-0.0005546492,-1.578211e-05,1,1
-0.0005841451,-9.137427e-06,1,1
-0.0005961379,4.638125e-06,1,1
-0.0005870623,2.359977e-05,1,1
-0.0005625904,4.434413e-05,1,1
-0.0005347152,6.687121e-05,1,1
-0.0005091089,8.84259e-05,1,1
-0.0004909576,0.0001028497,1,1
-0.0004843129,0.0001067393,1,1
-0.0004998712,0.0001018773,1,1
-0.0005345531,9.426025e-05,1,1
-0.0005705316,8.875003e-05,1,1
-0.000588845,8.74535e-05,1,1
-0.0005728005,8.988449e-05,1,1
-0.000511864,9.68533e-05,1,1
-0.0004068457,0.0001086841,1,1
-0.0002718453,0.0001213252,1,1
-0.000134738,0.0001325077,1,1
-2.291298e-05,0.0001399627,1,1
4.645098e-05,0.0001422316,1,1
7.789165e-05,0.0001363972,1,1
8.988449e-05,0.0001214872,1,1
0.0001015532,0.0001041462,1,1
0.0001222976,9.134307e-05,1,1
0.0001487142,8.46984e-05,1,1
0.0001683241,8.210535e-05,1,1
0.0001722137,7.67572e-05,1,1
0.0001587623,6.281957e-05,1,1
0.0001325077,4.466826e-05,1,1
9.912221e-05,2.862379e-05,1,1
6.281957e-05,2.262738e-05,1,1
2.246531e-05,2.878586e-05,1,1
-1.918548e-05,4.466826e-05,1,1
-4.608832e-05,6.476436e-05,1,1
-4.592625e-05,8.129502e-05,1,1
-1.967167e-05,8.84259e-05,1,1
1.695509e-05,8.340187e-05,1,1
4.839576e-05,6.930219e-05,1,1
5.957827e-05,5.244739e-05,1,1
3.672706e-05,3.640293e-05,1,1
-1.934754e-05,2.278944e-05,1,1
-9.357346e-05,1.144487e-05,1,1
-0.0001699062,5.934648e-06,1,1
-0.0002373254,4.80019e-06,1,1
-0.0002932379,4.151929e-06,1,1
-0.0003369955,7.485573e-07,1,1
-0.0003664914,-4.923729e-06,1,1
-0.0003776739,-8.975362e-06,1,1
-0.0003664914,-1.578211e-05,1,1
-0.0003326198,-2.664048e-05,1,1
-0.0002840002,-3.847125e-05,1,1
-0.0002250084,-4.90055e-05,1,1
-0.0001486757,-5.759496e-05,1,1
-4.657452e-05,-6.310517e-05,1,1
7.432621e-05,-6.342931e-05,1,1
0.0001898788,-5.953974e-05,1,1
0.0002756114,-5.419158e-05,1,1
0.0003195311,-5.22468e-05,1,1
0.000324231,-5.59743e-05,1,1
0.000304459,-6.423963e-05,1,1
0.000279663,-7.201877e-05,1,1
0.0002696149,-7.266703e-05,1,1
0.0002874421,-6.245691e-05,1,1
0.0003349273,-4.657452e-05,1,1
0.0004093153,-3.069211e-05,1,1
0.0004939134,-1.967167e-05,1,1
0.0005532294,-1.399939e-05,1,1
0.0005519328,-1.173047e-05,1,1
0.0004788414,-1.351319e-05,1,1
0.0003527545,-1.788895e-05,1,1
0.0002098128,-2.323711e-05,1,1
8.307774e-05,-2.939559e-05,1,1
-6.176923e-08,-3.279896e-05,1,1
-2.339918e-05,-3.26369e-05,1,1
1.209313e-05,-2.874733e-05,1,1
8.810177e-05,-2.080613e-05,1,1
0.0001798307,-8.165035e-06,1,1
0.0002668598,8.689758e-06,1,1
0.0003380065,2.01964e-05,1,1
0.0003872744,1.825161e-05,1,1
0.0004169324,5.772582e-06,1,1
0.0004307079,4.244267e-07,1,1
0.0004329769,1.54965e-05,1,1
0.0004232529,5.017848e-05,1,1
0.0004063981,9.182927e-05,1,1
0.0003853296,0.0001240803,1,1
0.0003629646,0.0001386662,1,1
0.0003396272,0.0001336421,1,1
0.0003088348,0.0001177597,1,1
0.0002613496,0.0001009049,1,1
0.0001916615,9.101894e-05,1,1
0.0001009049,8.79397e-05,1,1
-8.720959e-07,9.004655e-05,1,1
-0.0001036215,9.442231e-05,1,1
-0.0001943781,9.831188e-05,1,1
-0.0002684419,0.0001007429,1,1
-0.0003240303,0.0001043083,1,1
-0.0003588744,0.0001124116,1,1
-0.0003768636,0.0001257009,1,1
-0.0003781601,0.0001393144,1,1
-0.0003616295,0.000145635,1,1
-0.0003353749,0.000140773,1,1
-0.0003125237,0.0001271595,1,1
-0.000300855,0.000108522,1,1
-0.0003023136,8.956036e-05,1,1
-0.0003178718,7.221937e-05,1,1
-0.0003468815,5.828175e-05,1,1
-0.0003809152,4.904402e-05,1,1
-0.0004049009,4.320967e-05,1,1
-0.0004049009,3.786152e-05,1,1
-0.0003716775,2.878586e-05,1,1
-0.0003047445,1.614476e-05,1,1
-0.0002180396,-3.858999e-07,1,1
-0.0001313347,-1.237873e-05,1,1
-6.602235e-05,-1.610624e-05,1,1
-4.009191e-05,-9.137427e-06,1,1
-6.132246e-05,5.448452e-06,1,1
-0.0001190177,2.100672e-05,1,1
-0.0001924333,3.056858e-05,1,1
-0.0002596904,3.024445e-05,1,1
-0.000303448,1.938607e-05,1,1
-0.0003154408,2.693341e-06,1,1
-0.0002940482,-1.659243e-05,1,1
-0.000246239,-3.766092e-05,1,1
-0.0001895161,-5.905355e-05,1,1
-0.0001394379,-7.65566e-05,1,1
-0.0001010285,-8.579432e-05,1,1
-7.282909e-05,-8.611845e-05,1,1
-5.22468e-05,-7.914964e-05,1,1
-2.955766e-05,-6.926366e-05,1,1
2.693341e-06,-5.791909e-05,1,1
4.661304e-05,-4.997789e-05,1,1
9.604298e-05,-4.608832e-05,1,1
0.000145797,-4.641245e-05,1,1
0.0001910133,-5.208474e-05,1,1
0.0002282883,-5.824322e-05,1,1
0.0002542187,-5.953974e-05,1,1
0.0002710735,-5.905355e-05,1,1
0.0002780424,-6.310517e-05,1,1
0.000269777,-7.266703e-05,1,1
0.0002451431,-8.498399e-05,1,1
0.0002078681,-9.179074e-05,1,1
0.0001709172,-9.098041e-05,1,1
0.0001513072,-8.352541e-05,1,1
0.0001645966,-7.072225e-05,1,1
0.0002085163,-5.500191e-05,1,1
0.000264753,-3.620233e-05,1,1
0.0003088348,-1.788895e-05,1,1
0.000324231,-6.220252e-06,1,1
0.0003052694,-4.599598e-06,1,1
0.0002561635,-1.043395e-05,1,1
0.0001890685,-1.529591e-05,1,1
0.0001226217,-1.3027e-05,1,1
7.30297e-05,-8.651231e-06,1,1
4.612685e-05,-9.623623e-06,1,1
4.126489e-05,-1.918548e-05,1,1
5.1475e-05,-3.506788e-05,1,1
6.687121e-05,-5.095028e-05,1,1
7.951231e-05,-6.375344e-05,1,1
8.518459e-05,-7.007399e-05,1,1
8.437427e-05,-6.650855e-05,1,1
8.356394e-05,-5.354332e-05,1,1
8.664318e-05,-3.652646e-05,1,1
9.280167e-05,-2.031993e-05,1,1
0.0001004187,-5.89612e-06,1,1
0.0001069013,7.069105e-06,1,1
0.0001101427,2.214118e-05,1,1
0.0001120874,3.883391e-05,1,1
0.0001213252,5.730935e-05,1,1
0.0001389903,7.367795e-05,1,1
0.000163138,9.037068e-05,1,1
0.0001869616,0.000113384,1,1
0.0002025199,0.0001436902,1,1
0.0002039785,0.0001752929,1,1
0.0001914995,0.0002043026,1,1
0.0001692965,0.0002269918,1,1
0.0001448246,0.0002407673,1,1
0.0001247285,0.0002453052,1,1
0.0001056048,0.0002393087,1,1
7.448828e-05,0.0002229401,1,1
2.327564e-05,0.0001974959,1,1
-4.527799e-05,0.0001686482,1,1
-0.0001201522,0.0001398006,1,1
-0.0001853024,0.0001137081,1,1
-0.0002321393,9.231547e-05,1,1
-0.0002558008,7.691926e-05,1,1
-0.0002520733,6.719535e-05,1,1
-0.000221443,6.136099e-05,1,1
-0.0001734716,5.860588e-05,1,1
-0.0001204763,6.022653e-05,1,1
-7.363943e-05,6.249545e-05,1,1
-3.717473e-05,5.795762e-05,1,1
-1.383732e-05,4.126489e-05,1,1
-8.975362e-06,1.59827e-05,1,1
-3.198864e-05,-6.868513e-06,1,1
-7.60704e-05,-1.853722e-05,1,1
-0.0001214487,-1.934754e-05,1,1
-0.0001512687,-1.610624e-05,1,1
-0.0001585616,-1.643037e-05,1,1
-0.0001451102,-2.566809e-05,1,1
-0.0001190177,-5.111234e-05,1,1
-8.40116e-05,-9.324933e-05,1,1
-4.722278e-05,-0.0001473791,1,1
-1.578211e-05,-0.0001958367,1,1
6.096713e-06,-0.0002198223,1,1
2.116879e-05,-0.0001994021,1,1
3.721326e-05,-0.0001323071,1,1
6.476436e-05,-4.009191e-05,1,1
0.0001099806,4.191315e-05,1,1
0.000170431,8.74535e-05,1,1
0.0002370398,8.648112e-05,1,1
0.0002936006,5.163707e-05,1,1
0.0003226103,-6.176923e-08,1,1
0.0003106175,-4.819517e-05,1,1
0.0002607014,-8.07703e-05,1,1
0.0001843686,-9.486997e-05,1,1
0.0001020394,-9.2439e-05,1,1
3.98063e-05,-7.963584e-05,1,1
1.54965e-05,-6.310517e-05,1,1
2.441009e-05,-4.657452e-05,1,1
4.871989e-05,-3.036798e-05,1,1
6.978839e-05,-1.3027e-05,1,1
7.238143e-05,2.531276e-06,1,1
5.341979e-05,1.209313e-05,1,1
1.695509e-05,1.371378e-05,1,1
-2.874733e-05,7.069105e-06,1,1
-6.91016e-05,-4.761664e-06,1,1
-9.146661e-05,-1.983374e-05,1,1
-8.887356e-05,-3.944364e-05,1,1
-6.91016e-05,-6.099833e-05,1,1
-5.32192e-05,-7.801519e-05,1,1
-5.840528e-05,-8.433573e-05,1,1
-8.611845e-05,-8.320128e-05,1,1
-0.0001230693,-7.477388e-05,1,1
-0.0001511067,-6.261898e-05,1,1
-0.0001673132,-4.592625e-05,1,1
-0.0001801163,-2.631635e-05,1,1
-0.0002063709,-8.327101e-06,1,1
-0.0002616352,4.638125e-06,1,1
-0.0003423437,1.063454e-05,1,1
-0.0004204592,1.468618e-05,1,1
-0.0004650271,2.39239e-05,1,1
-0.0004583824,4.304761e-05,1,1
-0.0004031182,7.221937e-05,1,1
-0.00030831,0.0001039842,1,1
-0.0001887058,0.0001316974,1,1
-5.872941e-05,0.0001511452,1,1
6.735741e-05,0.000160545,1,1
0.0001819376,0.000162976,1,1
0.000282256,0.0001595726,1,1
0.0003628026,0.0001470936,1,1
0.0004170944,0.0001304008,1,1
0.0004477248,0.0001172735,1,1
0.0004697657,0.0001138702,1,1
0.0004884033,0.0001232699,1,1
0.0005046097,0.0001414213,1,1
0.000512551,0.0001589243,1,1
0.0005065545,0.0001696206,1,1
0.0004791655,0.0001718896,1,1
0.0004248736,0.0001686482,1,1
0.0003504856,0.0001623277,1,1
0.0002642668,0.0001537382,1,1
0.0001738343,0.0001420695,1,1
8.696731e-05,0.0001271595,1,1
1.160693e-05,0.0001125736,1,1
-4.787104e-05,0.0001026876,1,1
-8.676672e-05,9.182927e-05,1,1
-9.875954e-05,7.221937e-05,1,1
-9.405965e-05,4.45062e-05,1,1
-8.935975e-05,1.711715e-05,1,1
-9.730096e-05,-1.682422e-06,1,1
-0.0001235555,-2.978945e-06,1,1
-0.0001630995,1.776542e-05,1,1
-0.0002083157,5.163707e-05,1,1
-0.0002554767,8.226741e-05,1,1
-0.0003002067,9.344993e-05,1,1
-0.0003322956,7.999851e-05,1,1
-0.0003322956,4.742337e-05,1,1
-0.0002870794,4.151929e-06,1,1
-0.0001940539,-4.138842e-05,1,1
-7.153257e-05,-8.158062e-05,1,1
5.163707e-05,-0.0001118868,1,1
0.0001438522,-0.0001323071,1,1
0.0001893926,-0.000144624,1,1
0.0001908512,-0.0001509446,1,1
0.0001558451,-0.0001554824,1,1
9.442231e-05,-0.0001582375,1,1
1.97102e-05,-0.0001592099,1,1
-5.59743e-05,-0.000156941,1,1
-0.0001258245,-0.0001530514,1,1
-0.0001849783,-0.0001496481,1,1
-0.0002254946,-0.0001499722,1,1
-0.0002381357,-0.0001512687,1,1
-0.0002185258,-0.0001522411,1,1
-0.0001682856,-0.0001515928,1,1
-9.713889e-05,-0.0001431655,1,1
-1.821308e-05,-0.0001264727,1,1
5.455425e-05,-0.0001037836,1,1
0.0001041462,-7.55842e-05,1,1
0.0001190562,-4.835724e-05,1,1
0.0001025256,-2.631635e-05,1,1
6.751948e-05,-1.480971e-05,1,1
2.603075e-05,-1.318906e-05,1,1
-1.399939e-05,-1.707863e-05,1,1
-4.949169e-05,-2.242678e-05,1,1
-8.02841e-05,-2.501983e-05,1,1
-0.0001146419,-2.534396e-05,1,1
-0.0001582375,-2.404744e-05,1,1
-0.0002036158,-1.869928e-05,1,1
-0.0002337599,-7.030578e-06,1,1
-0.0002305186,9.500085e-06,1,1
-0.0001846542,2.716521e-05,1,1
-0.0001032974,4.304761e-05,1,1
-1.318906e-05,5.585077e-05,1,1
5.552663e-05,6.687121e-05,1,1
8.583286e-05,7.238143e-05,1,1
7.546067e-05,6.687121e-05,1,1
3.786152e-05,5.082674e-05,1,1
-5.734056e-06,2.943412e-05,1,1
-4.47918e-05,6.582909e-06,1,1
-7.752899e-05,-1.416145e-05,1,1
-0.0001034594,-2.89094e-05,1,1
-0.0001180453,-3.879538e-05,1,1
-0.0001178833,-4.544006e-05,1,1
-0.0001010285,-4.90055e-05,1,1
-6.958779e-05,-5.354332e-05,1,1
-2.923353e-05,-5.921561e-05,1,1
6.420843e-06,-6.342931e-05,1,1
2.862379e-05,-6.197072e-05,1,1
3.299956e-05,-5.192267e-05,1,1
2.457216e-05,-3.053005e-05,1,1
1.517237e-05,-5.479652e-07,1,1
1.565857e-05,3.13789e-05,1,1
3.105477e-05,5.909208e-05,1,1
5.682316e-05,7.870197e-05,1,1
8.615699e-05,9.426025e-05,1,1
0.0001088461,0.0001231079,1,1
0.0001169494,0.0001811273,1,1
0.000101067,0.0002688046,1,1
5.341979e-05,0.0003610198,1,1
-2.437157e-05,0.0004266563,1,1
-0.0001165867,0.0004472386,1,1
-0.0001959987,0.0004255218,1,1
-0.0002342462,0.0003765781,1,1
-0.0002194982,0.000316776,1,1
-0.0001587237,0.0002582704,1,1
-8.158062e-05,0.0002120818,1,1
-1.610624e-05,0.0001817755,1,1
2.538249e-05,0.0001608691,1,1
5.017848e-05,0.0001409351,1,1
6.606088e-05,0.0001154908,1,1
7.140904e-05,8.956036e-05,1,1
5.811968e-05,6.995045e-05,1,1
2.603075e-05,5.682316e-05,1,1
-7.354709e-06,4.969229e-05,1,1
-2.0482e-05,4.564065e-05,1,1
2.531276e-06,3.688912e-05,1,1
6.055066e-05,1.906194e-05,1,1
0.0001430419,-7.678839e-06,1,1
0.0002331503,-4.090223e-05,1,1
0.000314345,-7.461182e-05,1,1
0.0003704196,-9.66527e-05,1,1
0.0003947294,-0.0001005423,1,1
0.0003885709,-8.887356e-05,1,1
0.0003572923,-7.477388e-05,1,1
0.0003145071,-6.91016e-05,1,1
0.0002744769,-7.412562e-05,1,1
0.0002404432,-8.903562e-05,1,1
0.0002013854,-0.0001138316,1,1
0.000140773,-0.0001449482,1,1
5.001642e-05,-0.0001739578,1,1
-5.710876e-05,-0.0001930815,1,1
-0.0001571031,-0.0001947022,1,1
-0.0002300324,-0.0001778474,1,1
-0.0002664971,-0.0001533756,1,1
-0.0002729798,-0.0001302002,1,1
-0.0002632558,-0.0001169109,1,1
-0.0002486699,-0.0001169109,1,1
-0.0002327876,-0.0001253383,1,1
-0.0002147983,-0.0001349001,1,1
-0.0001901644,-0.0001394379,1,1
-0.0001561307,-0.0001337657,1,1
-0.0001138316,-0.0001141558,1,1
-6.650855e-05,-8.206682e-05,1,1
-1.950961e-05,-5.046408e-05,1,1
1.906194e-05,-3.555408e-05,1,1
4.612685e-05,-4.219875e-05,1,1
6.865393e-05,-6.180866e-05,1,1
9.717743e-05,-8.320128e-05,1,1
0.0001385041,-9.66527e-05,1,1
0.0001890685,-9.811128e-05,1,1
0.000230071,-8.644259e-05,1,1
0.0002459534,-6.326724e-05,1,1
0.0002368777,-3.21507e-05,1,1
0.0002112714,-2.330684e-06,1,1
0.0001772377,1.436204e-05,1,1
0.0001441764,1.744129e-05,1,1
0.0001106288,1.241726e-05,1,1
7.108491e-05,7.879432e-06,1,1
2.635488e-05,8.851824e-06,1,1
-1.25408e-05,1.825161e-05,1,1
-3.328516e-05,3.267542e-05,1,1
-3.441962e-05,4.985435e-05,1,1
-2.501983e-05,6.638502e-05,1,1
-1.25408e-05,7.6271e-05,1,1
2.693341e-06,7.935024e-05,1,1
1.906194e-05,8.032264e-05,1,1
1.841368e-05,8.534666e-05,1,1
-2.307504e-05,9.733949e-05,1,1
-0.0001084835,0.0001175977,1,1
-0.0002180396,0.0001406109,1,1
-0.0003190063,0.0001597346,1,1
-0.0003844807,0.0001691344,1,1
-0.0003990665,0.0001696206,1,1
-0.0003650328,0.0001621656,1,1
-0.0002942103,0.0001516314,1,1
-0.0002005366,0.0001449867,1,1
-0.0001007043,0.0001443384,1,1
-5.409925e-06,0.000145797,1,1
7.935024e-05,0.0001443384,1,1
0.0001551968,0.0001394765,1,1
0.0002308813,0.0001334801,1,1
0.0003161277,0.0001316974,1,1
0.000410936,0.0001351007,1,1
0.0005033132,0.0001389903,1,1
0.0005700842,0.000140773,1,1
0.0005916389,0.0001425557,1,1
0.0005592257,0.0001440143,1,1
0.0004798138,0.0001423936,1,1
0.0003717161,0.0001334801,1,1
0.000262322,0.0001172735,1,1
0.0001739964,9.733949e-05,1,1
0.000121001,8.04847e-05,1,1
0.0001086841,6.751948e-05,1,1
0.0001261871,5.325772e-05,1,1
0.0001527658,3.705119e-05,1,1
0.0001725378,2.133085e-05,1,1
0.0001820997,8.851824e-06,1,1
0.0001798307,9.106227e-07,1,1
0.0001624898,-1.682422e-06,1,1
0.0001294284,-3.465141e-06,1,1
7.724339e-05,-8.651231e-06,1,1
8.689758e-06,-1.967167e-05,1,1
-6.213279e-05,-3.198864e-05,1,1
-0.0001126972,-3.960571e-05,1,1
-0.0001230693,-4.171256e-05,1,1
-8.530812e-05,-3.782299e-05,1,1
-1.520357e-06,-2.874733e-05,1,1
0.0001250527,-1.967167e-05,1,1
0.0002856594,-1.399939e-05,1,1
0.000450804,-1.318906e-05,1,1
0.0005856425,-1.772689e-05,1,1
0.0006632718,-2.858527e-05,1,1
0.0006716992,-4.527799e-05,1,1
0.0006120591,-6.715681e-05,1,1
0.0005007202,-9.341139e-05,1,1
0.0003623164,-0.0001238797,1,1
0.0002258573,-0.0001546721,1,1
0.0001148425,-0.0001806025,1,1
3.818565e-05,-0.0001961608,1,1
-6.544382e-06,-0.0002021572,1,1
-2.988179e-05,-0.0001969711,1,1
-4.625038e-05,-0.0001823853,1,1
-7.104638e-05,-0.000161965,1,1
-0.0001105903,-0.0001407345,1,1
-0.0001686097,-0.0001233935,1,1
-0.0002376495,-0.0001120489,1,1
-0.0003070135,-0.0001071869,1,1
-0.0003663294,-0.0001032974,1,1
-0.0004047388,-9.632857e-05,1,1
-0.0004185144,-8.773911e-05,1,1
-0.0004128421,-7.736692e-05,1,1
-0.0003974459,-6.683268e-05,1,1
-0.0003854531,-5.59743e-05,1,1
-0.0003809152,-4.187462e-05,1,1
-0.0003765395,-2.46957e-05,1,1
-0.0003619536,-7.030578e-06,1,1
-0.0003337542,6.90704e-06,1,1
-0.0002990722,1.419998e-05,1,1
-0.0002726556,1.403791e-05,1,1
-0.000268766,1.063454e-05,1,1
-0.0002888622,9.824215e-06,1,1
-0.0003253268,1.112074e-05,1,1
-0.000367788,1.54965e-05,1,1
-0.0003998769,2.603075e-05,1,1
-0.0004068457,4.094075e-05,1,1
-0.0003739464,5.260946e-05,1,1
-0.0002932379,5.730935e-05,1,1
-0.000169258,6.03886e-05,1,1
-2.501983e-05,6.751948e-05,1,1
0.0001080358,7.837785e-05,1,1
0.0002030061,9.069481e-05,1,1
0.0002477361,0.0001046324,1,1
0.0002506533,0.000120839,1,1
0.0002287745,0.0001398006,1,1
0.0001979821,0.0001618415,1,1
0.0001691344,0.0001846927,1,1
0.0001485521,0.000202682,1,1
0.0001315353,0.0002112714,1,1
0.000113384,0.0002114335,1,1
8.518459e-05,0.0002088404,1,1
4.434413e-05,0.0002031682,1,1
-8.002969e-06,0.0001905271,1,1
-6.116039e-05,0.0001709172,1,1
-0.0001078352,0.0001485521,1,1
-0.0001447861,0.000130725,1,1
-0.0001765509,0.0001242423,1,1
-0.0002104225,0.000130725,1,1
-0.0002579077,0.0001433661,1,1
-0.0003279199,0.00015309,1,1
-0.0004173799,0.0001534141,1,1
-0.0005081365,0.0001410971,1,1
-0.0005719902,0.0001221355,1,1
-0.0005901415,0.0001025256,1,1
-0.000559187,8.388807e-05,1,1
-0.0004980884,6.751948e-05,1,1
-0.0004284004,5.374392e-05,1,1
-0.0003627639,3.964424e-05,1,1
-0.0003081479,2.570662e-05,1,1
-0.0002655248,7.879432e-06,1,1
-0.0002399184,-1.513384e-05,1,1
-0.0002421874,-3.830919e-05,1,1
-0.0002702246,-5.532604e-05,1,1
-0.0003076617,-6.667062e-05,1,1
-0.0003358611,-7.769106e-05,1,1
-0.0003423437,-9.162867e-05,1,1
-0.0003261372,-0.0001037836,1,1
-0.0002982619,-0.0001110765,1,1
-0.0002713591,-0.0001099421,1,1
-0.0002569353,-0.000102325,1,1
-0.0002551526,-9.470791e-05,1,1
-0.0002485079,-9.324933e-05,1,1
-0.0002123673,-9.973194e-05,1,1
-0.0001387897,-0.0001128592,1,1
-4.398147e-05,-0.0001248521,1,1
4.628891e-05,-0.0001282554,1,1
0.0001127357,-0.0001232314,1,1
0.0001492004,-0.0001144799,1,1
0.0001603829,-0.0001054042,1,1
0.0001539003,-9.66527e-05,1,1
0.00013818,-9.017008e-05,1,1
0.0001214872,-8.644259e-05,1,1
0.0001067393,-8.595638e-05,1,1
9.247754e-05,-8.757704e-05,1,1
8.550872e-05,-8.887356e-05,1,1
0.0001038221,-8.563225e-05,1,1
0.0001610312,-7.671866e-05,1,1
0.0002513016,-6.634648e-05,1,1
0.0003616681,-6.116039e-05,1,1
0.000477869,-6.39155e-05,1,1
0.0005905044,-7.104638e-05,1,1
0.0007039502,-7.979791e-05,1,1
0.0008240407,-8.595638e-05,1,1
0.0009489932,-8.206682e-05,1,1
0.001071677,-6.261898e-05,1,1
0.001180261,-3.279896e-05,1,1
0.001260159,2.623614e-07,1,1
0.00129792,2.732727e-05,1,1
0.001283172,4.418206e-05,1,1
0.001211701,5.536457e-05,1,1
0.001093069,6.914012e-05,1,1
0.0009439692,8.939829e-05,1,1
0.0007846588,0.0001099806,1,1
0.0006387999,0.0001242423,1,1
0.0005256782,0.0001325077,1,1
0.0004519385,0.0001409351,1,1
0.0004107739,0.000155683,1,1
0.0003906778,0.0001817755,1,1
0.0003762539,0.0002135403,1,1
0.0003553475,0.0002363916,1,1
0.0003258516,0.0002376881,1,1
0.000294573,0.0002167816,1,1
0.0002668598,0.0001882582,1,1
0.0002406053,0.0001689724,1,1
0.0002090025,0.0001671896,1,1
0.0001641104,0.0001777239,1,1
0.0001012291,0.0001910133,1,1
2.408596e-05,0.0001968476,1,1
-6.035007e-05,0.0001944166,1,1
-0.0001426792,0.000185503,1,1
-0.0002136638,0.0001765894,1,1
-0.000266173,0.0001728619,1,1
-0.0002993964,0.0001748067,1,1
-0.0003162512,0.0001786963,1,1
-0.0003287302,0.0001775618,1,1
-0.0003425058,0.0001702689,1,1
-0.0003575778,0.0001568175,1,1
-0.0003720016,0.0001399627,1,1
-0.0003862634,0.0001195424,1,1
-0.0004018217,9.831188e-05,1,1
-0.0004155972,7.708133e-05,1,1
-0.0004238625,5.406805e-05,1,1
-0.0004288866,2.829966e-05,1,1
-0.0004407173,-1.196227e-06,1,1
-0.0004625961,-3.522994e-05,1,1
-0.0004835025,-6.44017e-05,1,1
-0.0004927403,-8.239095e-05,1,1
-0.0004883645,-8.806324e-05,1,1
-0.0004713477,-8.757704e-05,1,1
-0.0004454172,-8.547019e-05,1,1
-0.0004180282,-8.44978e-05,1,1
-0.0003992286,-8.530812e-05,1,1
-0.0003974459,-8.854943e-05,1,1
-0.0004139766,-9.389759e-05,1,1
-0.0004405553,-9.989401e-05,1,1
-0.0004659995,-0.0001081593,1,1
-0.0004752372,-0.0001175591,1,1
-0.0004551412,-0.0001229073,1,1
-0.0004049009,-0.0001214487,1,1
-0.0003342404,-0.0001139937,1,1
-0.0002608248,-0.0001041077,1,1
-0.0001979435,-9.616651e-05,1,1
-0.000156941,-9.146661e-05,1,1
-0.0001386276,-8.968389e-05,1,1
-0.000134738,-9.2439e-05,1,1
-0.0001358725,-0.0001024871,1,1
-0.0001303623,-0.0001214487,1,1
-0.0001109144,-0.0001464067,1,1
-7.914964e-05,-0.0001737958,1,1
-4.689865e-05,-0.000199078,1,1
-2.566809e-05,-0.0002162569,1,1
-1.99958e-05,-0.0002250084,1,1
-2.777494e-05,-0.0002233878,1,1
-4.138842e-05,-0.0002120432,1,1
-5.030202e-05,-0.0001930815,1,1
-4.689865e-05,-0.0001681235,1,1
-3.166451e-05,-0.0001399241,1,1
-7.354709e-06,-0.0001139937,1,1
2.829966e-05,-9.632857e-05,1,1
7.432621e-05,-8.482193e-05,1,1
0.0001218114,-7.688073e-05,1,1
0.000153252,-6.845333e-05,1,1
0.0001592484,-5.970181e-05,1,1
0.0001380179,-5.2733e-05,1,1
9.798775e-05,-5.062615e-05,1,1
5.228533e-05,-5.013995e-05,1,1
1.484824e-05,-4.576419e-05,1,1
-6.382317e-06,-3.393342e-05,1,1
-1.20546e-05,-1.221667e-05,1,1
-3.627206e-06,1.776542e-05,1,1
1.889987e-05,5.228533e-05,1,1
4.953022e-05,8.84259e-05,1,1
7.497447e-05,0.0001244044,1,1
8.907416e-05,0.0001573037,1,1
9.604298e-05,0.000185503,1,1
0.0001067393,0.0002086784,1,1
0.0001289422,0.0002286124,1,1
0.0001628139,0.000250005,1,1
0.0001986303,0.0002733424,1,1
0.0002255332,0.0002957075,1,1
0.0002363916,0.0003145071,1,1
0.0002284504,0.0003240689,1,1
0.000202844,0.0003224483,1,1
0.0001594105,0.0003075383,1,1
0.0001039842,0.0002830664,1,1
4.207521e-05,0.0002543808,1,1
-2.647842e-05,0.000230071,1,1
-0.0001092938,0.0002182402,1,1
-0.0002063709,0.0002171058,1,1
-0.0003045825,0.0002179161,1,1
-0.0003836704,0.0002161334,1,1
-0.0004293727,0.0002091646,1,1
-0.0004347209,0.0001947408,1,1
-0.0003993907,0.0001707551,1,1
-0.0003348887,0.00013818,1,1
-0.0002575835,0.0001041462,1,1
-0.0001759026,7.724339e-05,1,1
-8.725291e-05,6.654708e-05,1,1
1.663096e-05,7.465034e-05,1,1
0.0001389903,9.831188e-05,1,1
0.0002692908,0.0001221355,1,1
0.0003921364,0.0001302388,1,1
0.0004942376,0.0001151667,1,1
0.0005717048,8.242948e-05,1,1
0.0006259967,4.385793e-05,1,1
0.0006639201,8.365628e-06,1,1
0.0006896885,-1.610624e-05,1,1
0.0007102708,-2.874733e-05,1,1
0.0007269635,-3.117831e-05,1,1
0.0007337703,-2.858527e-05,1,1
0.0007203188,-2.745081e-05,1,1
0.0006846645,-2.761287e-05,1,1
0.0006303725,-3.150244e-05,1,1
0.0005613327,-4.009191e-05,1,1
0.0004888894,-5.743289e-05,1,1
0.0004248736,-8.530812e-05,1,1
0.0003762539,-0.0001199901,1,1
0.0003358997,-0.0001538618,1,1
0.0002908455,-0.0001804405,1,1
0.0002342847,-0.000199078,1,1
0.0001735102,-0.0002110708,1,1
0.0001192183,-0.0002180396,1,1
8.080883e-05,-0.0002206326,1,1
5.56887e-05,-0.0002201465,1,1
3.899597e-05,-0.0002182017,1,1
2.76514e-05,-0.0002083157,1,1
1.825161e-05,-0.0001857886,1,1
8.689758e-06,-0.0001522411,1,1
-3.627206e-06,-0.0001178833,1,1
-1.756482e-05,-9.081835e-05,1,1
-3.458168e-05,-7.833932e-05,1,1
-5.678463e-05,-8.303922e-05,1,1
-7.752899e-05,-0.0001013526,1,1
-9.29252e-05,-0.0001258245,1,1
-0.0001037836,-0.0001481895,1,1
-0.000119828,-0.0001605064,1,1
-0.0001514308,-0.0001596961,1,1
-0.0001974573,-0.0001496481,1,1
-0.0002475355,-0.000134576,1,1
-0.0002883759,-0.0001186936,1,1
-0.0003073376,-0.0001060525,1,1
-0.000301017,-9.730096e-05,1,1
-0.0002734659,-9.017008e-05,1,1
-0.0002319772,-7.817725e-05,1,1
-0.0001875713,-5.775702e-05,1,1
-0.0001585616,-3.571614e-05,1,1
-0.0001556445,-1.902341e-05,1,1
-0.0001733096,-1.189254e-05,1,1
-0.0002005366,-8.002969e-06,1,1
-0.0002225774,-1.682422e-06,1,1
-0.0002334358,6.096713e-06,1,1
-0.0002332737,1.452411e-05,1,1
-0.0002253326,2.295151e-05,1,1
-0.0002128535,3.543054e-05,1,1
-0.0001997262,5.244739e-05,1,1
-0.0001838438,7.319176e-05,1,1
-0.0001572651,9.26396e-05,1,1
-0.0001164247,0.0001044704,1,1
-7.137051e-05,0.0001072255,1,1
-3.409549e-05,0.0001030118,1,1
-1.610624e-05,9.63671e-05,1,1
-2.518189e-05,8.939829e-05,1,1
-5.872941e-05,8.729144e-05,1,1
-0.0001054042,9.004655e-05,1,1
-0.0001511067,9.814982e-05,1,1
-0.000186761,0.0001094944,1,1
-0.0002112329,0.0001227837,1,1
-0.0002298704,0.0001339663,1,1
-0.0002459149,0.000138342,1,1
-0.0002577456,0.000133318,1,1
-0.0002575835,0.000121001,1,1
-0.0002475355,0.0001077117,1,1
-0.0002374874,9.896015e-05,1,1
-0.0002373254,9.53947e-05,1,1
-0.0002434839,9.21534e-05,1,1
-0.0002446183,8.79397e-05,1,1
-0.0002241981,8.664318e-05,1,1
-0.0001689338,9.069481e-05,1,1
-8.563225e-05,9.814982e-05,1,1
3.665733e-06,0.0001023635,1,1
7.20573e-05,0.0001009049,1,1
9.68533e-05,9.588091e-05,1,1
7.351589e-05,9.280167e-05,1,1
2.311357e-05,9.393612e-05,1,1
-2.955766e-05,9.879808e-05,1,1
-6.586029e-05,0.0001013911,1,1
-7.736692e-05,9.652917e-05,1,1
-6.099833e-05,8.486046e-05,1,1
-2.275091e-05,6.995045e-05,1,1
2.878586e-05,5.52025e-05,1,1
8.323981e-05,4.191315e-05,1,1
0.0001295905,2.862379e-05,1,1
0.0001697827,1.355172e-05,1,1
0.000215161,-1.520357e-06,1,1
0.0002696149,-1.270286e-05,1,1
0.0003253654,-1.983374e-05,1,1
0.0003636129,-2.566809e-05,1,1
0.0003655576,-3.247483e-05,1,1
0.000326824,-4.317115e-05,1,1
0.0002563256,-5.889148e-05,1,1
0.000168,-8.141856e-05,1,1
7.351589e-05,-0.0001060525,1,1
-1.772689e-05,-0.0001266348,1,1
-9.649064e-05,-0.0001379794,1,1
-0.0001524032,-0.0001413827,1,1
-0.0001771992,-0.0001384655,1,1
-0.0001660166,-0.0001331174,1,1
-0.0001161005,-0.0001285796,1,1
-3.085418e-05,-0.0001292278,1,1
6.314371e-05,-0.0001282554,1,1
0.0001229458,-0.000117235,1,1
0.0001051186,-9.2439e-05,1,1
-3.627206e-06,-5.64605e-05,1,1
-0.0001731475,-1.967167e-05,1,1
-0.0003481781,7.23117e-06,1,1
-0.0004749131,1.954813e-05,1,1
-0.0005185087,1.760335e-05,1,1
-0.0004669719,5.772582e-06,1,1
-0.0003386162,-7.516774e-06,1,1
-0.000176875,-1.724069e-05,1,1
-2.858527e-05,-1.886135e-05,1,1
7.52986e-05,-1.318906e-05,1,1
0.0001331559,-1.358292e-06,1,1
0.0001595726,1.54965e-05,1,1
0.0001714034,3.445814e-05,1,1
0.0001864754,5.325772e-05,1,1
0.0002180782,6.816773e-05,1,1
0.0002704253,7.546067e-05,1,1
0.0003373583,7.935024e-05,1,1
0.0004007258,8.648112e-05,1,1
0.000443187,0.0001015532,1,1
0.0004574487,0.0001271595,1,1
0.0004504799,0.0001582761,1,1
0.0004392974,0.0001897167,1,1
0.0004465904,0.0002140265,1,1
0.000485324,0.0002303951,1,1
0.0005460985,0.0002388225,1,1
0.0006110868,0.0002396328,1,1
0.0006587339,0.0002318537,1,1
0.0006746164,0.0002161334,1,1
0.0006556547,0.0001987924,1,1
0.0006050903,0.0001838824,1,1
0.0005277851,0.0001772377,1,1
0.0004350837,0.0001759412,1,1
0.0003462718,0.0001728619,1,1
0.00027707,0.0001652449,1,1
0.0002287745,0.0001516314,1,1
0.0001937684,0.0001352628,1,1
0.0001676758,0.0001252147,1,1
0.0001563313,0.0001260251,1,1
0.0001621656,0.0001331559,1,1
0.0001840444,0.0001404489,1,1
0.0002172679,0.0001443384,1,1
0.0002477361,0.0001422316,1,1
0.0002511395,0.0001336421,1,1
0.0002125679,0.0001211631,1,1
0.0001291043,0.000106091,1,1
5.772582e-06,9.31258e-05,1,1
-0.0001451102,8.664318e-05,1,1
-0.0003070135,8.518459e-05,1,1
-0.0004601652,8.259155e-05,1,1
-0.0005826865,7.189524e-05,1,1
-0.0006590193,5.082674e-05,1,1
-0.000688191,2.165498e-05,1,1
-0.0006844635,-9.785688e-06,1,1
-0.0006655019,-3.652646e-05,1,1
-0.0006455678,-5.743289e-05,1,1
-0.0006350336,-7.574627e-05,1,1
-0.0006329267,-9.454585e-05,1,1
-0.0006348715,-0.0001141558,1,1
-0.0006338991,-0.0001305243,1,1
-0.0006249856,-0.0001434896,1,1
-0.000611048,-0.0001538618,1,1
-0.0005958138,-0.0001622891,1,1
-0.0005797693,-0.0001684476,1,1
-0.0005546492,-0.0001676373,1,1
-0.000511864,-0.0001618029,1,1
-0.0004509274,-0.0001559686,1,1
-0.0003885323,-0.0001551583,1,1
-0.0003489884,-0.0001588858,1,1
-0.0003395886,-0.0001653684,1,1
-0.0003489884,-0.000174444,1,1
-0.0003566054,-0.0001864369,1,1
-0.0003433161,-0.0001998883,1,1
-0.0002940482,-0.0002118811,1,1
-0.0002123673,-0.000221443,1,1
-0.0001161005,-0.0002272773,1,1
-2.177852e-05,-0.0002301945,1,1
6.638502e-05,-0.0002297083,1,1
0.0001542244,-0.0002251705,1,1
0.0002409294,-0.0002180396,1,1
0.0003172622,-0.0002075054,1,1
0.0003707437,-0.0001909747,1,1
0.0003932708,-0.0001676373,1,1
0.000383709,-0.0001418689,1,1
0.0003496752,-0.0001186936,1,1
0.0002997591,-9.827335e-05,1,1
0.0002428742,-8.02841e-05,1,1
0.0001890685,-6.229485e-05,1,1
0.0001477418,-3.847125e-05,1,1
0.0001252147,-8.165035e-06,1,1
0.0001195424,2.586868e-05,1,1
0.0001214872,6.330578e-05,1,1
0.0001197045,9.68533e-05,1,1
0.0001093323,0.0001211631,1,1
9.393612e-05,0.0001295905,1,1
7.384002e-05,0.0001252147,1,1
4.969229e-05,0.0001122495,1,1
2.635488e-05,9.652917e-05,1,1
1.160693e-05,8.113296e-05,1,1
5.286387e-06,7.157111e-05,1,1
2.369211e-06,7.059871e-05,1,1
5.448452e-06,7.805372e-05,1,1
1.954813e-05,8.939829e-05,1,1
4.839576e-05,0.0001002567,1,1
8.648112e-05,0.0001075496,1,1
0.0001171115,0.0001148425,1,1
0.0001281319,0.000123432,1,1
0.000118408,0.0001328318,1,1
0.000103498,0.0001386662,1,1
9.782569e-05,0.0001396385,1,1
0.000110953,0.0001363972,1,1
0.0001436902,0.000130887,1,1
0.0001887444,0.0001261871,1,1
0.0002313675,0.0001245665,1,1
0.000259729,0.0001261871,1,1
0.0002702632,0.0001300767,1,1
0.0002760976,0.0001360731,1,1
0.0003018659,0.0001441764,1,1
0.0003619922,0.0001529279,1,1
0.0004470765,0.000160545,1,1
0.0005329712,0.0001649207,1,1
0.0006012007,0.0001611932,1,1
0.0006456067,0.0001462832,1,1
0.0006575995,0.0001257009,1,1
0.0006238899,0.0001054428,1,1
0.0005336195,8.761557e-05,1,1
0.0003913261,7.30297e-05,1,1
0.0002172679,6.006447e-05,1,1
4.288554e-05,4.337174e-05,1,1
-0.0001029732,2.34377e-05,1,1
-0.0002029675,3.341602e-06,1,1
-0.0002596904,-1.270286e-05,1,1
-0.0002869174,-2.323711e-05,1,1
-0.0003024756,-2.696461e-05,1,1
-0.0003177098,-1.788895e-05,1,1
-0.0003324577,4.151929e-06,1,1
-0.0003436402,3.316162e-05,1,1
-0.0003473677,5.909208e-05,1,1
-0.0003400748,7.57848e-05,1,1
-0.0003274337,7.935024e-05,1,1
-0.0003190063,6.930219e-05,1,1
-0.0003214373,4.596478e-05,1,1
-0.0003288923,1.9224e-05,1,1
-0.0003345645,-4.761664e-06,1,1
-0.0003314853,-2.615429e-05,1,1
-0.0003128478,-4.754691e-05,1,1
-0.0002788141,-6.731888e-05,1,1
-0.0002290601,-8.07703e-05,1,1
-0.0001687718,-8.336335e-05,1,1
-0.0001065387,-7.55842e-05,1,1
-5.370539e-05,-6.472583e-05,1,1
-1.869928e-05,-5.856735e-05,1,1
-2.006553e-06,-6.229485e-05,1,1
1.558884e-06,-7.299116e-05,1,1
-7.354709e-06,-8.368748e-05,1,1
-2.550602e-05,-8.498399e-05,1,1
-4.284701e-05,-7.785312e-05,1,1
-4.462973e-05,-6.683268e-05,1,1
-2.0482e-05,-5.970181e-05,1,1
2.457216e-05,-5.970181e-05,1,1
7.659513e-05,-6.472583e-05,1,1
0.000125863,-6.764301e-05,1,1
0.0001598967,-6.537409e-05,1,1
0.000173024,-6.0188e-05,1,1
0.0001676758,-5.743289e-05,1,1
0.0001547106,-6.294311e-05,1,1
0.0001508211,-7.720486e-05,1,1
0.0001668655,-9.503204e-05,1,1
0.0002018716,-0.0001060525,1,1
0.0002459534,-0.0001054042,1,1
0.0002859836,-9.389759e-05,1,1
0.0003067279,-7.493595e-05,1,1
0.000299597,-5.240886e-05,1,1
0.0002692908,-3.004385e-05,1,1
0.0002265056,-1.010982e-05,1,1
0.0001791825,5.772582e-06,1,1
0.0001346145,1.630683e-05,1,1
0.0001002567,2.586868e-05,1,1
7.497447e-05,3.543054e-05,1,1
4.855783e-05,4.564065e-05,1,1
1.257933e-05,6.03886e-05,1,1
-3.830919e-05,8.064677e-05,1,1
-9.989401e-05,0.0001052807,1,1
-0.0001583996,0.0001279698,1,1
-0.0001943781,0.0001459591,1,1
-0.0001950263,0.0001589243,1,1
-0.0001577513,0.0001639484,1,1
-9.389759e-05,0.0001592484,1,1
-2.0482e-05,0.0001474177,1,1
4.110282e-05,0.0001328318,1,1
6.78436e-05,0.0001182459,1,1
4.596478e-05,0.0001075496,1,1
-1.967167e-05,0.0001064152,1,1
-0.0001037836,0.0001179218,1,1
-0.0001729855,0.0001373696,1,1
-0.0002073433,0.0001582761,1,1
-0.0002102605,0.0001762653,1,1
-0.0001971332,0.0001874478,1,1
-0.0001802784,0.0001906891,1,1
-0.0001580754,0.0001874478,1,1
-0.00010978,0.0001816135,1,1
-1.221667e-05,0.0001710792,1,1
0.0001396385,0.0001524417,1,1
0.0003263378,0.0001295905,1,1
0.0005114165,0.000106091,1,1
0.0006579236,8.615699e-05,1,1
0.0007387943,7.124698e-05,1,1
0.000735553,5.974033e-05,1,1
0.0006499824,4.790957e-05,1,1
0.0005063924,3.429608e-05,1,1
0.0003435168,1.808955e-05,1,1
0.0001966855,-6.176923e-08,1,1
8.388807e-05,-1.594417e-05,1,1
1.031041e-05,-2.680255e-05,1,1
-2.907146e-05,-3.441962e-05,1,1
-3.976777e-05,-3.992984e-05,1,1
-2.226472e-05,-4.236082e-05,1,1
2.295151e-05,-4.025397e-05,1,1
8.080883e-05,-3.506788e-05,1,1
0.0001273216,-3.279896e-05,1,1
0.0001438522,-3.847125e-05,1,1
0.0001313732,-5.127441e-05,1,1
0.00010366,-6.310517e-05,1,1
6.946425e-05,-6.456377e-05,1,1
2.797553e-05,-5.078821e-05,1,1
-2.437157e-05,-2.826114e-05,1,1
-8.82253e-05,-7.516774e-06,1,1
-0.0001567789,2.693341e-06,1,1
-0.0002229016,-3.858999e-07,1,1
-0.0002802727,-1.464765e-05,1,1
-0.0003201407,-3.409549e-05,1,1
-0.0003416954,-5.192267e-05,1,1
-0.0003446126,-6.569822e-05,1,1
-0.0003290543,-7.639453e-05,1,1
-0.000295993,-9.000802e-05,1,1
-0.000256287,-0.0001084835,1,1
-0.0002211189,-0.0001342519,1,1
-0.0001998883,-0.0001655305,1,1
-0.0002032917,-0.000194216,1,1
-0.0002332737,-0.0002083157,1,1
-0.0002820554,-0.0002045882,1,1
-0.000335699,-0.000184168,1,1
-0.000375405,-0.0001559686,1,1
-0.0003885323,-0.0001311726,1,1
-0.0003724878,-0.0001180453,1,1
-0.0003389403,-0.000117235,1,1
-0.000303286,-0.0001227452,1,1
-0.0002689281,-0.0001263107,1,1
-0.0002224154,-0.0001204763,1,1
-0.000149486,-0.0001044318,1,1
-4.90055e-05,-8.271508e-05,1,1
6.41161e-05,-6.083626e-05,1,1
0.0001712413,-4.414354e-05,1,1
0.000250005,-3.377136e-05,1,1
0.0002814457,-2.988179e-05,1,1
0.0002666978,-3.020592e-05,1,1
0.0002248849,-3.247483e-05,1,1
0.0001744826,-3.053005e-05,1,1
0.0001276457,-1.934754e-05,1,1
9.344993e-05,3.179537e-06,1,1
7.57848e-05,4.045456e-05,1,1
7.108491e-05,8.534666e-05,1,1
7.286763e-05,0.000128294,1,1
7.57848e-05,0.0001574657,1,1
7.90261e-05,0.0001688103,1,1
8.356394e-05,0.0001689724,1,1
9.037068e-05,0.0001683241,1,1
9.766362e-05,0.0001761032,1,1
9.458438e-05,0.0001908512,1,1
7.367795e-05,0.000207706,1,1
3.948217e-05,0.000222616,1,1
1.558884e-06,0.0002360674,1,1
-3.26369e-05,0.0002525981,1,1
-5.824322e-05,0.000272208,1,1
-7.007399e-05,0.0002863077,1,1
-6.213279e-05,0.0002929524,1,1
-2.988179e-05,0.0002926282,1,1
2.01964e-05,0.0002898731,1,1
6.897806e-05,0.0002853353,1,1
9.199134e-05,0.000277232,1,1
7.189524e-05,0.0002644289,1,1
1.582063e-05,0.0002466017,1,1
-5.402952e-05,0.0002234263,1,1
-0.0001128592,0.0001936063,1,1
-0.0001468929,0.0001594105,1,1
-0.0001571031,0.0001273216,1,1
-0.00015451,0.000103498,1,1
-0.0001533756,8.875003e-05,1,1
-0.0001609926,7.983644e-05,1,1
-0.000174444,7.416415e-05,1,1
-0.0001848162,6.719535e-05,1,1
-0.0001849783,5.811968e-05,1,1
-0.0001705545,4.596478e-05,1,1
-0.0001431655,2.959619e-05,1,1
-0.0001094559,9.338019e-06,1,1
-7.752899e-05,-1.3027e-05,1,1
-5.581224e-05,-3.587821e-05,1,1
-4.641245e-05,-5.565017e-05,1,1
-4.203669e-05,-6.893953e-05,1,1
-3.749886e-05,-7.65566e-05,1,1
-3.26369e-05,-8.060823e-05,1,1
-3.036798e-05,-8.595638e-05,1,1
-2.858527e-05,-9.405965e-05,1,1
-2.031993e-05,-0.000104756,1,1
-3.465141e-06,-0.0001167488,1,1
2.116879e-05,-0.0001284175,1,1
5.001642e-05,-0.0001368449,1,1
7.594687e-05,-0.0001384655,1,1
0.0001009049,-0.0001340898,1,1
0.0001349386,-0.0001282554,1,1
0.0001806411,-0.0001230693,1,1
0.00022764,-0.0001216107,1,1
0.0002611876,-0.0001217728,1,1
0.0002754493,-0.0001225832,1,1
0.0002717218,-0.0001290658,1,1
0.0002550291,-0.0001407345,1,1
0.0002328261,-0.0001583996,1,1
0.0002141886,-0.0001784957,1,1
0.0002049509,-0.0001943781,1,1
0.0002057612,-0.0001989159,1,1
0.0002148369,-0.0001885437,1,1
0.0002232643,-0.0001666649,1,1
0.0002221298,-0.000144462,1,1
0.0002075439,-0.0001314967,1,1
0.0001809652,-0.0001300382,1,1
0.0001454729,-0.000137169,1,1
0.0001051186,-0.0001472171,1,1
6.087479e-05,-0.0001538618,1,1
1.257933e-05,-0.0001522411,1,1
-3.68506e-05,-0.0001415448,1,1
-8.611845e-05,-0.0001224211,1,1
-0.0001332795,-9.940781e-05,1,1
-0.0001731475,-7.947377e-05,1,1
-0.000201671,-6.650855e-05,1,1
-0.0002173914,-6.278104e-05,1,1
-0.0002220912,-6.180866e-05,1,1
-0.0002198223,-5.872941e-05,1,1
-0.0002173914,-5.208474e-05,1,1
-0.000216581,-4.155049e-05,1,1
-0.0002193361,-2.615429e-05,1,1
-0.000226467,-6.706447e-06,1,1
-0.0002321393,1.760335e-05,1,1
-0.0002232257,4.499239e-05,1,1
-0.0001893541,7.221937e-05,1,1
-0.0001280934,9.912221e-05,1,1
-4.738484e-05,0.0001247285,1,1
4.126489e-05,0.0001488763,1,1
0.0001245665,0.0001689724,1,1
0.0001885823,0.0001863134,1,1
0.0002346088,0.00019782,1,1
0.0002725321,0.0001968476,1,1
0.0003213138,0.0001827479,1,1
0.0003897054,0.000158114,1,1
0.0004736553,0.0001297526,1,1
0.0005618189,0.0001065772,1,1
0.0006363689,9.766362e-05,1,1
0.0006775336,0.0001025256,1,1
0.0006768853,0.0001127357,1,1
0.0006261588,0.0001222976,1,1
0.0005221128,0.0001289422,1,1
0.0003751195,0.0001346145,1,1
0.0002115956,0.000135749,1,1
6.525056e-05,0.0001318594,1,1
-3.652646e-05,0.0001247285,1,1
-7.931171e-05,0.0001163011,1,1
-6.359137e-05,0.0001086841,1,1
-1.156841e-05,0.0001005808,1,1
4.758544e-05,8.84259e-05,1,1
9.409818e-05,7.594687e-05,1,1
0.000128294,6.881599e-05,1,1
0.0001535762,6.816773e-05,1,1
0.000170593,6.735741e-05,1,1
0.0001825859,6.022653e-05,1,1
0.0001867996,4.807163e-05,1,1
0.0001816135,3.543054e-05,1,1
0.0001738343,2.424803e-05,1,1
0.0001673517,1.241726e-05,1,1
0.0001577899,-1.358292e-06,1,1
0.0001349386,-1.869928e-05,1,1
8.810177e-05,-3.782299e-05,1,1
1.695509e-05,-5.710876e-05,1,1
-6.780507e-05,-7.056019e-05,1,1
-0.0001507825,-7.509801e-05,1,1
-0.0002225774,-7.18567e-05,1,1
-0.0002862691,-6.375344e-05,1,1
-0.0003423437,-5.516398e-05,1,1
-0.0003848048,-5.062615e-05,1,1
-0.0004110594,-4.997789e-05,1,1
-0.000422566,-5.159854e-05,1,1
-0.0004258073,-5.548811e-05,1,1
-0.0004266177,-6.245691e-05,1,1
-0.0004343968,-6.667062e-05,1,1
-0.000459679,-6.278104e-05,1,1
-0.0004985746,-5.143648e-05,1,1
-0.0005314739,-3.68506e-05,1,1
-0.0005340669,-2.356124e-05,1,1
-0.0004943609,-1.270286e-05,1,1
-0.0004204592,-4.113403e-06,1,1
-0.0003279199,-1.196227e-06,1,1
-0.000238784,-6.220252e-06,1,1
-0.0001656925,-1.464765e-05,1,1
-0.0001107524,-2.291298e-05,1,1
-7.493595e-05,-2.923353e-05,1,1
-6.180866e-05,-3.296103e-05,1,1
-7.072225e-05,-3.150244e-05,1,1
-9.341139e-05,-2.566809e-05,1,1
-0.0001173971,-1.594417e-05,1,1
-0.0001349001,-5.734056e-06,1,1
-0.0001428413,1.883015e-06,1,1
-0.000134738,4.313994e-06,1,1
-0.0001034594,2.531276e-06,1,1
-4.527799e-05,-1.034161e-06,1,1
2.959619e-05,-3.303076e-06,1,1
0.0001106288,-1.358292e-06,1,1
0.0001890685,-6.176923e-08,1,1
0.0002574601,-4.275467e-06,1,1
0.00030689,-1.448558e-05,1,1
0.000324393,-2.89094e-05,1,1
0.0003109416,-3.992984e-05,1,1
0.0002780424,-3.944364e-05,1,1
0.0002372019,-2.258885e-05,1,1
0.000195389,6.582909e-06,1,1
0.0001553589,3.786152e-05,1,1
0.0001175977,6.41161e-05,1,1
7.610894e-05,8.502253e-05,1,1
3.202716e-05,0.0001017153,1,1
-7.192643e-06,0.0001153287,1,1
-3.134038e-05,0.0001273216,1,1
-3.004385e-05,0.0001414213,1,1
-1.520357e-06,0.0001620036,1,1
4.72613e-05,0.0001872858,1,1
9.847395e-05,0.0002096508,1,1
0.0001260251,0.0002206712,1,1
0.0001140322,0.000220023,1,1
7.059871e-05,0.0002141886,1,1
2.165498e-05,0.0002067336,1,1
-3.789272e-06,0.0002010613,1,1
3.665733e-06,0.0001999268,1,1
3.316162e-05,0.0002038164,1,1
6.41161e-05,0.0002119197,1,1
7.643307e-05,0.0002195368,1,1
6.346784e-05,0.0002213195,1,1
4.418206e-05,0.0002174299,1,1
3.753739e-05,0.0002085163,1,1
5.811968e-05,0.0001957132,1,1
0.0001033359,0.0001788584,1,1
0.0001535762,0.0001587623,1,1
0.0001816135,0.0001368834,1,1
0.0001652449,0.0001124116,1,1
9.63671e-05,8.891209e-05,1,1
-1.448558e-05,6.978839e-05,1,1
-0.0001449482,5.925414e-05,1,1
-0.0002703867,5.601284e-05,1,1
-0.0003681121,5.390598e-05,1,1
-0.0004280762,4.385793e-05,1,1
-0.0004413656,2.214118e-05,1,1
-0.0004063595,-6.706447e-06,1,1
-0.0003266234,-3.393342e-05,1,1
-0.000221605,-5.240886e-05,1,1
-0.0001175591,-5.905355e-05,1,1
-3.409549e-05,-5.775702e-05,1,1
1.59827e-05,-5.483985e-05,1,1
2.846173e-05,-5.824322e-05,1,1
8.527692e-06,-6.91016e-05,1,1
-2.745081e-05,-8.465986e-05,1,1
-6.407757e-05,-0.0001016767,1,1
-9.146661e-05,-0.0001167488,1,1
-0.0001026491,-0.0001277692,1,1
-0.0001031353,-0.0001376552,1,1
-0.0001021629,-0.0001512687,1,1
-0.0001104282,-0.0001721751,1,1
-0.0001355484,-0.0001922712,1,1
-0.000174282,-0.0002031296,1,1
-0.000213988,-0.0001995642,1,1
-0.0002345703,-0.0001825473,1,1
-0.0002185258,-0.0001606685,1,1
-0.0001601823,-0.0001389517,1,1
-6.375344e-05,-0.00012469,1,1
5.876794e-05,-0.0001203142,1,1
0.0001932822,-0.0001183694,1,1
0.0003201794,-0.0001079973,1,1
0.0004227667,-8.692878e-05,1,1
0.0004887274,-5.921561e-05,1,1
0.0005110924,-3.377136e-05,1,1
0.0004924549,-1.821308e-05,1,1
0.0004488593,-1.432352e-05,1,1
0.0004028327,-2.031993e-05,1,1
0.0003715541,-2.858527e-05,1,1
0.0003645853,-3.425755e-05,1,1
0.0003835469,-3.782299e-05,1,1
0.0004214702,-3.976777e-05,1,1
0.0004639314,-4.106429e-05,1,1
0.0004955341,-4.219875e-05,1,1
0.0005042856,-4.074016e-05,1,1
0.0004914824,-3.879538e-05,1,1
0.0004715484,-3.830919e-05,1,1
0.0004653899,-3.733679e-05,1,1
0.0004833792,-3.231277e-05,1,1
0.0005266506,-2.42095e-05,1,1
0.0005854804,-2.015787e-05,1,1
0.0006410689,-2.404744e-05,1,1
0.0006768853,-3.377136e-05,1,1
0.0006904988,-4.041603e-05,1,1
0.0006815852,-3.522994e-05,1,1
0.0006511169,-1.156841e-05,1,1
0.0005942319,2.700314e-05,1,1
0.0005065545,6.83298e-05,1,1
0.0003884089,9.960841e-05,1,1
0.0002472499,0.000110953,1,1
9.928428e-05,0.0001007429,1,1
-3.911951e-05,8.080883e-05,1,1
-0.0001556445,6.362991e-05,1,1
-0.0002502906,5.714729e-05,1,1
-0.0003298647,5.811968e-05,1,1
-0.0004055492,6.087479e-05,1,1
-0.0004813957,6.330578e-05,1,1
-0.0005457356,6.800567e-05,1,1
-0.000586252,7.432621e-05,1,1
-0.0005904656,8.194328e-05,1,1
-0.000559187,9.21534e-05,1,1
-0.0005014918,0.0001044704,1,1
-0.0004335865,0.0001137081,1,1
-0.00036795,0.000115977,1,1
-0.000310903,0.0001120874,1,1
-0.0002629317,0.0001022015,1,1
-0.0002183637,8.74535e-05,1,1
-0.0001771992,7.173317e-05,1,1
-0.0001379794,5.682316e-05,1,1
-9.892161e-05,4.126489e-05,1,1
-6.099833e-05,2.359977e-05,1,1
-2.89094e-05,5.772582e-06,1,1
-6.868513e-06,-8.165035e-06,1,1
1.720949e-06,-1.67545e-05,1,1
-2.330684e-06,-2.015787e-05,1,1
-1.821308e-05,-1.869928e-05,1,1
-4.317115e-05,-1.075808e-05,1,1
-7.801519e-05,3.827799e-06,1,1
-0.00012469,1.744129e-05,1,1
-0.0001823853,1.906194e-05,1,1
-0.0002455907,4.313994e-06,1,1
-0.0003078238,-2.145439e-05,1,1
-0.0003645466,-4.706071e-05,1,1
-0.0004206212,-6.213279e-05,1,1
-0.0004810716,-6.472583e-05,1,1
-0.0005449253,-5.743289e-05,1,1
-0.0006000275,-4.706071e-05,1,1
-0.0006376266,-4.187462e-05,1,1
-0.000660802,-4.625038e-05,1,1
-0.0006690673,-5.532604e-05,1,1
-0.0006528608,-6.359137e-05,1,1
-0.0006100755,-6.667062e-05,1,1
-0.0005480045,-6.197072e-05,1,1
-0.0004826922,-4.819517e-05,1,1
-0.00042759,-2.84232e-05,1,1
-0.0003857772,-1.075808e-05,1,1
-0.0003574158,1.002961e-07,1,1
-0.0003387782,2.855407e-06,1,1
-0.0003253268,-1.034161e-06,1,1
-0.0003094444,-8.489166e-06,1,1
-0.0002820554,-1.578211e-05,1,1
-0.0002405667,-1.756482e-05,1,1
-0.0001919471,-1.189254e-05,1,1
-0.0001436516,-5.479652e-07,1,1
-9.616651e-05,1.257933e-05,1,1
-5.127441e-05,1.987227e-05,1,1
-9.299493e-06,1.9224e-05,1,1
3.13789e-05,1.144487e-05,1,1
7.708133e-05,-2.238346e-07,1,1
0.0001375317,-1.432352e-05,1,1
0.0002182402,-2.761287e-05,1,1
0.0003140208,-3.539201e-05,1,1
0.0004067223,-3.474375e-05,1,1
0.0004741415,-2.84232e-05,1,1
0.0005021787,-1.805102e-05,1,1
0.0004909963,-6.382317e-06,1,1
0.0004478869,4.313994e-06,1,1
0.0003850055,1.517237e-05,1,1
0.0003214759,2.829966e-05,1,1
0.0002691288,4.369587e-05,1,1
0.0002394708,6.200925e-05,1,1
0.0002427121,8.129502e-05,1,1
0.0002790148,9.863601e-05,1,1
0.000334117,0.000111115,1,1
0.0003848434,0.0001190562,1,1
0.0004098015,0.0001269974,1,1
0.0004016982,0.0001410971,1,1
0.0003668542,0.0001624898,1,1
0.000316776,0.0001864754,1,1
0.0002666978,0.0002036544,1,1
0.0002334744,0.0002091646,1,1
0.0002310434,0.0002023578,1,1
0.0002610255,0.0001830721,1,1
0.0003114278,0.0001589243,1,1
0.000359075,0.00013818,1,1
0.0003871123,0.0001294284,1,1
0.0003850055,0.0001346145,1,1
0.0003542131,0.0001498487,1,1
0.0003017039,0.0001654069,1,1
0.0002362295,0.0001773998,1,1
0.0001710792,0.0001833962,1,1
0.0001188942,0.0001814514,1,1
8.42122e-05,0.0001710792,1,1
6.168512e-05,0.0001558451,1,1
