EMG1,EMG2,class,user
0.0002626462,0.0001026876,1,1
0.0003629646,6.525056e-05,1,1
0.0004650658,3.721326e-05,1,1
0.0005545259,1.97102e-05,1,1
0.000614166,1.047248e-05,1,1
0.000626645,9.338019e-06,1,1
0.0005783495,1.727922e-05,1,1
0.0004624728,3.445814e-05,1,1
0.0002978143,5.698522e-05,1,1
0.0001221355,7.772959e-05,1,1
-2.988179e-05,9.118101e-05,1,1
-0.0001449482,9.896015e-05,1,1
-0.0002371633,0.0001051186,1,1
-0.000325651,0.0001077117,1,1
-0.0004123559,0.0001047945,1,1
-0.0004757234,9.782569e-05,1,1
-0.0004856094,9.523264e-05,1,1
-0.0004306693,9.977047e-05,1,1
-0.0003159271,0.0001093323,1,1
-0.0001690959,0.0001211631,1,1
-2.939559e-05,0.0001336421,1,1
6.492643e-05,0.0001446626,1,1
0.0001065772,0.0001548727,1,1
0.0001203528,0.0001639484,1,1
0.0001300767,0.0001723757,1,1
0.0001365593,0.0001762653,1,1
0.0001315353,0.0001722137,1,1
0.0001117633,0.0001571416,1,1
9.361199e-05,0.0001305629,1,1
9.912221e-05,0.0001028497,1,1
0.000133318,8.42122e-05,1,1
0.0001837203,7.546067e-05,1,1
0.0002305572,6.946425e-05,1,1
0.0002555152,6.168512e-05,1,1
0.0002378501,5.293359e-05,1,1
0.0001696206,4.466826e-05,1,1
5.844381e-05,3.332369e-05,1,1
-7.007399e-05,1.744129e-05,1,1
-0.0001953505,1.558884e-06,1,1
-0.0003125237,2.855407e-06,1,1
-0.0004224039,3.413401e-05,1,1
-0.0005225603,9.21534e-05,1,1
-0.0006068342,0.0001574657,1,1
-0.0006655019,0.0002023578,1,1
-0.0006941874,0.0002128921,1,1
-0.0006912703,0.0001840444,1,1
-0.0006577228,0.0001248906,1,1
-0.0005956517,5.179914e-05,1,1
-0.0005147812,-1.740276e-05,1,1
-0.0004309934,-7.428769e-05,1,1
-0.0003595226,-0.0001177212,1,1
-0.0003040963,-0.0001477033,1,1
-0.0002596904,-0.0001608306,1,1
-0.0002219292,-0.0001543479,1,1
-0.0001893541,-0.0001319829,1,1
-0.0001579134,-9.875954e-05,1,1
-0.0001290658,-6.650855e-05,1,1
-0.0001086455,-4.365734e-05,1,1
-0.0001036215,-3.571614e-05,1,1
-0.0001217728,-4.398147e-05,1,1
-0.0001822232,-6.456377e-05,1,1
-0.0003055549,-9.324933e-05,1,1
-0.0004946851,-0.0001248521,1,1
-0.0007238454,-0.0001556445,1,1
-0.0009461989,-0.0001864369,1,1
-0.001111343,-0.000216419,1,1
-0.001177628,-0.0002394322,1,1
-0.001118474,-0.0002486699,1,1
-0.0009288579,-0.0002384598,1,1
-0.0006403818,-0.0002186879,1,1
-0.0003131719,-0.0002032917,1,1
-1.432352e-05,-0.0001997262,1,1
0.000210137,-0.0002028055,1,1
0.0003396272,-0.0001930815,1,1
0.0003895433,-0.0001496481,1,1
0.0003989431,-7.104638e-05,1,1
0.0004052637,2.084466e-05,1,1
0.0004268184,9.523264e-05,1,1
0.0004671726,0.0001346145,1,1
0.0005271368,0.0001354248,1,1
0.0006153004,0.0001107909,1,1
0.0007467355,8.291568e-05,1,1
0.000926142,7.027458e-05,1,1
0.001135531,7.57848e-05,1,1
0.001333413,9.280167e-05,1,1
0.00147522,0.0001081979,1,1
0.001526109,0.0001125736,1,1
0.001481541,0.0001025256,1,1
0.001369715,8.145709e-05,1,1
0.001240387,5.811968e-05,1,1
0.001160489,4.418206e-05,1,1
0.00118334,5.082674e-05,1,1
0.001317692,7.805372e-05,1,1
0.001523678,0.0001193804,1,1
0.00173647,0.0001577899,1,1
0.001893998,0.0001812893,1,1
0.001949263,0.0001880961,1,1
0.001876657,0.0001827479,1,1
0.001678937,0.0001691344,1,1
0.00138657,0.0001480659,1,1
0.001037481,0.0001219734,1,1
0.0006640821,9.474644e-05,1,1
0.0002992729,7.335383e-05,1,1
-3.296103e-05,5.957827e-05,1,1
-0.0003170615,4.839576e-05,1,1
-0.0005562698,3.170304e-05,1,1
-0.0007614446,4.47606e-06,1,1
-0.0009377715,-2.89094e-05,1,1
-0.001087682,-5.64605e-05,1,1
-0.001214255,-6.0188e-05,1,1
-0.001316032,-4.074016e-05,1,1
-0.00138961,-1.3027e-05,1,1
-0.001429802,3.989864e-06,1,1
-0.001425426,7.393236e-06,1,1
-0.001369351,1.387585e-05,1,1
-0.001268871,4.320967e-05,1,1
-0.001154129,0.0001091703,1,1
-0.001057376,0.0002145127,1,1
-0.0009946565,0.0003491891,1,1
-0.0009601366,0.0004786793,1,1
-0.0009392301,0.00055485,1,1
-0.0009158928,0.0005446399,1,1
-0.0008804005,0.0004436732,1,1
-0.0008356704,0.000284525,1,1
-0.0007855922,0.0001098185,1,1
-0.0007325969,-4.236082e-05,1,1
-0.0006727948,-0.0001455964,1,1
-0.0005985689,-0.0001963229,1,1
-0.0005066779,-0.0002011848,1,1
-0.0003958252,-0.0001708786,1,1
-0.0002616352,-0.0001105903,1,1
-0.0001058904,-2.858527e-05,1,1
6.800567e-05,6.071273e-05,1,1
0.0002537325,0.0001318594,1,1
0.0004365423,0.000162976,1,1
0.0005958526,0.0001479039,1,1
0.0007097846,0.0001002567,1,1
0.0007582422,4.304761e-05,1,1
0.0007209671,-5.085794e-06,1,1
0.0006029835,-3.749886e-05,1,1
0.0004443214,-5.905355e-05,1,1
0.0002976523,-7.850138e-05,1,1
0.0002062474,-9.940781e-05,1,1
0.0001806411,-0.0001242038,1,1
0.0001965235,-0.0001436516,1,1
0.000222616,-0.0001535376,1,1
0.0002394708,-0.0001548341,1,1
0.0002464396,-0.0001541859,1,1
0.0002566497,-0.0001577513,1,1
0.0002887387,-0.0001695821,1,1
0.0003524304,-0.0001893541,1,1
0.0004255218,-0.0002177155,1,1
0.000473007,-0.0002491561,1,1
0.0004632831,-0.0002793003,1,1
0.000388895,-0.0003039342,1,1
0.000274639,-0.0003243544,1,1
0.0001636242,-0.0003334301,1,1
9.361199e-05,-0.0003152788,1,1
8.388807e-05,-0.0002517492,1,1
0.0001354248,-0.0001459206,1,1
0.0002247229,-2.129233e-05,1,1
0.0003012177,8.226741e-05,1,1
0.0003175863,0.0001273216,1,1
0.0002560015,9.814982e-05,1,1
0.0001365593,1.12828e-05,1,1
-6.544382e-06,-8.838737e-05,1,1
-0.000142031,-0.0001439758,1,1
-0.0002483458,-0.0001126972,1,1
-0.0003230579,1.403791e-05,1,1
-0.0003750809,0.000200413,1,1
-0.0004143007,0.0003871123,1,1
-0.0004504412,0.000517575,1,1
-0.0004851232,0.0005610085,1,1
-0.0005074882,0.0005195198,1,1
-0.0005006815,0.0004190393,1,1
-0.0004554653,0.0002968419,1,1
-0.0003763774,0.0001827479,1,1
-0.0002856209,0.0001004187,1,1
-0.0002073433,5.747142e-05,1,1
-0.0001616409,4.45062e-05,1,1
-0.0001561307,4.434413e-05,1,1
-0.0001806025,3.98063e-05,1,1
-0.0002086398,2.39239e-05,1,1
-0.000216419,2.623614e-07,1,1
-0.0001925954,-2.339918e-05,1,1
-0.0001431655,-3.717473e-05,1,1
-8.757704e-05,-3.620233e-05,1,1
-4.641245e-05,-2.437157e-05,1,1
-2.955766e-05,-1.156841e-05,1,1
-3.717473e-05,-3.627206e-06,1,1
-5.386745e-05,-2.654814e-06,1,1
-6.06742e-05,-6.058186e-06,1,1
-3.68506e-05,-8.489166e-06,1,1
3.332369e-05,-7.192643e-06,1,1
0.0001543865,-2.238346e-07,1,1
0.0003034866,1.112074e-05,1,1
0.0004410801,2.278944e-05,1,1
0.0005119027,3.089271e-05,1,1
0.0004608521,3.154097e-05,1,1
0.0002655633,2.165498e-05,1,1
-4.106429e-05,1.720949e-06,1,1
-0.0003724878,-2.356124e-05,1,1
-0.0006280648,-4.706071e-05,1,1
-0.0007385933,-6.326724e-05,1,1
-0.0006962943,-7.137051e-05,1,1
-0.0005488148,-7.509801e-05,1,1
-0.000365357,-8.287715e-05,1,1
-0.0002008607,-0.0001029732,1,1
-7.590833e-05,-0.0001361966,1,1
1.776542e-05,-0.0001815749,1,1
9.944634e-05,-0.0002348944,1,1
0.000185503,-0.0002903207,1,1
0.0002825802,-0.0003399127,1,1
0.0003843572,-0.0003739464,1,1
0.0004725208,-0.0003885323,1,1
0.00052503,-0.0003854531,1,1
0.0005336195,-0.0003656811,1,1
0.0005162785,-0.0003345645,1,1
0.0005008822,-0.0002964792,1,1
0.0005013684,-0.0002549905,1,1
0.0005080132,-0.0002125294,1,1
0.0004935893,-0.0001650443,1,1
0.0004392974,-0.0001005423,1,1
0.0003464339,-1.010982e-05,1,1
0.0002342847,9.879808e-05,1,1
0.0001182459,0.0001983062,1,1
1.720949e-06,0.0002569738,1,1
-0.0001263107,0.0002577842,1,1
-0.0002750866,0.0002073819,1,1
-0.0004412035,0.0001279698,1,1
-0.0006091032,4.790957e-05,1,1
-0.0007604721,-1.010982e-05,1,1
-0.0008810487,-3.733679e-05,1,1
-0.0009588401,-3.668853e-05,1,1
-0.0009873635,-2.339918e-05,1,1
-0.0009721294,-1.432352e-05,1,1
-0.0009298304,-1.821308e-05,1,1
-0.0008750523,-3.409549e-05,1,1
-0.0008137916,-5.046408e-05,1,1
-0.0007379451,-5.937768e-05,1,1
-0.0006283889,-5.678463e-05,1,1
-0.0004710235,-4.009191e-05,1,1
-0.0002626076,-5.247859e-06,1,1
-1.740276e-05,4.45062e-05,1,1
0.0002337985,9.280167e-05,1,1
0.0004577728,0.0001180839,1,1
0.0006332897,0.0001098185,1,1
0.0007637524,7.918817e-05,1,1
0.0008671501,4.871989e-05,1,1
0.0009776788,3.737532e-05,1,1
0.001122079,4.645098e-05,1,1
0.001303268,6.703327e-05,1,1
0.001506013,9.26396e-05,1,1
0.001711998,0.000121001,1,1
0.001897888,0.0001521176,1,1
0.002035806,0.0001890685,1,1
0.002105332,0.0002383363,1,1
0.00209577,0.0003153174,1,1
0.002004365,0.0004326527,1,1
0.001834844,0.0005785116,1,1
0.001597742,0.0007125397,1,1
0.001301324,0.0007908173,1,1
0.0009575827,0.0007898449,1,1
0.0005885597,0.0007177258,1,1
0.0002284504,0.0006088178,1,1
-8.709085e-05,0.0004994237,1,1
-0.0003397507,0.0004114222,1,1
-0.0005347152,0.0003470822,1,1
-0.0006954839,0.0002976523,1,1
-0.0008408565,0.0002517878,1,1
-0.0009821774,0.0002039785,1,1
-0.001134843,0.0001563313,1,1
-0.001322515,0.0001197045,1,1
-0.00154811,0.0001004187,1,1
-0.001785859,9.328786e-05,1,1
-0.001993789,8.372601e-05,1,1
-0.002129276,6.087479e-05,1,1
-0.002169144,2.408596e-05,1,1
-0.002107559,-1.416145e-05,1,1
-0.001959269,-4.203669e-05,1,1
-0.001750691,-5.532604e-05,1,1
-0.001512293,-5.69467e-05,1,1
-0.001269519,-5.516398e-05,1,1
-0.001034525,-6.051213e-05,1,1
-0.0008040677,-7.817725e-05,1,1
-0.00056648,-0.0001036215,1,1
-0.0003152788,-0.0001136696,1,1
-5.59743e-05,-8.320128e-05,1,1
0.0001961994,-7.516774e-06,1,1
0.0004247115,8.777764e-05,1,1
0.0006172452,0.0001620036,1,1
0.0007575939,0.0001824238,1,1
0.0008383025,0.0001446626,1,1
0.0008736328,6.670914e-05,1,1
0.0008984288,-2.615429e-05,1,1
0.0009530449,-0.0001126972,1,1
0.001060818,-0.0001802784,1,1
0.001219643,-0.0002256567,1,1
0.00140537,-0.0002541802,1,1
0.001591745,-0.0002742763,1,1
0.001754459,-0.0002930758,1,1
0.001882653,-0.0003144685,1,1
0.001975031,-0.0003361852,1,1
0.002031916,-0.0003493125,1,1
0.002050392,-0.0003501228,1,1
0.002015872,-0.0003403989,1,1
0.001918632,-0.0003253268,1,1
0.001759159,-0.0003099306,1,1
0.001550905,-0.0002977757,1,1
0.001303593,-0.0002831898,1,1
0.001019978,-0.0002664971,1,1
0.0006979538,-0.0002470493,1,1
0.0003469201,-0.0002267911,1,1
-1.529591e-05,-0.0002071812,1,1
-0.000360495,-0.0001874093,1,1
-0.0006599916,-0.0001655305,1,1
-0.0009004966,-0.0001404103,1,1
-0.001082334,-0.0001151281,1,1
-0.001214741,-9.373552e-05,1,1
-0.001305012,-8.093236e-05,1,1
-0.001358493,-7.639453e-05,1,1
-0.001377617,-7.542214e-05,1,1
-0.001362869,-7.380149e-05,1,1
-0.001311008,-7.023606e-05,1,1
-0.001221872,-6.229485e-05,1,1
-0.001101782,-4.625038e-05,1,1
-0.0009515471,-2.129233e-05,1,1
-0.0007826751,7.069105e-06,1,1
-0.000613803,3.056858e-05,1,1
-0.0004711856,4.418206e-05,1,1
-0.000365519,4.985435e-05,1,1
-0.0002942103,5.131294e-05,1,1
-0.000246239,5.309566e-05,1,1
-0.000208964,6.03886e-05,1,1
-0.0001786577,7.432621e-05,1,1
-0.0001627754,8.891209e-05,1,1
-0.0001791439,9.31258e-05,1,1
-0.0002507768,7.870197e-05,1,1
-0.0003841565,4.855783e-05,1,1
-0.0005745832,1.987227e-05,1,1
-0.0008019609,2.424803e-05,1,1
-0.001036145,8.502253e-05,1,1
-0.001244399,0.0001913374,1,1
-0.001401602,0.0002983005,1,1
-0.001496735,0.0003626405,1,1
-0.001537089,0.0003657197,1,1
-0.001534496,0.0003222862,1,1
-0.001500948,0.0002689667,1,1
-0.001443901,0.0002323399,1,1
-0.001356872,0.0002132162,1,1
-0.001215227,0.000195227,1,1
-0.0009859049,0.0001626518,1,1
-0.0006530228,0.000110953,1,1
-0.0002499665,4.82337e-05,1,1
0.0001519555,-1.108221e-05,1,1
0.0004720346,-5.127441e-05,1,1
0.0006598685,-6.132246e-05,1,1
0.0007123777,-4.219875e-05,1,1
0.0006707268,-3.627206e-06,1,1
0.0005997422,4.239934e-05,1,1
0.0005668429,8.356394e-05,1,1
0.0006050903,0.0001106288,1,1
0.0007086502,0.0001197045,1,1
0.0008400852,0.0001145184,1,1
0.0009596896,9.847395e-05,1,1
0.001042019,7.57848e-05,1,1
0.00107346,4.985435e-05,1,1
0.001040722,2.116879e-05,1,1
0.0009371624,-9.947754e-06,1,1
0.0007713694,-4.187462e-05,1,1
0.00056976,-7.282909e-05,1,1
0.0003715541,-9.973194e-05,1,1
0.0002080301,-0.0001185315,1,1
9.409818e-05,-0.0001329553,1,1
2.100672e-05,-0.0001451102,1,1
-4.074016e-05,-0.0001515928,1,1
-0.0001255003,-0.0001509446,1,1
-0.0002493182,-0.0001460826,1,1
-0.0004011734,-0.000137169,1,1
-0.0005488148,-0.0001250141,1,1
-0.0006573986,-0.0001120489,1,1
-0.0007078009,-0.0001013526,1,1
-0.0007053699,-9.308726e-05,1,1
-0.000665826,-9.033215e-05,1,1
-0.0006044033,-9.308726e-05,1,1
-0.0005280706,-9.924574e-05,1,1
-0.0004352071,-0.0001071869,1,1
-0.0003259751,-0.0001167488,1,1
-0.0001987538,-0.0001264727,1,1
-4.90055e-05,-0.0001352242,1,1
0.0001302388,-0.000144462,1,1
0.000336548,-0.00015451,1,1
0.0005567948,-0.0001652063,1,1
0.0007710453,-0.0001775233,1,1
0.0009624446,-0.0001930815,1,1
0.001105386,-0.0002104225,1,1
0.001170699,-0.0002250084,1,1
0.001143958,-0.0002217671,1,1
0.001044774,-0.0001828714,1,1
0.0009139871,-0.000104918,1,1
0.0007877381,-6.706447e-06,1,1
0.0006823955,9.069481e-05,1,1
0.0005903424,0.0001764274,1,1
0.0004845136,0.0002462775,1,1
0.0003428685,0.0002960316,1,1
0.0001722137,0.0003196932,1,1
1.533444e-05,0.0003172622,1,1
-7.299116e-05,0.0002978143,1,1
-5.953974e-05,0.0002726942,1,1
4.871989e-05,0.0002529222,1,1
0.0002008992,0.0002406053,1,1
0.0003401134,0.0002329882,1,1
0.0004302217,0.0002242366,1,1
0.0004509661,0.0002138645,1,1
0.000401212,0.0002093267,1,1
0.0002987867,0.0002179161,1,1
0.0001764274,0.0002388225,1,1
6.444023e-05,0.000262322,1,1
-1.62683e-05,0.00027707,1,1
-6.342931e-05,0.0002767458,1,1
-9.162867e-05,0.0002608634,1,1
-0.0001216107,0.0002337985,1,1
-0.0001580754,0.0002023578,1,1
-0.0001783336,0.0001725378,1,1
-0.0001575893,0.0001479039,1,1
-8.384954e-05,0.000125863,1,1
3.267542e-05,0.0001028497,1,1
0.0001615174,7.90261e-05,1,1
0.0002715597,6.03886e-05,1,1
0.0003483787,5.163707e-05,1,1
0.0004068843,5.260946e-05,1,1
0.0004751139,5.747142e-05,1,1
0.0005543638,5.763349e-05,1,1
0.0006238899,4.807163e-05,1,1
0.0006631098,2.667901e-05,1,1
0.0006759129,1.558884e-06,1,1
0.0006776956,-2.177852e-05,1,1
0.0006767232,-3.863332e-05,1,1
0.0006639201,-5.013995e-05,1,1
0.0006109247,-5.662256e-05,1,1
0.0004924549,-6.504996e-05,1,1
0.0003111037,-8.255302e-05,1,1
0.0001044704,-0.0001096179,1,1
-7.752899e-05,-0.0001387897,1,1
-0.0002006986,-0.0001629374,1,1
-0.0002545043,-0.0001754164,1,1
-0.0002361909,-0.0001776853,1,1
-0.0001551583,-0.0001736337,1,1
-4.819517e-05,-0.0001700683,1,1
1.873781e-05,-0.0001707166,1,1
-1.25408e-05,-0.0001747682,1,1
-0.0001502963,-0.0001776853,1,1
-0.0003541745,-0.0001781716,1,1
-0.0005604835,-0.0001728234,1,1
-0.0007112043,-0.0001624512,1,1
-0.0007862405,-0.0001493239,1,1
-0.0008034194,-0.0001344139,1,1
-0.0008120089,-0.0001164247,1,1
-0.0008651663,-9.875954e-05,1,1
-0.0009920634,-8.368748e-05,1,1
-0.001174225,-7.299116e-05,1,1
-0.001349741,-7.088431e-05,1,1
-0.001443091,-8.206682e-05,1,1
-0.001401602,-0.0001079973,1,1
-0.001212958,-0.0001438137,1,1
-0.0009027654,-0.000179306,1,1
-0.0005256396,-0.0001968091,1,1
-0.0001418689,-0.0001835197,1,1
0.0002115956,-0.0001415448,1,1
0.0005206542,-8.482193e-05,1,1
0.0007862795,-3.328516e-05,1,1
0.00100604,-5.734056e-06,1,1
0.001176533,-5.085794e-06,1,1
0.001294193,-2.031993e-05,1,1
0.00135594,-3.312309e-05,1,1
0.001360316,-2.680255e-05,1,1
0.001311858,4.151929e-06,1,1
0.001221101,4.693717e-05,1,1
0.001116407,8.437427e-05,1,1
0.001033267,0.0001047945,1,1
0.0009818925,0.0001080358,1,1
0.0009282488,0.0001044704,1,1
0.0008293889,0.0001069013,1,1
0.0006608408,0.0001195424,1,1
0.0004279528,0.0001396385,1,1
0.0001543865,0.0001597346,1,1
-0.0001232314,0.0001773998,1,1
-0.0003559572,0.0001955511,1,1
-0.000514295,0.0002179161,1,1
-0.0005992171,0.0002467637,1,1
-0.0006345474,0.0002782044,1,1
-0.0006603158,0.0003046211,1,1
-0.0007089354,0.0003138588,1,1
-0.0007891576,0.0003013798,1,1
-0.0008844521,0.0002749631,1,1
-0.000968726,0.0002470879,1,1
-0.001024476,0.0002315296,1,1
-0.001048138,0.0002302331,1,1
-0.0010436,0.0002334744,1,1
-0.001018156,0.0002310434,1,1
-0.0009794224,0.0002180782,1,1
-0.0009358267,0.0001921477,1,1
-0.0009001724,0.000158114,1,1
-0.0008829935,0.0001214872,1,1
-0.0008872072,8.988449e-05,1,1
-0.0009050344,6.768154e-05,1,1
-0.0009226995,5.633696e-05,1,1
-0.0009265891,5.244739e-05,1,1
-0.0009061688,5.244739e-05,1,1
-0.0008635456,4.790957e-05,1,1
-0.0008136295,3.202716e-05,1,1
-0.0007685754,5.86492e-07,1,1
-0.0007316245,-3.944364e-05,1,1
-0.0006974287,-6.926366e-05,1,1
-0.0006593434,-6.683268e-05,1,1
-0.0006180168,-2.939559e-05,1,1
-0.0005830107,2.359977e-05,1,1
-0.0005585388,6.492643e-05,1,1
-0.0005348772,7.52986e-05,1,1
-0.0004985746,5.19612e-05,1,1
-0.0004352071,1.209313e-05,1,1
-0.0003399127,-2.0482e-05,1,1
-0.0002188499,-2.874733e-05,1,1
-8.465986e-05,-9.947754e-06,1,1
4.839576e-05,2.262738e-05,1,1
0.0001696206,4.904402e-05,1,1
0.0002738286,5.52025e-05,1,1
0.0003595612,4.142696e-05,1,1
0.0004303838,1.452411e-05,1,1
0.0004958582,-1.869928e-05,1,1
0.0005700842,-5.402952e-05,1,1
0.0006634339,-8.935975e-05,1,1
0.0007848209,-0.0001191798,1,1
0.0009348936,-0.0001389517,1,1
0.001105386,-0.0001499722,1,1
0.001270207,-0.0001549962,1,1
0.001394512,-0.0001579134,1,1
0.001454476,-0.0001562927,1,1
0.001441835,-0.0001496481,1,1
0.001367447,-0.0001355484,1,1
0.001245087,-0.0001144799,1,1
0.001082049,-9.211487e-05,1,1
0.0008929186,-7.769106e-05,1,1
0.0007088122,-7.850138e-05,1,1
0.0005668429,-9.130454e-05,1,1
0.0004790034,-0.0001036215,1,1
0.0004250357,-0.0001045939,1,1
0.0003686369,-9.470791e-05,1,1
0.0002879283,-7.914964e-05,1,1
0.0001908512,-6.699475e-05,1,1
0.0001046324,-6.958779e-05,1,1
5.52025e-05,-9.260107e-05,1,1
4.628891e-05,-0.0001389517,1,1
6.200925e-05,-0.0002036158,1,1
7.853991e-05,-0.0002729798,1,1
8.032264e-05,-0.000333268,1,1
6.946425e-05,-0.0003796187,1,1
6.022653e-05,-0.000410249,1,1
6.768154e-05,-0.0004178661,1,1
0.0001081979,-0.0003956632,1,1
0.0001882582,-0.0003418575,1,1
0.0002981384,-0.0002626076,1,1
0.0004067223,-0.000164396,1,1
0.0004772207,-5.402952e-05,1,1
0.0004866205,5.406805e-05,1,1
0.0004349216,0.0001592484,1,1
0.0003414099,0.0002726942,1,1
0.0002376881,0.000398619,1,1
0.0001586002,0.0005167646,1,1
0.0001231079,0.0005885597,1,1
0.000138342,0.0005883976,1,1
0.000200251,0.00052503,1,1
0.0002942489,0.0004354078,1,1
0.0004029947,0.0003521062,1,1
0.0005081752,0.0002880904,1,1
0.0005830494,0.0002373639,1,1
0.000609466,0.0001910133,1,1
0.00058937,0.0001453108,1,1
0.0005313505,0.0001038221,1,1
0.0004470765,7.756752e-05,1,1
0.0003449753,7.6271e-05,1,1
0.0002342847,9.717743e-05,1,1
0.0001167873,0.000123432,1,1
-7.678839e-06,0.0001349386,1,1
-0.0001358725,0.0001245665,1,1
-0.0002630937,9.993253e-05,1,1
-0.0003823738,7.432621e-05,1,1
-0.0004812336,5.795762e-05,1,1
-0.0005501114,5.066468e-05,1,1
-0.000586414,4.369587e-05,1,1
-0.0005903036,3.105477e-05,1,1
-0.0005554595,2.084466e-05,1,1
-0.0004611376,2.700314e-05,1,1
-0.0002974516,5.601284e-05,1,1
-8.547019e-05,9.814982e-05,1,1
0.0001252147,0.0001349386,1,1
0.0002767458,0.0001550348,1,1
0.000331848,0.0001595726,1,1
0.0002827423,0.0001551968,1,1
0.0001388282,0.0001474177,1,1
-8.093236e-05,0.0001410971,1,1
-0.0003493125,0.0001354248,1,1
-0.0006282268,0.000128456,1,1
-0.0008719731,0.0001174356,1,1
-0.00104749,0.0001018773,1,1
-0.001146187,8.04847e-05,1,1
-0.001174711,5.050261e-05,1,1
-0.001144081,8.527692e-06,1,1
-0.001061914,-4.349527e-05,1,1
-0.0009374474,-0.0001028112,1,1
-0.0007815406,-0.0001606685,1,1
-0.0005971103,-0.0002104225,1,1
-0.0003919357,-0.0002494803,1,1
-0.0001801163,-0.0002750866,1,1
8.527692e-06,-0.0002890242,1,1
0.0001365593,-0.0002956689,1,1
0.000180479,-0.0002998826,1,1
0.0001488763,-0.0003016653,1,1
7.059871e-05,-0.0003011791,1,1
-1.67545e-05,-0.0002956689,1,1
-8.352541e-05,-0.0002812451,1,1
-0.000117235,-0.0002546664,1,1
-0.00012469,-0.0002183637,1,1
-0.0001255003,-0.0001712027,1,1
-0.0001349001,-0.0001209625,1,1
-0.0001600202,-7.65566e-05,1,1
-0.0001947022,-4.608832e-05,1,1
-0.000223874,-3.296103e-05,1,1
-0.0002310048,-3.587821e-05,1,1
-0.0002125294,-4.527799e-05,1,1
-0.0001828714,-5.581224e-05,1,1
-0.0001558065,-6.48879e-05,1,1
-0.0001365208,-7.23429e-05,1,1
-0.0001276072,-7.947377e-05,1,1
-0.0001303623,-8.806324e-05,1,1
-0.0001402483,-9.713889e-05,1,1
-0.0001454344,-0.0001034594,1,1
-0.0001318209,-0.0001063766,1,1
-9.649064e-05,-0.0001044318,1,1
-4.560212e-05,-0.0001015147,1,1
1.257933e-05,-9.892161e-05,1,1
7.140904e-05,-0.0001039456,1,1
0.0001347766,-0.0001138316,1,1
0.0002060853,-0.0001203142,1,1
0.0002809595,-0.0001041077,1,1
0.0003456236,-4.608832e-05,1,1
0.0003859779,5.536457e-05,1,1
0.0003947294,0.0001728619,1,1
0.0003696093,0.0002662116,1,1
0.0003198552,0.0003089969,1,1
0.0002616738,0.0003031625,1,1
0.0002149989,0.0002743149,1,1
0.000195389,0.0002475741,1,1
0.0002041406,0.0002320158,1,1
0.0002287745,0.0002240746,1,1
0.0002478982,0.0002156472,1,1
0.0002483844,0.0002000889,1,1
0.0002261814,0.0001806411,1,1
0.0001876099,0.000163138,1,1
0.0001420695,0.0001574657,1,1
0.0001005808,0.0001663793,1,1
7.027458e-05,0.0001856651,1,1
5.698522e-05,0.0002049509,1,1
6.638502e-05,0.000217754,1,1
9.814982e-05,0.0002184023,1,1
0.0001410971,0.0002062474,1,1
0.0001712413,0.0001850168,1,1
0.0001717275,0.0001597346,1,1
0.0001391524,0.0001342904,1,1
7.805372e-05,0.0001141943,1,1
-5.409925e-06,0.0001039842,1,1
-9.859748e-05,0.0001052807,1,1
-0.0001726613,0.0001158149,1,1
-0.0002044261,0.0001312112,1,1
-0.0001909747,0.0001453108,1,1
-0.0001528894,0.0001543865,1,1
-0.0001164247,0.000155683,1,1
-9.908367e-05,0.000145797,1,1
-0.0001070249,0.0001227837,1,1
-0.0001331174,8.79397e-05,1,1
-0.0001556445,4.580272e-05,1,1
-0.0001455964,1.002961e-07,1,1
-8.563225e-05,-3.782299e-05,1,1
1.484824e-05,-5.775702e-05,1,1
0.0001328318,-6.116039e-05,1,1
0.0002414156,-6.06742e-05,1,1
0.0003237448,-6.829127e-05,1,1
0.0003765781,-8.660465e-05,1,1
0.0003999155,-0.0001092938,1,1
0.0003910019,-0.0001298761,1,1
0.0003529166,-0.000142031,1,1
0.0002983005,-0.0001430034,1,1
0.0002412535,-0.0001366828,1,1
0.0001867996,-0.0001313347,1,1
0.000128294,-0.0001336036,1,1
6.395404e-05,-0.0001441378,1,1
-4.113403e-06,-0.0001605064,1,1
-7.023606e-05,-0.0001752544,1,1
-0.0001314967,-0.0001859507,1,1
-0.0001885437,-0.0001922712,1,1
-0.0002465631,-0.0001938919,1,1
-0.0003065273,-0.0001921092,1,1
-0.0003591985,-0.0001887058,1,1
-0.0003844807,-0.0001827094,1,1
-0.0003632501,-0.0001708786,1,1
-0.0002942103,-0.0001511067,1,1
-0.0002003745,-0.0001248521,1,1
-0.0001289037,-9.746302e-05,1,1
-0.0001229073,-7.412562e-05,1,1
-0.0001951884,-5.59743e-05,1,1
-0.0003092824,-4.203669e-05,1,1
-0.0004003631,-2.907146e-05,1,1
-0.0004230522,-1.513384e-05,1,1
-0.0003765395,7.485573e-07,1,1
-0.0003018274,1.727922e-05,1,1
-0.000243808,3.316162e-05,1,1
-0.0002237119,4.402e-05,1,1
-0.0002280877,4.628891e-05,1,1
-0.0002207947,4.191315e-05,1,1
-0.0001716889,3.170304e-05,1,1
-6.893953e-05,1.841368e-05,1,1
7.594687e-05,4.962256e-06,1,1
0.0002367157,-2.006553e-06,1,1
0.000391164,2.369211e-06,1,1
0.0005388056,1.792748e-05,1,1
0.0007000606,4.045456e-05,1,1
0.0008875704,7.140904e-05,1,1
0.00109858,0.0001073875,1,1
0.001318665,0.0001409351,1,1
0.001532105,0.0001670276,1,1
0.001715888,0.0001851789,1,1
0.001844568,0.0002008992,1,1
0.001900319,0.0002164575,1,1
0.001876657,0.0002320158,1,1
0.001785738,0.0002454672,1,1
0.001656248,0.0002594049,1,1
0.001525785,0.0002793389,1,1
0.001422873,0.000304459,1,1
0.001343461,0.0003256896,1,1
0.001262266,0.0003339549,1,1
0.001150116,0.0003232586,1,1
0.0009802718,0.0002971661,1,1
0.0007373357,0.0002605393,1,1
0.0004341113,0.0002214815,1,1
0.0001075496,0.000185503,1,1
-0.0002068571,0.0001540623,1,1
-0.0004992229,0.0001302388,1,1
-0.0007682513,0.0001164632,1,1
-0.0009956289,0.000113546,1,1
-0.00115105,0.0001154908,1,1
-0.001211986,0.0001182459,1,1
-0.001182652,0.0001180839,1,1
-0.001096109,0.0001119254,1,1
-0.0009987081,9.912221e-05,1,1
-0.0009282097,8.323981e-05,1,1
-0.0009048723,6.881599e-05,1,1
-0.000926427,5.860588e-05,1,1
-0.0009758569,5.050261e-05,1,1
-0.001025449,3.899597e-05,1,1
-0.001055593,1.679302e-05,1,1
-0.001055269,-1.724069e-05,1,1
-0.001031931,-5.483985e-05,1,1
-0.0009930359,-8.692878e-05,1,1
-0.000941499,-0.0001109144,1,1
-0.000866949,-0.0001250141,1,1
-0.0007560964,-0.0001235555,1,1
-0.000603593,-0.0001086455,1,1
-0.0004266177,-8.854943e-05,1,1
-0.0002718453,-7.542214e-05,1,1
-0.0001809267,-7.18567e-05,1,1
-0.000176713,-7.201877e-05,1,1
-0.0002541802,-7.023606e-05,1,1
-0.00038286,-6.796714e-05,1,1
-0.0005121881,-6.829127e-05,1,1
-0.0005932208,-7.380149e-05,1,1
-0.000593869,-8.044617e-05,1,1
-0.000507002,-8.838737e-05,1,1
-0.0003491504,-0.0001007043,1,1
-0.0001572651,-0.0001216107,1,1
2.165498e-05,-0.0001485136,1,1
0.0001326697,-0.0001778474,1,1
0.000125863,-0.000204102,1,1
-1.318906e-05,-0.0002271153,1,1
-0.0002332737,-0.0002449425,1,1
-0.0004416897,-0.0002572594,1,1
-0.0005611319,-0.0002580697,1,1
-0.0005771763,-0.0002415391,1,1
-0.0005355255,-0.0002094502,1,1
-0.0005117019,-0.0001720131,1,1
-0.0005718282,-0.0001442999,1,1
-0.0007298418,-0.0001350622,1,1
-0.0009405267,-0.0001430034,1,1
-0.001121716,-0.0001598582,1,1
-0.001200642,-0.0001739578,1,1
-0.001145215,-0.0001754164,1,1
-0.0009722915,-0.0001637477,1,1
-0.0007259523,-0.0001426792,1,1
-0.0004481723,-0.0001151281,1,1
-0.0001684476,-8.125649e-05,1,1
9.393612e-05,-4.446767e-05,1,1
0.000319369,-1.270286e-05,1,1
0.000495372,4.151929e-06,1,1
0.0006211348,7.555301e-06,1,1
0.0007024916,6.744974e-06,1,1
0.0007522457,1.144487e-05,1,1
0.0007861174,2.538249e-05,1,1
0.0008177201,4.758544e-05,1,1
0.0008524022,7.221937e-05,1,1
0.0008875704,9.604298e-05,1,1
0.0009203076,0.0001138702,1,1
0.0009511001,0.0001213252,1,1
0.0009886993,0.0001203528,1,1
0.001042829,0.0001163011,1,1
0.001115597,0.0001132219,1,1
0.00118885,0.0001125736,1,1
0.001235687,0.0001175977,1,1
0.001236173,0.0001271595,1,1
0.001176533,0.0001402868,1,1
0.001063411,0.0001545486,1,1
0.0009173905,0.0001694586,1,1
0.0007791486,0.0001842065,1,1
0.0006919574,0.0001963614,1,1
0.0006671614,0.0002013854,1,1
0.0006694303,0.0001986303,1,1
0.0006407447,0.0001902029,1,1
0.000544964,0.0001764274,1,1
0.0003793332,0.0001598967,1,1
0.0001513072,0.0001469315,1,1
-0.0001284175,0.0001420695,1,1
-0.0004271038,0.0001470936,1,1
-0.0006933771,0.0001560072,1,1
-0.0008748902,0.000155521,1,1
-0.0009478196,0.0001355869,1,1
-0.0009123273,9.798775e-05,1,1
-0.0008026091,4.547859e-05,1,1
-0.0006643674,-2.015787e-05,1,1
-0.0005348772,-9.017008e-05,1,1
-0.0004395829,-0.0001522411,1,1
-0.0003865875,-0.0001955125,1,1
-0.0003666535,-0.0002185258,1,1
-0.0003694086,-0.0002272773,1,1
-0.0003797808,-0.0002347323,1,1
-0.0003820497,-0.0002473734,1,1
-0.0003579019,-0.0002642282,1,1
-0.0002932379,-0.0002658489,1,1
-0.000186761,-0.0002285739,1,1
-5.69467e-05,-0.0001436516,1,1
6.055066e-05,-3.004385e-05,1,1
0.0001334801,8.129502e-05,1,1
0.0001472556,0.0001739964,1,1
0.0001070634,0.0002417397,1,1
2.76514e-05,0.0002806354,1,1
-7.688073e-05,0.0002877662,1,1
-0.00019924,0.0002660495,1,1
-0.000335699,0.0002245608,1,1
-0.0004817198,0.0001733481,1,1
-0.0006303337,0.0001235941,1,1
-0.0007619307,7.886404e-05,1,1
-0.00085447,4.207521e-05,1,1
-0.0008992,1.501031e-05,1,1
-0.0009082757,-1.844488e-06,1,1
-0.0008920691,-1.027188e-05,1,1
-0.0008534976,-9.623623e-06,1,1
-0.0007826751,-5.734056e-06,1,1
-0.0006723086,-4.923729e-06,1,1
-0.0005202913,-1.027188e-05,1,1
-0.0003342404,-1.788895e-05,1,1
-0.0001340898,-2.145439e-05,1,1
5.423012e-05,-2.129233e-05,1,1
0.0002080301,-2.064406e-05,1,1
0.0003166139,-2.437157e-05,1,1
0.0003843572,-3.166451e-05,1,1
0.0004342734,-4.284701e-05,1,1
0.0004905101,-5.500191e-05,1,1
0.0005678153,-6.359137e-05,1,1
0.0006679717,-6.326724e-05,1,1
0.0007838485,-5.419158e-05,1,1
0.0009016701,-3.474375e-05,1,1
0.001004744,-4.761664e-06,1,1
0.001079294,3.251336e-05,1,1
0.001130993,6.881599e-05,1,1
0.001183178,9.717743e-05,1,1
0.0012634,0.0001161391,1,1
0.001380898,0.0001227837,1,1
0.001510875,0.0001187321,1,1
0.001603414,0.0001039842,1,1
0.001622376,8.534666e-05,1,1
0.001554957,6.995045e-05,1,1
0.001417363,6.346784e-05,1,1
0.001235039,6.654708e-05,1,1
0.001023381,7.092284e-05,1,1
0.000780121,6.914012e-05,1,1
0.0005115786,5.747142e-05,1,1
0.0002470879,3.55926e-05,1,1
3.073064e-05,7.879432e-06,1,1
-0.0001084835,-2.275091e-05,1,1
-0.0001755785,-5.095028e-05,1,1
-0.0002036158,-6.893953e-05,1,1
-0.0002310048,-7.444975e-05,1,1
-0.0002793003,-7.137051e-05,1,1
-0.0003522297,-6.602235e-05,1,1
-0.0004400691,-6.035007e-05,1,1
-0.0005232086,-5.402952e-05,1,1
-0.0005920863,-4.511593e-05,1,1
-0.0006497815,-3.749886e-05,1,1
-0.0007058561,-3.701266e-05,1,1
-0.0007607963,-3.409549e-05,1,1
-0.0008139537,-8.327101e-06,1,1
-0.0008701903,5.260946e-05,1,1
-0.0009429576,0.0001391524,1,1
-0.001044086,0.0002214815,1,1
-0.001168877,0.0002735045,1,1
-0.001287508,0.0002913317,1,1
-0.00136449,0.0002901973,1,1
-0.001375996,0.0002900352,1,1
-0.001322191,0.0002981384,1,1
-0.001211338,0.0003072141,1,1
-0.001061914,0.0003049452,1,1
-0.00088429,0.000284687,1,1
-0.000683005,0.0002469258,1,1
-0.0004583824,0.0001992786,1,1
-0.0002122053,0.0001503349,1,1
3.672706e-05,0.0001064152,1,1
0.0002619979,6.978839e-05,1,1
0.0004456179,3.93201e-05,1,1
0.0005708945,1.112074e-05,1,1
0.0006328035,-1.853722e-05,1,1
0.0006467411,-4.932962e-05,1,1
0.0006506307,-7.850138e-05,1,1
0.0006791542,-0.0001052422,1,1
0.0007511112,-0.0001318209,1,1
0.0008686088,-0.0001582375,1,1
0.00102403,-0.0001828714,1,1
0.001204733,-0.0002042641,1,1
0.001394512,-0.0002241981,1,1
0.001546529,-0.0002436459,1,1
0.001597418,-0.0002617972,1,1
0.001511847,-0.0002788141,1,1
0.001304241,-0.0002833519,1,1
0.001031809,-0.0002643903,1,1
0.0007597008,-0.0002177155,1,1
0.0005413986,-0.000152079,1,1
0.0004072085,-8.514606e-05,1,1
0.0003584268,-2.583016e-05,1,1
0.0003512959,1.744129e-05,1,1
0.000324393,4.045456e-05,1,1
0.0002316917,3.948217e-05,1,1
7.286763e-05,1.59827e-05,1,1
-0.0001065387,-2.339918e-05,1,1
-0.0002472114,-6.991193e-05,1,1
-0.0003044204,-0.0001162626,1,1
-0.0002621213,-0.0001543479,1,1
-0.0001287416,-0.0001812508,1,1
5.779555e-05,-0.0001950263,1,1
0.0002380122,-0.0001893541,1,1
0.0003496752,-0.0001737958,1,1
0.0003525924,-0.000164396,1,1
0.0002444948,-0.0001746061,1,1
6.346784e-05,-0.0002071812,1,1
-0.000132145,-0.0002515871,1,1
-0.0002898345,-0.0002875656,1,1
-0.0003804291,-0.0002961551,1,1
-0.0004167317,-0.0002664971,1,1
-0.0004353692,-0.0002094502,1,1
-0.0004625961,-0.0001449482,1,1
-0.0005073262,-8.82253e-05,1,1
-0.0005585388,-4.365734e-05,1,1
-0.0005894933,-1.027188e-05,1,1
-0.0005773384,1.987227e-05,1,1
-0.0005136467,5.471631e-05,1,1
-0.000415111,9.199134e-05,1,1
-0.0003190063,0.0001261871,1,1
-0.0002708729,0.0001516314,1,1
-0.0003031239,0.0001637863,1,1
-0.0004154351,0.0001634622,1,1
-0.000578797,0.0001573037,1,1
-0.0007491275,0.0001508211,1,1
-0.0008808867,0.0001514693,1,1
-0.0009458748,0.0001634622,1,1
-0.0009377715,0.0001801549,1,1
-0.0008773212,0.0001902029,1,1
-0.0007996919,0.0001902029,1,1
-0.0007325969,0.0001825859,1,1
-0.0006872186,0.0001696206,1,1
-0.0006669604,0.0001543865,1,1
-0.0006603158,0.0001474177,1,1
-0.0006504298,0.0001697827,1,1
-0.0006129927,0.0002359054,1,1
-0.0005313118,0.0003397893,1,1
-0.0004154351,0.0004467524,1,1
-0.0002990722,0.0005182233,1,1
-0.0002183637,0.0005292437,1,1
-0.00018433,0.0004775448,1,1
-0.0001833576,0.0003835469,1,1
-0.0001901644,0.000279663,1,1
-0.0001934057,0.0001911753,1,1
-0.0002005366,0.0001299146,1,1
-0.0002172293,9.150514e-05,1,1
-0.0002400805,6.573675e-05,1,1
-0.0002527216,4.207521e-05,1,1
-0.000231329,1.112074e-05,1,1
-0.0001561307,-3.117831e-05,1,1
-2.761287e-05,-8.158062e-05,1,1
0.0001331559,-0.0001378173,1,1
0.0003023522,-0.0001898403,1,1
0.0004665244,-0.0002235498,1,1
0.0006154625,-0.0002303566,1,1
0.0007224257,-0.0002099363,1,1
0.0007556491,-0.0001739578,1,1
0.0007117294,-0.0001360346,1,1
0.0006193521,-0.0001110765,1,1
0.0005170888,-9.875954e-05,1,1
0.0004292493,-8.660465e-05,1,1
0.0003556717,-6.035007e-05,1,1
0.0002869559,-1.788895e-05,1,1
0.0002145127,2.489629e-05,1,1
0.0001394765,4.72613e-05,1,1
7.270556e-05,4.191315e-05,1,1
3.089271e-05,1.274139e-05,1,1
2.214118e-05,-2.501983e-05,1,1
4.304761e-05,-5.370539e-05,1,1
7.870197e-05,-6.132246e-05,1,1
0.0001107909,-4.608832e-05,1,1
0.000128294,-1.416145e-05,1,1
0.0001305629,2.003433e-05,1,1
0.000113384,4.175109e-05,1,1
6.800567e-05,4.466826e-05,1,1
-7.840905e-06,3.364782e-05,1,1
-0.0001044318,1.565857e-05,1,1
-0.0001994021,-2.492749e-06,1,1
-0.0002778417,-1.383732e-05,1,1
-0.000328082,-1.643037e-05,1,1
-0.00033813,-1.140634e-05,1,1
-0.0003018274,-5.479652e-07,1,1
-0.0002261429,9.66215e-06,1,1
-0.000137007,1.679302e-05,1,1
-7.315322e-05,2.214118e-05,1,1
-5.192267e-05,2.829966e-05,1,1
-5.69467e-05,3.364782e-05,1,1
-5.516398e-05,3.397195e-05,1,1
-1.869928e-05,2.846173e-05,1,1
5.860588e-05,1.873781e-05,1,1
0.0001641104,8.041497e-06,1,1
0.0002827423,1.720949e-06,1,1
0.0003973225,1.883015e-06,1,1
0.000497803,7.393236e-06,1,1
0.0005841838,1.582063e-05,1,1
0.0006614891,2.81376e-05,1,1
0.0007318255,4.045456e-05,1,1
0.0007964896,4.547859e-05,1,1
0.0008504574,4.126489e-05,1,1
0.0008825464,3.494434e-05,1,1
0.0008741189,3.13789e-05,1,1
0.0008092928,3.121684e-05,1,1
0.0006898505,2.927205e-05,1,1
0.0005388056,2.489629e-05,1,1
0.0003903536,1.9224e-05,1,1
0.0002699391,1.565857e-05,1,1
0.0001803169,1.582063e-05,1,1
0.00010366,2.505836e-05,1,1
2.424803e-05,4.320967e-05,1,1
-5.759496e-05,6.541262e-05,1,1
-0.0001280934,8.583286e-05,1,1
-0.0001750923,0.0001009049,1,1
-0.0002084778,0.0001106288,1,1
-0.0002504527,0.0001172735,1,1
-0.000313334,0.0001203528,1,1
-0.0003848048,0.0001175977,1,1
-0.0004420138,0.0001096565,1,1
-0.0004695649,0.0001049566,1,1
-0.0004661616,0.0001146805,1,1
-0.0004403932,0.0001373696,1,1
-0.000402794,0.0001592484,1,1
-0.0003621157,0.0001662173,1,1
-0.0003248407,0.0001537382,1,1
-0.0002906449,0.000128294,1,1
-0.0002489941,0.00010366,1,1
-0.0002026434,8.259155e-05,1,1
-0.0001807646,6.168512e-05,1,1
-0.0002167431,3.737532e-05,1,1
-0.0003159271,9.338019e-06,1,1
-0.0004609755,-1.788895e-05,1,1
-0.0006300096,-4.074016e-05,1,1
-0.0008013126,-5.516398e-05,1,1
-0.00094393,-6.0188e-05,1,1
-0.001023342,-5.856735e-05,1,1
-0.001014753,-5.710876e-05,1,1
-0.0009087619,-6.472583e-05,1,1
-0.0007142835,-8.287715e-05,1,1
-0.0004504412,-0.0001042698,1,1
-0.0001334415,-0.0001201522,1,1
0.0002158093,-0.0001284175,1,1
0.0005571189,-0.0001349001,1,1
0.0008342508,-0.0001465688,1,1
0.001001016,-0.0001656925,1,1
0.001043639,-0.0001890299,1,1
0.0009857821,-0.0002110708,1,1
0.0008747673,-0.0002245222,1,1
0.0007567836,-0.0002261429,1,1
0.0006684579,-0.000216419,1,1
0.0006282657,-0.0001945401,1,1
0.0006422033,-0.0001666649,1,1
0.0007084881,-0.0001397621,1,1
0.0008096169,-0.0001175591,1,1
0.0009109079,-9.730096e-05,1,1
0.0009716824,-7.299116e-05,1,1
0.0009595275,-4.997789e-05,1,1
0.0008629364,-4.333321e-05,1,1
0.0006916333,-6.310517e-05,1,1
0.0004743035,-0.0001044318,1,1
0.0002328261,-0.0001498101,1,1
-1.967167e-05,-0.0001827094,1,1
-0.0002609869,-0.0001956746,1,1
-0.0004702132,-0.0001872472,1,1
-0.0006371404,-0.0001572651,1,1
-0.0007536653,-0.0001105903,1,1
-0.000812333,-5.937768e-05,1,1
-0.0008076332,-1.788895e-05,1,1
-0.0007389174,8.689758e-06,1,1
-0.0006170443,2.943412e-05,1,1
-0.0004687546,6.735741e-05,1,1
-0.0003198166,0.0001443384,1,1
-0.0001872472,0.0002558394,1,1
-7.979791e-05,0.0003665301,1,1
3.503668e-06,0.0004341113,1,1
5.649903e-05,0.0004350837,1,1
7.67572e-05,0.0003804677,1,1
7.351589e-05,0.0003034866,1,1
6.476436e-05,0.000235095,1,1
7.400208e-05,0.0001924718,1,1
0.0001143563,0.0001811273,1,1
0.0001871237,0.0001940925,1,1
0.0002854973,0.0002169437,1,1
0.0003982949,0.000235095,1,1
0.0005206542,0.0002397949,1,1
0.000663596,0.0002247229,1,1
0.00084203,0.0001947408,1,1
0.001067463,0.0001597346,1,1
0.001333089,0.0001339663,1,1
0.001606655,0.0001326697,1,1
0.00184554,0.0001602208,1,1
0.00201101,0.0001957132,1,1
0.002085074,0.0002099749,1,1
0.002079077,0.0001811273,1,1
0.002009875,0.000111115,1,1
0.001882978,1.889987e-05,1,1
0.001688985,-7.218083e-05,1,1
0.001415094,-0.0001399241,1,1
0.001065842,-0.0001741199,1,1
0.0006669993,-0.0001775233,1,1
0.0002634565,-0.0001580754,1,1
-9.276313e-05,-0.0001245279,1,1
-0.0003760533,-8.530812e-05,1,1
-0.0005985689,-4.625038e-05,1,1
-0.0007846198,-9.461558e-06,1,1
-0.0009551126,2.230325e-05,1,1
-0.001117016,4.839576e-05,1,1
-0.001265792,6.427817e-05,1,1
-0.001395606,6.881599e-05,1,1
-0.0014956,6.330578e-05,1,1
-0.001561885,5.066468e-05,1,1
-0.001599322,3.008238e-05,1,1
-0.00161407,6.420843e-06,1,1
-0.001611477,-1.62683e-05,1,1
-0.001590247,-3.036798e-05,1,1
-0.001547623,-3.279896e-05,1,1
-0.001481501,-2.777494e-05,1,1
-0.001399982,-2.291298e-05,1,1
-0.001314087,-2.42095e-05,1,1
-0.00122722,-2.971972e-05,1,1
-0.001128036,-3.960571e-05,1,1
-0.001005515,-5.338126e-05,1,1
-0.0008601423,-6.845333e-05,1,1
-0.0007021286,-8.384954e-05,1,1
-0.0005512458,-0.0001008664,1,1
-0.0004345588,-0.0001191798,1,1
-0.0003750809,-0.0001394379,1,1
-0.0003747568,-0.0001650443,1,1
-0.0004147869,-0.0001924333,1,1
-0.0004669719,-0.0002131776,1,1
-0.0005139708,-0.0002220912,1,1
-0.0005481666,-0.0002186879,1,1
-0.0005700454,-0.000208964,1,1
-0.0005812279,-0.0001998883,1,1
-0.0005886829,-0.0001932436,1,1
-0.0005941931,-0.00018433,1,1
-0.000603593,-0.0001627754,1,1
-0.0006264441,-0.0001209625,1,1
-0.0006706879,-6.116039e-05,1,1
-0.0007274108,5.124321e-06,1,1
-0.0007690616,6.46023e-05,1,1
-0.0007596618,0.00010366,1,1
-0.000683167,0.0001201907,1,1
-0.0005538389,0.0001218114,1,1
-0.0004024699,0.0001137081,1,1
-0.0002593663,9.879808e-05,1,1
-0.0001454344,7.837785e-05,1,1
-6.861539e-05,5.585077e-05,1,1
-2.501983e-05,3.55926e-05,1,1
-6.382317e-06,1.97102e-05,1,1
-6.176923e-08,8.041497e-06,1,1
3.341602e-06,-2.168618e-06,1,1
3.989864e-06,-7.354709e-06,1,1
3.017472e-06,-4.923729e-06,1,1
1.396819e-06,5.934648e-06,1,1
4.244267e-07,2.068259e-05,1,1
4.638125e-06,3.769945e-05,1,1
2.716521e-05,5.52025e-05,1,1
8.178122e-05,7.319176e-05,1,1
0.0001809652,8.956036e-05,1,1
0.0003334687,0.0001017153,1,1
0.0005392918,0.0001077117,1,1
0.0007867657,0.0001127357,1,1
0.001061791,0.0001201907,1,1
0.001329037,0.0001302388,1,1
0.001531295,0.0001393144,1,1
0.001622538,0.0001480659,1,1
0.001600011,0.0001573037,1,1
0.001490292,0.000165569,1,1
0.001326282,0.0001676758,1,1
0.001137151,0.0001623277,1,1
0.0009541793,0.000148228,1,1
0.0007995688,0.000128294,1,1
0.000673644,0.0001056048,1,1
0.000562143,8.016057e-05,1,1
0.0004559901,5.277153e-05,1,1
0.0003603715,2.748934e-05,1,1
0.0002814457,8.365628e-06,1,1
0.0002221298,-6.382317e-06,1,1
0.0001736723,-2.129233e-05,1,1
0.0001265113,-3.911951e-05,1,1
8.631905e-05,-5.921561e-05,1,1
6.800567e-05,-8.060823e-05,1,1
8.275361e-05,-9.616651e-05,1,1
0.0001263492,-9.000802e-05,1,1
0.0001884202,-4.576419e-05,1,1
0.0002579462,3.397195e-05,1,1
0.0003274723,0.0001231079,1,1
0.0003908399,0.0001939304,1,1
0.0004467524,0.0002347709,1,1
0.0004960203,0.0002516257,1,1
0.0005401021,0.0002553532,1,1
0.0005705704,0.0002513016,1,1
0.0005705704,0.000234933,1,1
0.0005211404,0.0002043026,1,1
0.0004196875,0.0001602208,1,1
0.0002715597,0.0001140322,1,1
9.053275e-05,7.643307e-05,1,1
-9.924574e-05,5.050261e-05,1,1
-0.000263742,3.348575e-05,1,1
-0.0003734602,1.906194e-05,1,1
-0.0004214316,2.855407e-06,1,1
-0.0004198109,-1.707863e-05,1,1
-0.0003920977,-3.814712e-05,1,1
-0.0003673017,-5.483985e-05,1,1
-0.0003807532,-6.504996e-05,1,1
-0.0004624341,-7.250496e-05,1,1
-0.0006052136,-8.060823e-05,1,1
-0.0007791097,-9.227693e-05,1,1
-0.0009380957,-0.0001045939,1,1
-0.00104279,-0.0001138316,1,1
-0.001070503,-0.0001183694,1,1
-0.001029176,-0.0001225832,1,1
-0.0009449024,-0.0001287416,1,1
-0.0008402083,-0.0001350622,1,1
-0.0007194696,-0.000137007,1,1
-0.0005758798,-0.0001274451,1,1
-0.0003990665,-0.0001052422,1,1
-0.0001872472,-7.623246e-05,1,1
4.871989e-05,-4.819517e-05,1,1
0.0002913317,-2.955766e-05,1,1
0.0005277851,-2.583016e-05,1,1
0.0007574318,-3.506788e-05,1,1
0.0009783271,-5.127441e-05,1,1
0.001185285,-6.942573e-05,1,1
0.001366474,-8.514606e-05,1,1
0.00150812,-9.405965e-05,1,1
0.001602118,-9.503204e-05,1,1
0.001648955,-8.854943e-05,1,1
0.001659489,-8.158062e-05,1,1
0.001632586,-7.947377e-05,1,1
0.001556253,-8.174268e-05,1,1
0.001423845,-8.82253e-05,1,1
0.001240549,-9.276313e-05,1,1
0.001021923,-8.547019e-05,1,1
0.0007964896,-5.69467e-05,1,1
0.0005940699,-1.075808e-05,1,1
0.000435894,4.45062e-05,1,1
0.0003320101,9.717743e-05,1,1
0.0002754493,0.0001394765,1,1
0.0002341226,0.0001673517,1,1
0.0001633001,0.0001762653,1,1
2.34377e-05,0.0001642725,1,1
-0.0001974573,0.0001363972,1,1
-0.0004731304,0.0001047945,1,1
-0.0007560964,8.242948e-05,1,1
-0.001004867,7.367795e-05,1,1
-0.001195617,7.448828e-05,1,1
-0.001318787,8.210535e-05,1,1
-0.001375348,9.847395e-05,1,1
-0.001373889,0.0001244044,1,1
-0.001326404,0.0001553589,1,1
-0.001245209,0.0001782101,1,1
-0.001142298,0.0001840444,1,1
-0.001030473,0.0001825859,1,1
-0.0009225374,0.0001900409,1,1
-0.0008251361,0.0002143507,1,1
-0.0007372968,0.0002444948,1,1
-0.000650916,0.0002632944,1,1
-0.0005593491,0.0002613496,1,1
-0.000459679,0.0002415777,1,1
-0.0003522297,0.0002107852,1,1
-0.0002460769,0.0001782101,1,1
-0.0001535376,0.0001511452,1,1
-8.579432e-05,0.000130725,1,1
-4.446767e-05,0.0001169494,1,1
-1.464765e-05,0.0001090082,1,1
2.505836e-05,0.0001038221,1,1
8.599492e-05,9.782569e-05,1,1
0.0001709172,8.907416e-05,1,1
0.000277232,7.659513e-05,1,1
0.0003903536,5.957827e-05,1,1
0.0004856481,3.850978e-05,1,1
0.0005404262,1.484824e-05,1,1
0.0005491778,-1.286493e-05,1,1
0.0005213025,-4.333321e-05,1,1
0.0004671726,-7.428769e-05,1,1
0.0003882468,-0.0001041077,1,1
0.0002803113,-0.0001331174,1,1
0.0001477418,-0.0001616409,1,1
1.014835e-05,-0.0001901644,1,1
-0.000112211,-0.0002199844,1,1
-0.0002131776,-0.0002460769,1,1
-0.0002917793,-0.0002635799,1,1
-0.0003446126,-0.000268604,1,1
-0.0003710293,-0.0002639041,1,1
-0.0003713534,-0.0002556388,1,1
-0.0003502849,-0.0002433218,1,1
-0.0003241924,-0.0002259808,1,1
-0.0003094444,-0.0002042641,1,1
-0.0003117133,-0.0001791439,1,1
-0.0003277578,-0.0001572651,1,1
-0.0003507711,-0.0001399241,1,1
-0.0003773498,-0.0001308485,1,1
-0.0004021458,-0.000129714,1,1
-0.0004188385,-0.0001408965,1,1
-0.0004170558,-0.0001679614,1,1
-0.0003823738,-0.0002079916,1,1
-0.0003110651,-0.0002535319,1,1
-0.0002185258,-0.0002929138,1,1
-0.0001259865,-0.0003118754,1,1
-5.921561e-05,-0.0003076617,1,1
-2.858527e-05,-0.0002849726,1,1
-2.501983e-05,-0.0002545043,1,1
-2.777494e-05,-0.0002272773,1,1
-1.237873e-05,-0.0002123673,1,1
3.040651e-05,-0.0002128535,1,1
8.340187e-05,-0.0002225774,1,1
0.0001281319,-0.0002235498,1,1
0.0001545486,-0.0001912988,1,1
0.0001660552,-0.000112211,1,1
0.0001696206,1.396819e-06,1,1
0.0001660552,0.0001141943,1,1
0.000143204,0.0001887444,1,1
8.502253e-05,0.0002107852,1,1
-1.075808e-05,0.0001902029,1,1
-0.0001201522,0.0001469315,1,1
-0.000206533,0.0001020394,1,1
-0.000238784,6.897806e-05,1,1
-0.0002117191,5.358185e-05,1,1
-0.0001462447,5.277153e-05,1,1
-6.569822e-05,5.860588e-05,1,1
1.614476e-05,6.687121e-05,1,1
9.377406e-05,7.546067e-05,1,1
0.0001707551,8.615699e-05,1,1
0.0002453052,0.000101067,1,1
0.0003109416,0.0001235941,1,1
0.000349027,0.0001592484,1,1
0.0003420582,0.0002093267,1,1
0.0002775562,0.0002675081,1,1
0.0001642725,0.0003226103,1,1
2.927205e-05,0.0003649094,1,1
-9.584238e-05,0.0003885709,1,1
-0.0001914609,0.0003918123,1,1
-0.0002501286,0.0003804677,1,1
-0.0002716832,0.0003626405,1,1
-0.0002608248,0.0003405996,1,1
-0.0002186879,0.0003158036,1,1
-0.0001499722,0.000289549,1,1
-6.116039e-05,0.0002629703,1,1
4.580272e-05,0.0002352571,1,1
0.0001649207,0.0002065715,1,1
0.0002859836,0.0001803169,1,1
0.0003901916,0.0001590864,1,1
0.0004645796,0.000140773,1,1
0.0005096338,0.0001240803,1,1
0.0005328091,0.0001064152,1,1
0.0005451261,8.664318e-05,1,1
0.0005501501,6.735741e-05,1,1
0.0005433434,5.293359e-05,1,1
0.0005187094,4.580272e-05,1,1
0.0004736553,4.402e-05,1,1
0.0004047775,4.239934e-05,1,1
0.0003138588,3.721326e-05,1,1
0.000210299,2.748934e-05,1,1
0.0001091703,1.371378e-05,1,1
1.954813e-05,-5.409925e-06,1,1
-6.845333e-05,-2.761287e-05,1,1
-0.0001802784,-4.495386e-05,1,1
-0.0003314853,-5.354332e-05,1,1
-0.0005209396,-5.500191e-05,1,1
-0.0007407002,-5.257093e-05,1,1
-0.0009646744,-5.370539e-05,1,1
-0.001159963,-6.035007e-05,1,1
-0.001293181,-6.958779e-05,1,1
-0.001345366,-7.882551e-05,1,1
-0.001309225,-8.368748e-05,1,1
-0.001184759,-8.158062e-05,1,1
-0.0009799085,-7.817725e-05,1,1
-0.0007170386,-7.769106e-05,1,1
-0.0004280762,-8.336335e-05,1,1
-0.0001399241,-9.632857e-05,1,1
0.0001269974,-0.0001154523,1,1
0.0003678266,-0.0001363587,1,1
0.0005892079,-0.0001559686,1,1
0.0007984344,-0.0001703924,1,1
0.001005716,-0.0001788198,1,1
0.001216726,-0.0001833576,1,1
0.001428059,-0.0001862748,1,1
0.001624159,-0.0001874093,1,1
0.001781038,-0.0001849783,1,1
0.001870012,-0.0001809267,1,1
0.001873902,-0.0001791439,1,1
0.001798866,-0.0001765509,1,1
0.00167132,-0.0001606685,1,1
0.001524974,-0.0001167488,1,1
0.001396132,-3.604027e-05,1,1
0.001320448,7.52986e-05,1,1
0.001305375,0.0001890685,1,1
0.001338761,0.0002785285,1,1
0.001389487,0.0003287688,1,1
0.001413473,0.0003384927,1,1
0.001369391,0.0003132105,1,1
0.001226125,0.0002655633,1,1
0.0009692514,0.0002156472,1,1
0.0006156246,0.0001773998,1,1
0.0002281262,0.0001542244,1,1
-0.000117235,0.0001396385,1,1
-0.0003749188,0.0001274836,1,1
-0.0005437909,0.0001151667,1,1
-0.000640868,9.960841e-05,1,1
-0.0006796016,8.129502e-05,1,1
-0.0006674466,5.406805e-05,1,1
-0.0006115342,1.12828e-05,1,1
-0.0005248293,-5.013995e-05,1,1
-0.000420135,-0.0001177212,1,1
-0.0003128478,-0.0001630995,1,1
-0.0002263049,-0.0001695821,1,1
-0.0001806025,-0.000134738,1,1
-0.0001888679,-7.428769e-05,1,1
-0.000253694,-7.678839e-06,1,1
-0.0003651949,4.645098e-05,1,1
-0.0005032745,8.016057e-05,1,1
-0.000638599,9.733949e-05,1,1
-0.0007523688,0.0001047945,1,1
-0.0008379394,0.0001096565,1,1
-0.0008813728,0.0001163011,1,1
-0.0008609526,0.0001239182,1,1
-0.000772627,0.0001326697,1,1
-0.0006475127,0.0001398006,1,1
-0.0005343911,0.0001446626,1,1
-0.0004765338,0.000145635,1,1
-0.0004935506,0.0001417454,1,1
-0.0005786349,0.0001344524,1,1
-0.0006998597,0.0001287802,1,1
-0.0008163847,0.0001289422,1,1
-0.000894176,0.0001334801,1,1
-0.0009210788,0.0001386662,1,1
-0.0009121653,0.0001393144,1,1
-0.0008920691,0.0001302388,1,1
-0.0008820211,0.0001096565,1,1
-0.0008833176,8.372601e-05,1,1
-0.0008748902,6.103686e-05,1,1
-0.000832267,4.320967e-05,1,1
-0.0007444277,2.408596e-05,1,1
-0.0006091032,3.341602e-06,1,1
-0.0004369898,-1.918548e-05,1,1
-0.0002509389,-4.219875e-05,1,1
-7.833932e-05,-6.326724e-05,1,1
4.580272e-05,-8.547019e-05,1,1
0.000106091,-0.0001138316,1,1
0.0001163011,-0.000152079,1,1
9.879808e-05,-0.0001935677,1,1
6.46023e-05,-0.000224036,1,1
7.069105e-06,-0.0002318152,1,1
-7.817725e-05,-0.0002167431,1,1
-0.0001851404,-0.0001893541,1,1
-0.0002980999,-0.0001645581,1,1
-0.000390315,-0.0001543479,1,1
-0.0004384484,-0.0001596961,1,1
-0.0004378002,-0.000174282,1,1
-0.0004010113,-0.0001861127,1,1
-0.0003523917,-0.0001893541,1,1
-0.00030831,-0.0001820611,1,1
-0.0002763831,-0.0001621271,1,1
-0.0002467252,-0.0001350622,1,1
-0.0002088019,-0.000112373,1,1
-0.0001553203,-0.0001029732,1,1
-8.352541e-05,-0.0001067007,1,1
4.244267e-07,-0.0001182074,1,1
8.891209e-05,-0.0001290658,1,1
0.0001725378,-0.0001339277,1,1
0.0002490327,-0.0001282554,1,1
0.0003200173,-0.0001136696,1,1
0.000393595,-8.709085e-05,1,1
0.0004849998,-4.625038e-05,1,1
0.0005956905,5.934648e-06,1,1
0.0007049226,5.034055e-05,1,1
0.0007796348,7.30297e-05,1,1
0.0007901691,8.080883e-05,1,1
0.000720805,9.63671e-05,1,1
0.0005786736,0.000138342,1,1
0.000396188,0.0002031682,1,1
0.0002203471,0.0002658874,1,1
9.490851e-05,0.0002974902,1,1
3.753739e-05,0.000282256,1,1
3.445814e-05,0.0002303951,1,1
5.925414e-05,0.000162976,1,1
9.069481e-05,0.0001004187,1,1
0.000121001,5.585077e-05,1,1
0.0001475797,3.429608e-05,1,1
0.0001644345,3.073064e-05,1,1
0.000168,3.640293e-05,1,1
0.000163138,4.466826e-05,1,1
0.0001615174,5.325772e-05,1,1
0.0001775618,6.136099e-05,1,1
0.0002171058,6.816773e-05,1,1
0.0002824181,7.254349e-05,1,1
0.0003712299,7.416415e-05,1,1
0.0004772207,7.805372e-05,1,1
0.0005793219,8.550872e-05,1,1
0.0006431757,9.507057e-05,1,1
0.0006402585,0.0001078737,1,1
0.0005650602,0.0001240803,1,1
0.0004307079,0.0001420695,1,1
0.000267346,0.0001589243,1,1
9.247754e-05,0.0001707551,1,1
-9.438378e-05,0.0001819376,1,1
-0.0003000446,0.0001910133,1,1
-0.0005206155,0.0001960373,1,1
-0.0007361624,0.0001973338,1,1
-0.0009233478,0.0001931201,1,1
-0.001067424,0.0001790204,1,1
-0.001173252,0.0001551968,1,1
-0.001257689,0.0001253768,1,1
-0.001331428,9.069481e-05,1,1
-0.001381992,5.439218e-05,1,1
-0.001383937,1.760335e-05,1,1
-0.001304687,-1.691656e-05,1,1
-0.001126578,-4.592625e-05,1,1
-0.0008628974,-6.731888e-05,1,1
-0.0005546492,-7.979791e-05,1,1
-0.0002517492,-8.790117e-05,1,1
1.160693e-05,-9.405965e-05,1,1
0.0002286124,-9.875954e-05,1,1
0.0004102877,-0.0001000561,1,1
0.0005702463,-9.762509e-05,1,1
0.0007122156,-9.033215e-05,1,1
0.0008329543,-8.125649e-05,1,1
0.0009251696,-7.169464e-05,1,1
0.0009880509,-6.44017e-05,1,1
0.001029054,-5.791909e-05,1,1
0.001070056,-5.013995e-05,1,1
0.001131803,-3.992984e-05,1,1
0.001218184,-2.761287e-05,1,1
0.001306672,-1.740276e-05,1,1
0.001377657,-1.480971e-05,1,1
0.001426925,-2.0482e-05,1,1
0.001464524,-2.971972e-05,1,1
0.001495478,-3.960571e-05,1,1
0.001513306,-4.868137e-05,1,1
0.001503095,-5.548811e-05,1,1
0.001452207,-6.099833e-05,1,1
0.001358209,-6.796714e-05,1,1
0.001232446,-8.093236e-05,1,1
0.001101011,-8.935975e-05,1,1
0.0009937233,-8.595638e-05,1,1
0.0009185249,-6.893953e-05,1,1
0.0008567779,-4.527799e-05,1,1
0.0007773659,-2.745081e-05,1,1
0.000661165,-2.453363e-05,1,1
0.0005007202,-3.458168e-05,1,1
0.0002986247,-5.013995e-05,1,1
6.606088e-05,-6.796714e-05,1,1
-0.0001799543,-7.817725e-05,1,1
-0.0004202971,-7.380149e-05,1,1
-0.0006363301,-5.240886e-05,1,1
-0.0008218948,-2.145439e-05,1,1
-0.00098866,5.124321e-06,1,1
-0.001143919,1.663096e-05,1,1
-0.001275678,8.527692e-06,1,1
-0.00136611,-1.659243e-05,1,1
-0.001403385,-4.916756e-05,1,1
-0.001382803,-7.995997e-05,1,1
-0.001307281,-0.0001021629,1,1
-0.001187514,-0.0001099421,1,1
-0.001052676,-0.0001021629,1,1
-0.0009356647,-7.688073e-05,1,1
-0.0008560906,-4.284701e-05,1,1
-0.0008144398,-5.57199e-06,1,1
-0.0007940196,2.586868e-05,1,1
-0.0007745718,4.677511e-05,1,1
-0.0007535033,5.698522e-05,1,1
-0.000740376,5.390598e-05,1,1
-0.0007381071,4.35338e-05,1,1
-0.0007397278,4.126489e-05,1,1
-0.0007311383,6.314371e-05,1,1
-0.0006935392,0.0001179218,1,1
-0.000606186,0.0001960373,1,1
-0.0004549791,0.0002756114,1,1
-0.0002491561,0.0003329825,1,1
-2.015787e-05,0.0003556717,1,1
0.0001989545,0.0003506476,1,1
0.0003919743,0.0003360618,1,1
0.0005520949,0.000319207,1,1
0.0006721854,0.0002918179,1,1
0.0007443045,0.0002420638,1,1
0.0007639144,0.0001717275,1,1
0.0007315014,9.182927e-05,1,1
0.0006608408,2.100672e-05,1,1
0.0005778633,-2.307504e-05,1,1
0.0005083373,-3.63644e-05,1,1
0.0004700898,-2.356124e-05,1,1
0.0004645796,5.86492e-07,1,1
0.0004814344,2.376183e-05,1,1
0.0005094717,3.753739e-05,1,1
0.0005336195,4.110282e-05,1,1
0.0005355643,3.445814e-05,1,1
0.000500396,2.408596e-05,1,1
0.0004242253,1.9224e-05,1,1
0.0003052694,2.700314e-05,1,1
0.0001475797,5.034055e-05,1,1
-2.809907e-05,7.918817e-05,1,1
-0.0001883817,9.247754e-05,1,1
-0.0003037722,7.335383e-05,1,1
-0.0003634122,1.938607e-05,1,1
-0.000392746,-5.889148e-05,1,1
-0.0004335865,-0.0001408965,1,1
-0.0005121881,-0.0002044261,1,1
-0.0006243373,-0.0002347323,1,1
-0.000737783,-0.0002295462,1,1
-0.0008178432,-0.0001971332,1,1
-0.0008410186,-0.0001452723,1,1
-0.0007922369,-8.806324e-05,1,1
-0.00067085,-4.349527e-05,1,1
-0.0005014918,-2.242678e-05,1,1
-0.0003186821,-1.691656e-05,1,1
-0.0001350622,-1.3027e-05,1,1
6.541262e-05,-6.382317e-06,1,1
0.00030689,-1.196227e-06,1,1
0.0005916389,-4.113403e-06,1,1
0.0008853014,-1.853722e-05,1,1
0.001129534,-4.38194e-05,1,1
0.001270369,-7.201877e-05,1,1
0.001278959,-9.649064e-05,1,1
0.001157085,-0.0001169109,1,1
0.0009378107,-0.0001353863,1,1
0.0006601926,-0.0001556445,1,1
0.0003640991,-0.000181737,1,1
8.323981e-05,-0.0002120432,1,1
-0.000152079,-0.000238784,1,1
-0.0003240303,-0.0002525595,1,1
-0.000424997,-0.0002455907,1,1
-0.0004549791,-0.0002185258,1,1
-0.0004233763,-0.0001791439,1,1
-0.0003587123,-0.0001376552,1,1
-0.0003015032,-0.0001021629,1,1
-0.0002844864,-7.60704e-05,1,1
-0.0003237062,-5.727083e-05,1,1
-0.0004083043,-3.587821e-05,1,1
-0.0005108916,-2.978945e-06,1,1
-0.0006081308,4.612685e-05,1,1
-0.0006846256,0.0001031738,1,1
-0.0007374589,0.0001522796,1,1
-0.000775058,0.0001848548,1,1
-0.0008139537,0.000200251,1,1
-0.0008661387,0.000200251,1,1
-0.0009282097,0.0001874478,1,1
-0.0009763431,0.0001688103,1,1
-0.0009794224,0.000153252,1,1
-0.0009167031,0.0001440143,1,1
-0.0007894818,0.0001393144,1,1
-0.0006207718,0.0001368834,1,1
-0.0004296969,0.0001329939,1,1
-0.000236353,0.0001242423,1,1
-5.629844e-05,0.0001128978,1,1
9.944634e-05,0.0001047945,1,1
0.0002376881,0.0001072255,1,1
0.0003647473,0.0001200286,1,1
0.0004709002,0.0001376938,1,1
0.0005386435,0.0001522796,1,1
0.0005550121,0.0001610312,1,1
0.0005310264,0.0001662173,1,1
0.0004979651,0.000170431,1,1
0.0004999099,0.0001735102,1,1
0.0005618189,0.0001738343,1,1
0.0006752646,0.0001712413,1,1
0.0008070238,0.000168162,1,1
0.0009305178,0.0001688103,1,1
0.001034726,0.0001717275,1,1
0.001128562,0.0001723757,1,1
0.001220129,0.000168,1,1
0.001291924,0.0001603829,1,1
0.001317855,0.0001542244,1,1
0.001290789,0.0001537382,1,1
0.001218994,0.000155683,1,1
0.001119324,0.0001522796,1,1
0.00100523,0.0001393144,1,1
0.0008788189,0.0001127357,1,1
0.0007285841,7.610894e-05,1,1
0.0005435055,3.397195e-05,1,1
0.000329255,-8.813297e-06,1,1
0.0001072255,-4.932962e-05,1,1
-0.0001008664,-8.40116e-05,1,1
-0.0002804347,-0.0001159385,1,1
-0.0004295348,-0.0001467309,1,1
-0.000549301,-0.0001712027,1,1
-0.0006366542,-0.0001833576,1,1
-0.0006799257,-0.0001859507,1,1
-0.0006727948,-0.0001840059,1,1
-0.0006321164,-0.0001794681,1,1
-0.0005903036,-0.0001712027,1,1
-0.0005766901,-0.0001549962,1,1
-0.0005979206,-0.0001329553,1,1
-0.0006395715,-0.0001088076,1,1
-0.0006774947,-8.611845e-05,1,1
-0.0006938633,-7.104638e-05,1,1
-0.0006867325,-6.796714e-05,1,1
-0.0006672846,-7.169464e-05,1,1
-0.000653347,-7.688073e-05,1,1
-0.0006609641,-8.093236e-05,1,1
-0.0006935392,-8.222889e-05,1,1
-0.0007356761,-7.963584e-05,1,1
-0.0007667927,-7.347736e-05,1,1
-0.0007538275,-6.504996e-05,1,1
-0.0006595054,-5.937768e-05,1,1
-0.000464703,-5.970181e-05,1,1
-0.000191623,-6.780507e-05,1,1
0.000103498,-8.012204e-05,1,1
0.0003572923,-9.276313e-05,1,1
0.0005240576,-0.0001021629,1,1
0.0005921251,-0.0001076731,1,1
0.0005786736,-0.0001110765,1,1
0.0005144958,-0.000112211,1,1
0.0004318424,-0.0001096179,1,1
0.0003642611,-0.0001070249,1,1
0.0003315239,-0.0001063766,1,1
0.0003320101,-0.000102325,1,1
0.0003491891,-9.081835e-05,1,1
0.0003728506,-6.91016e-05,1,1
0.0003999155,-4.317115e-05,1,1
0.0004347596,-1.578211e-05,1,1
0.000485486,1.063454e-05,1,1
0.0005509604,3.235129e-05,1,1
0.0006164349,4.628891e-05,1,1
0.0006575995,5.455425e-05,1,1
0.000648848,6.703327e-05,1,1
0.0005704083,9.733949e-05,1,1
0.0004224426,0.0001446626,1,1
0.0002243987,0.0001906891,1,1
1.209313e-05,0.0002138645,1,1
-0.0001801163,0.0002038164,1,1
-0.0003214373,0.0001650828,1,1
-0.000390315,0.0001120874,1,1
-0.0003872358,5.957827e-05,1,1
-0.0003446126,1.9224e-05,1,1
-0.0003063652,-6.058186e-06,1,1
-0.0002997205,-1.788895e-05,1,1
-0.0003250027,-2.323711e-05,1,1
-0.0003566054,-3.409549e-05,1,1
-0.0003609812,-5.69467e-05,1,1
-0.0003115513,-7.623246e-05,1,1
-0.0002053985,-6.731888e-05,1,1
-6.991193e-05,-1.594417e-05,1,1
5.325772e-05,6.800567e-05,1,1
0.0001325077,0.0001592484,1,1
0.0001587623,0.0002328261,1,1
0.0001487142,0.0002786906,1,1
0.0001276457,0.0003055935,1,1
0.000118408,0.0003264999,1,1
0.0001339663,0.0003496752,1,1
0.0001772377,0.0003726885,1,1
0.0002334744,0.0003880847,1,1
0.0002715597,0.0003858158,1,1
0.0002608634,0.0003629646,1,1
0.0001910133,0.0003247172,1,1
7.351589e-05,0.0002760976,1,1
-6.537409e-05,0.000222616,1,1
-0.0002086398,0.0001731861,1,1
-0.0003546606,0.0001312112,1,1
-0.0005076503,9.701536e-05,1,1
-0.0006604778,7.108491e-05,1,1
-0.0007993678,5.439218e-05,1,1
-0.0009056826,4.77475e-05,1,1
-0.0009622434,4.77475e-05,1,1
-0.0009638641,5.228533e-05,1,1
-0.0009158928,5.779555e-05,1,1
-0.0008348601,5.552663e-05,1,1
-0.0007415105,4.110282e-05,1,1
-0.00064103,1.22552e-05,1,1
-0.0005189948,-2.518189e-05,1,1
-0.0003553089,-6.180866e-05,1,1
-0.0001418689,-9.227693e-05,1,1
0.0001005808,-0.0001157764,1,1
0.0003222862,-0.000134738,1,1
0.000478031,-0.0001506204,1,1
0.0005519328,-0.0001613168,1,1
0.0005579292,-0.0001676373,1,1
0.0005198439,-0.0001752544,1,1
0.0004590694,-0.0001904885,1,1
0.000383709,-0.00021415,1,1
0.0002898731,-0.0002425115,1,1
0.0001587623,-0.0002690902,1,1
-1.983374e-05,-0.000283514,1,1
-0.0002306807,-0.0002804347,1,1
-0.0004296969,-0.0002616352,1,1
-0.0005731247,-0.0002335979,1,1
-0.0006332509,-0.0002036158,1,1
-0.0006047274,-0.0001754164,1,1
-0.000507002,-0.0001486757,1,1
-0.0003713534,-0.00012469,1,1
-0.0002206326,-0.0001083214,1,1
-5.467778e-05,-0.0001063766,1,1
0.0001370455,-0.0001156143,1,1
0.0003628026,-0.0001230693,1,1
0.000616597,-0.0001125351,1,1
0.0008598572,-7.947377e-05,1,1
0.001040398,-3.928157e-05,1,1
0.00112532,-8.165035e-06,1,1
0.001115921,3.989864e-06,1,1
0.001043802,2.531276e-06,1,1
0.0009481829,-3.627206e-06,1,1
0.0008520781,-4.437533e-06,1,1
0.0007673178,1.720949e-06,1,1
0.0006982779,1.241726e-05,1,1
0.0006434998,2.781346e-05,1,1
0.000599256,4.709924e-05,1,1
0.0005694359,6.800567e-05,1,1
0.0005605224,8.453633e-05,1,1
0.0005783495,9.393612e-05,1,1
0.0006358828,9.782569e-05,1,1
0.0007347427,9.733949e-05,1,1
0.0008535367,9.037068e-05,1,1
0.0009634171,7.90261e-05,1,1
0.001036671,6.930219e-05,1,1
0.001051581,6.298164e-05,1,1
0.0009969646,5.925414e-05,1,1
0.000871688,5.439218e-05,1,1
0.000696009,4.547859e-05,1,1
0.0005055821,3.154097e-05,1,1
0.0003358997,1.760335e-05,1,1
0.0001996027,9.66215e-06,1,1
9.247754e-05,1.274139e-05,1,1
-6.220252e-06,3.040651e-05,1,1
-0.0001156143,6.233338e-05,1,1
-0.0002378116,0.0001081979,1,1
-0.0003566054,0.0001634622,1,1
-0.0004574101,0.000220023,1,1
-0.0005314739,0.0002644289,1,1
-0.0005768522,0.0002837146,1,1
-0.0005950035,0.0002738286,1,1
-0.0005980827,0.0002440086,1,1
-0.0006008379,0.0002059233,1,1
-0.0006152617,0.0001707551,1,1
-0.0006411921,0.0001435281,1,1
-0.0006745775,0.0001226217,1,1
-0.0007063423,0.0001098185,1,1
-0.0007246558,0.0001052807,1,1
-0.0007282211,0.000108522,1,1
-0.0007330831,0.0001150046,1,1
-0.0007593377,0.0001219734,1,1
-0.0008176812,0.0001269974,1,1
-0.0008982276,0.0001253768,1,1
-0.000981043,0.0001143563,1,1
-0.001039873,9.701536e-05,1,1
-0.001050245,7.67572e-05,1,1
-0.001010701,5.455425e-05,1,1
-0.0009361509,2.910999e-05,1,1
-0.0008515528,9.106227e-07,1,1
-0.0007773269,-2.631635e-05,1,1
-0.0007251419,-4.689865e-05,1,1
-0.0006940254,-6.099833e-05,1,1
-0.0006747396,-7.088431e-05,1,1
-0.0006470265,-7.720486e-05,1,1
-0.0005945173,-8.384954e-05,1,1
-0.0005099192,-8.952183e-05,1,1
-0.0004005251,-9.081835e-05,1,1
-0.0002797865,-8.40116e-05,1,1
-0.0001554824,-7.444975e-05,1,1
-3.053005e-05,-6.423963e-05,1,1
0.0001000946,-5.500191e-05,1,1
0.0002422259,-4.722278e-05,1,1
0.0003984569,-4.219875e-05,1,1
0.0005658705,-4.155049e-05,1,1
0.0007253428,-4.106429e-05,1,1
0.0008556435,-3.782299e-05,1,1
0.0009447795,-3.668853e-05,1,1
0.0009891854,-4.074016e-05,1,1
0.0009985853,-5.159854e-05,1,1
0.0009951819,-6.845333e-05,1,1
0.0009935612,-9.114248e-05,1,1
0.0009968026,-0.000114804,1,1
0.0009899958,-0.0001318209,1,1
0.0009439692,-0.0001360346,1,1
0.0008348991,-0.0001292278,1,1
0.0006520892,-0.0001208004,1,1
0.0004156358,-0.0001178833,1,1
0.0001598967,-0.0001248521,1,1
-7.428769e-05,-0.0001384655,1,1
-0.0002506147,-0.0001517549,1,1
-0.000345585,-0.000159534,1,1
-0.0003515814,-0.0001561307,1,1
-0.0002737901,-0.0001378173,1,1
-0.0001310105,-9.827335e-05,1,1
4.466826e-05,-3.409549e-05,1,1
0.0002135403,4.790957e-05,1,1
0.0003362238,0.0001263492,1,1
0.0003914881,0.0001816135,1,1
0.0003790091,0.0002034923,1,1
0.0003166139,0.0001979821,1,1
0.0002256952,0.0001788584,1,1
0.000130725,0.0001579519,1,1
5.179914e-05,0.0001417454,1,1
9.106227e-07,0.0001291043,1,1
-1.821308e-05,0.0001182459,1,1
-1.092015e-05,0.0001090082,1,1
6.744974e-06,0.0001023635,1,1
9.175954e-06,9.798775e-05,1,1
-3.053005e-05,9.782569e-05,1,1
-0.000122259,0.0001022015,1,1
-0.0002519113,0.0001103047,1,1
-0.0003880461,0.0001171115,1,1
-0.0004938748,0.0001203528,1,1
-0.0005423322,0.0001166253,1,1
-0.0005240189,0.0001072255,1,1
-0.0004478482,9.669123e-05,1,1
-0.0003308371,8.988449e-05,1,1
-0.0002000504,9.037068e-05,1,1
-7.898758e-05,9.701536e-05,1,1
5.448452e-06,0.0001081979,1,1
2.878586e-05,0.0001192183,1,1
-3.085418e-05,0.0001278078,1,1
-0.0001702304,0.0001291043,1,1
-0.0003540124,0.0001169494,1,1
-0.0005317981,9.26396e-05,1,1
-0.0006606399,6.184718e-05,1,1
-0.0007214144,2.894792e-05,1,1
-0.0007134732,-1.196227e-06,1,1
-0.000650754,-2.015787e-05,1,1
-0.0005650214,-2.388537e-05,1,1
-0.0004919299,-1.67545e-05,1,1
-0.0004557894,-5.409925e-06,1,1
-0.0004543308,-7.100305e-07,1,1
-0.00046211,-7.030578e-06,1,1
-0.0004392588,-2.664048e-05,1,1
-0.0003621157,-5.905355e-05,1,1
-0.0002347323,-9.600444e-05,1,1
-8.206682e-05,-0.0001251762,1,1
6.914012e-05,-0.0001387897,1,1
0.0002033302,-0.0001415448,1,1
0.0003162898,-0.0001418689,1,1
0.0004041292,-0.0001412206,1,1
0.0004713863,-0.0001399241,1,1
0.0005354022,-0.0001397621,1,1
0.0006169211,-0.0001415448,1,1
0.0007154569,-0.0001433275,1,1
0.0008091307,-0.0001413827,1,1
0.0008728224,-0.0001327933,1,1
0.0009032908,-0.0001165867,1,1
0.0009126905,-9.341139e-05,1,1
0.0009109079,-6.618442e-05,1,1
0.0009003736,-3.814712e-05,1,1
0.0008917841,-1.432352e-05,1,1
0.0008985908,3.179537e-06,1,1
0.0009233868,9.986281e-06,1,1
0.0009476967,5.934648e-06,1,1
0.000941052,-6.706447e-06,1,1
0.0008747673,-2.437157e-05,1,1
0.0007342565,-4.398147e-05,1,1
0.0005303781,-5.759496e-05,1,1
0.000299435,-6.035007e-05,1,1
8.631905e-05,-5.451572e-05,1,1
-8.806324e-05,-4.608832e-05,1,1
-0.0002246843,-4.009191e-05,1,1
-0.0003316474,-3.766092e-05,1,1
-0.000415111,-3.766092e-05,1,1
-0.0004807475,-3.782299e-05,1,1
-0.0005283947,-3.733679e-05,1,1
-0.0005577285,-3.701266e-05,1,1
-0.0005676145,-3.571614e-05,1,1
-0.0005562698,-2.955766e-05,1,1
-0.0005306636,-2.015787e-05,1,1
-0.0005053814,-8.651231e-06,1,1
-0.000489499,5.610517e-06,1,1
-0.0004789647,1.825161e-05,1,1
-0.000462272,2.586868e-05,1,1
-0.0004277521,2.927205e-05,1,1
-0.0003810773,2.748934e-05,1,1
-0.0003395886,1.889987e-05,1,1
-0.0003120375,9.824215e-06,1,1
-0.0002865932,1.484824e-05,1,1
-0.0002558008,4.45062e-05,1,1
-0.0002340841,9.085688e-05,1,1
-0.0002522354,0.000138342,1,1
-0.0003262992,0.0001673517,1,1
-0.0004434724,0.000170431,1,1
-0.0005784728,0.0001490383,1,1
-0.0007220627,0.0001103047,1,1
-0.0008706765,6.768154e-05,1,1
-0.0009996805,3.591673e-05,1,1
-0.001060293,2.522042e-05,1,1
-0.001011187,4.094075e-05,1,1
-0.0008510666,8.016057e-05,1,1
-0.0006189891,0.0001315353,1,1
-0.000370543,0.0001801549,1,1
-0.0001488377,0.0002128921,1,1
3.154097e-05,0.0002203471,1,1
0.0001799928,0.0002000889,1,1
0.0003158036,0.000162976,1,1
0.0004559901,0.0001247285,1,1
0.000601849,9.68533e-05,1,1
0.000740415,8.323981e-05,1,1
0.0008514298,8.226741e-05,1,1
0.0009180387,9.069481e-05,1,1
0.0009371624,0.0001086841,1,1
0.0009246834,0.0001423936,1,1
0.0009018321,0.0001910133,1,1
0.0008794671,0.0002435224,1,1
0.0008588848,0.0002851732,1,1
0.0008352232,0.0003012177,1,1
0.0008032963,0.0002869559,1,1
0.0007533802,0.0002495189,1,1
0.0006718613,0.0001994406,1,1
0.0005462606,0.0001459591,1,1
0.0003900295,9.588091e-05,1,1
0.0002354192,5.341979e-05,1,1
0.0001099806,2.34377e-05,1,1
2.959619e-05,6.582909e-06,1,1
4.638125e-06,-5.734056e-06,1,1
3.656499e-05,-2.031993e-05,1,1
0.000118408,-3.539201e-05,1,1
0.0002313675,-4.835724e-05,1,1
0.0003537269,-5.905355e-05,1,1
0.0004647417,-7.039812e-05,1,1
0.0005354022,-8.352541e-05,1,1
0.0005407503,-9.875954e-05,1,1
0.0004825689,-0.000114804,1,1
0.0003809539,-0.0001287416,1,1
0.0002654013,-0.0001339277,1,1
0.0001577899,-0.0001305243,1,1
6.946425e-05,-0.0001227452,1,1
1.720949e-06,-0.0001157764,1,1
-5.629844e-05,-0.0001110765,1,1
-0.0001173971,-0.000112373,1,1
-0.0001938919,-0.0001165867,1,1
-0.0002888622,-0.0001182074,1,1
-0.0003958252,-0.0001167488,1,1
-0.0005057055,-0.0001141558,1,1
-0.0006207718,-0.0001161005,1,1
-0.0007500999,-0.0001242038,1,1
-0.0008886658,-0.000137007,1,1
-0.001009566,-0.0001504584,1,1
-0.001087034,-0.0001585616,1,1
-0.001109399,-0.0001575893,1,1
-0.001083468,-0.0001459206,1,1
-0.001026421,-0.000127121,1,1
-0.0009521954,-0.0001060525,1,1
-0.000866949,-9.049421e-05,1,1
-0.0007596618,-8.158062e-05,1,1
-0.0006172064,-7.752899e-05,1,1
-0.0004408794,-7.542214e-05,1,1
-0.000241377,-7.18567e-05,1,1
-1.902341e-05,-6.472583e-05,1,1
0.0002224539,-5.370539e-05,1,1
0.0004652279,-3.782299e-05,1,1
0.0006720233,-1.594417e-05,1,1
0.0008175581,9.338019e-06,1,1
0.0009041011,3.753739e-05,1,1
0.0009562862,7.043665e-05,1,1
0.0009938853,0.0001049566,1,1
0.001025002,0.0001372076,1,1
0.001041857,0.0001603829,1,1
0.001029378,0.0001678379,1,1
0.0009778409,0.0001586002,1,1
0.0008932427,0.0001349386,1,1
0.0007880622,9.863601e-05,1,1
0.0006734819,5.828175e-05,1,1
0.0005553362,2.586868e-05,1,1
0.0004329769,9.66215e-06,1,1
0.0003051073,9.824215e-06,1,1
0.0001726999,1.938607e-05,1,1
4.82337e-05,2.927205e-05,1,1
-4.706071e-05,3.786152e-05,1,1
-0.0001010285,5.115087e-05,1,1
-0.0001101041,8.437427e-05,1,1
-8.222889e-05,0.000145797,1,1
-3.053005e-05,0.0002253711,1,1
3.235129e-05,0.0002981384,1,1
9.26396e-05,0.0003409237,1,1
0.0001329939,0.0003386548,1,1
0.0001363972,0.0002940868,1,1
9.458438e-05,0.000225047,1,1
1.079661e-05,0.0001524417,1,1
-0.0001054042,9.16672e-05,1,1
-0.0002394322,4.596478e-05,1,1
-0.0003685983,1.047248e-05,1,1
-0.0004689167,-2.194059e-05,1,1
-0.0005256396,-5.824322e-05,1,1
-0.0005376324,-0.0001016767,1,1
-0.0005155915,-0.0001504584,1,1
-0.0004786406,-0.0002019951,1,1
-0.0004478482,-0.0002543422,1,1
-0.0004358554,-0.0003024756,1,1
-0.0004476861,-0.0003361852,1,1
-0.0004779923,-0.0003475298,1,1
-0.0005189948,-0.0003369955,1,1
-0.0005611319,-0.0003074997,1,1
-0.000588845,-0.0002551526,1,1
-0.0005867381,-0.0001762268,1,1
-0.0005471942,-7.752899e-05,1,1
-0.0004716718,2.538249e-05,1,1
-0.000380267,0.0001140322,1,1
-0.000300855,0.0001744826,1,1
-0.0002567732,0.0002000889,1,1
-0.0002596904,0.0001893926,1,1
-0.000303286,0.0001496866,1,1
-0.0003632501,9.296373e-05,1,1
-0.0004092767,3.364782e-05,1,1
-0.0004248349,-1.99958e-05,1,1
-0.0004084663,-6.39155e-05,1,1
-0.0003635742,-9.811128e-05,1,1
-0.0002927517,-0.00012469,1,1
-0.0001969711,-0.000144624,1,1
-8.530812e-05,-0.0001522411,1,1
2.716521e-05,-0.0001485136,1,1
0.0001177597,-0.0001336036,1,1
0.0001714034,-0.0001112386,1,1
0.0001814514,-8.628052e-05,1,1
0.0001529279,-6.504996e-05,1,1
0.0001056048,-5.354332e-05,1,1
6.622294e-05,-5.143648e-05,1,1
5.94162e-05,-5.483985e-05,1,1
8.631905e-05,-5.856735e-05,1,1
0.0001263492,-5.678463e-05,1,1
0.0001553589,-4.560212e-05,1,1
0.0001551968,-2.534396e-05,1,1
0.0001140322,-8.720959e-07,1,1
3.235129e-05,1.987227e-05,1,1
-7.623246e-05,3.121684e-05,1,1
-0.0001938919,3.364782e-05,1,1
-0.0003081479,3.364782e-05,1,1
-0.0004096008,3.834771e-05,1,1
-0.000482044,5.212327e-05,1,1
-0.0005113778,7.351589e-05,1,1
-0.0004953333,9.831188e-05,1,1
-0.0004446069,0.0001221355,1,1
-0.0003700569,0.0001412592,1,1
-0.0002797865,0.000153252,1,1
-0.0001818991,0.0001610312,1,1
-8.368748e-05,0.0001689724,1,1
8.851824e-06,0.0001756171,1,1
7.999851e-05,0.0001788584,1,1
0.0001218114,0.0001799928,1,1
0.0001415833,0.0001840444,1,1
0.0001545486,0.0001913374,1,1
0.0001736723,0.0001991165,1,1
0.0002041406,0.0002059233,1,1
0.0002475741,0.0002067336,1,1
0.0003101313,0.0001968476,1,1
0.0004044533,0.0001752929,1,1
0.000544964,0.0001459591,1,1
0.0007366874,0.0001188942,1,1
0.0009621205,0.0001073875,1,1
0.001177506,0.0001156529,1,1
0.001329523,0.0001398006,1,1
0.001389812,0.0001675138,1,1
0.001369391,0.0001898788,1,1
0.001303593,0.0002012234,1,1
0.001229042,0.0002059233,1,1
0.001173292,0.0002083542,1,1
0.001144606,0.0002117576,1,1
0.001128724,0.0002156472,1,1
0.001100524,0.0002169437,1,1
0.001038778,0.0002135403,1,1
0.000936028,0.0002020337,1,1
0.000800055,0.0001799928,1,1
0.000648848,0.0001500107,1,1
0.0005083373,0.0001179218,1,1
0.0003994293,8.956036e-05,1,1
0.000326824,6.638502e-05,1,1
0.000279663,4.985435e-05,1,1
0.0002363916,3.883391e-05,1,1
0.0001786963,2.927205e-05,1,1
9.426025e-05,1.484824e-05,1,1
-2.404744e-05,-9.785688e-06,1,1
-0.0001707166,-3.960571e-05,1,1
-0.0003209511,-6.748094e-05,1,1
-0.0004452552,-9.341139e-05,1,1
-0.000519319,-0.0001211246,1,1
-0.0005363359,-0.0001562927,1,1
-0.0005151053,-0.0001938919,1,1
-0.0004971161,-0.0002237119,1,1
-0.0005117019,-0.0002384598,1,1
-0.000561456,-0.0002332737,1,1
-0.0006264441,-0.0002183637,1,1
-0.0006797637,-0.0002099363,1,1
-0.0006971046,-0.0002196603,1,1
-0.0006727948,-0.000246401,1,1
-0.000618665,-0.000278652,1,1
-0.0005569181,-0.0003053928,1,1
-0.0005071641,-0.0003102548,1,1
-0.0004755614,-0.0002823795,1,1
-0.0004530343,-0.0002209568,1,1
-0.0004301831,-0.0001387897,1,1
-0.0004018217,-5.2733e-05,1,1
-0.0003598467,2.473423e-05,1,1
-0.0002985861,8.080883e-05,1,1
-0.0002222533,0.0001030118,1,1
-0.0001499722,8.550872e-05,1,1
-0.0001076731,3.624086e-05,1,1
-0.0001149661,-2.501983e-05,1,1
-0.0001746061,-7.979791e-05,1,1
-0.0002707109,-0.0001154523,1,1
-0.0003744326,-0.000127283,1,1
-0.0004538446,-0.0001154523,1,1
-0.0004901472,-8.935975e-05,1,1
-0.0004883645,-5.808115e-05,1,1
-0.000467134,-2.728874e-05,1,1
-0.0004486585,2.207145e-06,1,1
-0.0004436345,3.073064e-05,1,1
-0.0004484965,5.714729e-05,1,1
-0.0004515757,8.242948e-05,1,1
-0.0004421759,0.0001077117,1,1
-0.0004164075,0.0001312112,1,1
-0.000377836,0.0001480659,1,1
-0.0003363473,0.0001529279,1,1
-0.0003086341,0.0001477418,1,1
-0.0003084721,0.0001399627,1,1
-0.000333106,0.0001349386,1,1
-0.0003715154,0.0001388282,1,1
-0.0004060354,0.0001509831,1,1
-0.0004198109,0.0001657311,1,1
-0.0004010113,0.0001748067,1,1
-0.0003485022,0.0001743205,1,1
-0.0002715212,0.0001636242,1,1
-0.0001912988,0.000143204,1,1
-0.0001344139,0.0001154908,1,1
-0.000119666,8.79397e-05,1,1
-0.0001486757,6.557468e-05,1,1
-0.0002079916,4.77475e-05,1,1
-0.0002817312,3.478228e-05,1,1
-0.000358064,2.732727e-05,1,1
-0.0004332623,2.684107e-05,1,1
-0.0004901472,3.251336e-05,1,1
-0.0004946851,3.98063e-05,1,1
-0.0004005251,4.256141e-05,1,1
-0.0001804405,3.915804e-05,1,1
0.0001513072,3.299956e-05,1,1
0.00053994,3.073064e-05,1,1
0.0009311661,3.170304e-05,1,1
0.001295489,4.045456e-05,1,1
0.001617514,5.925414e-05,1,1
0.001891081,8.615699e-05,1,1
0.002113759,0.0001150046,1,1
0.002290735,0.0001365593,1,1
0.002425899,0.0001415833,1,1
0.002518276,0.0001299146,1,1
0.002555876,0.000111115,1,1
0.002525407,0.000101067,1,1
0.002419092,0.000113384,1,1
0.002239523,0.0001449867,1,1
0.001998044,0.0001759412,1,1
0.00171135,0.0001874478,1,1
0.001401318,0.000168162,1,1
0.001084642,0.0001216493,1,1
0.0007789865,5.957827e-05,1,1
0.0004989374,-5.247859e-06,1,1
0.0002532463,-6.586029e-05,1,1
3.98063e-05,-0.0001151281,1,1
-0.0001624512,-0.0001465688,1,1
-0.0003745947,-0.0001621271,1,1
-0.0006048895,-0.0001652063,1,1
-0.0008426392,-0.000152079,1,1
-0.001070179,-0.000119666,1,1
-0.001261092,-7.866345e-05,1,1
-0.001393661,-4.722278e-05,1,1
-0.00145946,-4.090223e-05,1,1
-0.001469022,-6.261898e-05,1,1
-0.001440822,-0.0001013526,1,1
-0.001399496,-0.0001404103,1,1
-0.001355252,-0.0001686097,1,1
-0.001308577,-0.0001814128,1,1
-0.001255906,-0.000181737,1,1
-0.001198373,-0.0001765509,1,1
-0.001144243,-0.0001731475,1,1
-0.001104537,-0.0001754164,1,1
-0.001081361,-0.0001844921,1,1
-0.0010671,-0.0002011848,1,1
-0.001051703,-0.000221443,1,1
-0.001031769,-0.000238784,1,1
-0.001016373,-0.0002483458,1,1
-0.001015887,-0.0002491561,1,1
-0.001022856,-0.000241377,1,1
-0.001009891,-0.0002209568,1,1
-0.0009496023,-0.000189192,1,1
-0.0008283774,-0.0001530514,1,1
-0.0006573986,-0.000119828,1,1
-0.0004690787,-9.2439e-05,1,1
-0.0003052308,-6.991193e-05,1,1
-0.0001974573,-5.013995e-05,1,1
-0.000161965,-3.587821e-05,1,1
-0.0001893541,-2.372331e-05,1,1
-0.0002535319,-1.3027e-05,1,1
-0.0003186821,-2.492749e-06,1,1
-0.0003514194,6.582909e-06,1,1
-0.0003327818,1.338965e-05,1,1
-0.0002639041,1.857574e-05,1,1
-0.000161965,2.359977e-05,1,1
-4.80331e-05,3.024445e-05,1,1
5.909208e-05,3.672706e-05,1,1
0.0001466074,4.564065e-05,1,1
0.0002112714,5.423012e-05,1,1
0.0002637806,5.957827e-05,1,1
0.0003188828,6.087479e-05,1,1
0.000388733,6.152305e-05,1,1
0.0004767345,6.849186e-05,1,1
0.0005866149,8.194328e-05,1,1
0.000710757,9.896015e-05,1,1
0.0008267959,0.0001179218,1,1
0.0009075044,0.0001417454,1,1
0.0009371624,0.0001678379,1,1
0.0009182008,0.0001936063,1,1
0.0008587227,0.0002211574,1,1
0.0007694247,0.0002506533,1,1
0.0006663511,0.0002788527,1,1
0.0005751082,0.000299597,1,1
0.0005185474,0.0003114278,1,1
0.0005023408,0.0003148312,1,1
0.0005135234,0.0003065659,1,1
0.0005394538,0.0002877662,1,1
0.0005718669,0.0002613496,1,1
0.0006106006,0.0002323399,1,1
0.0006587339,0.0002034923,1,1
0.0007143224,0.0001775618,1,1
0.0007606731,0.0001586002,1,1
0.0007723419,0.0001467694,1,1
0.000723236,0.0001404489,1,1
0.0006081695,0.0001346145,1,1
0.0004517764,0.0001250527,1,1
0.0002936006,0.000108522,1,1
0.0001701068,8.064677e-05,1,1
0.0001022015,4.434413e-05,1,1
9.037068e-05,6.258778e-06,1,1
0.0001083599,-2.7937e-05,1,1
0.0001200286,-5.710876e-05,1,1
0.0001098185,-8.012204e-05,1,1
7.935024e-05,-9.697683e-05,1,1
3.056858e-05,-0.0001088076,1,1
-3.733679e-05,-0.000119828,1,1
-0.0001141558,-0.0001282554,1,1
-0.0001815749,-0.0001365208,1,1
-0.0002230636,-0.0001473791,1,1
-0.0002407288,-0.0001609926,1,1
-0.0002494803,-0.0001762268,1,1
-0.0002673075,-0.0001895161,1,1
-0.0003021515,-0.0002003745,1,1
-0.0003535262,-0.0002107467,1,1
-0.0004168937,-0.0002180396,1,1
-0.0004813957,-0.000219012,1,1
-0.0005316359,-0.00021415,1,1
-0.0005557837,-0.0002006986,1,1
-0.0005520562,-0.0001799543,1,1
-0.0005319601,-0.0001561307,1,1
-0.0005039228,-0.0001332795,1,1
-0.0004752372,-0.0001136696,1,1
-0.0004512515,-9.746302e-05,1,1
-0.0004316416,-8.044617e-05,1,1
-0.0004096008,-6.148453e-05,1,1
-0.0003781601,-4.446767e-05,1,1
-0.0003285682,-3.004385e-05,1,1
-0.0002546664,-2.015787e-05,1,1
-0.0001514308,-1.318906e-05,1,1
-2.339918e-05,-4.923729e-06,1,1
0.0001132219,1.193106e-05,1,1
0.0002342847,3.656499e-05,1,1
0.0003188828,5.974033e-05,1,1
0.0003563199,7.286763e-05,1,1
0.0003508097,7.432621e-05,1,1
0.0003171001,6.573675e-05,1,1
0.000269777,5.115087e-05,1,1
0.0002231022,4.191315e-05,1,1
0.0001843686,4.515445e-05,1,1
0.0001539003,6.119892e-05,1,1
0.0001257009,8.437427e-05,1,1
9.507057e-05,0.0001043083,1,1
6.622294e-05,0.000113384,1,1
6.217132e-05,0.0001112771,1,1
0.000113546,0.0001015532,1,1
0.0002360674,9.296373e-05,1,1
0.0004052637,9.118101e-05,1,1
0.0005634395,9.977047e-05,1,1
0.0006587339,0.0001177597,1,1
0.0006657028,0.0001430419,1,1
0.0005911527,0.0001743205,1,1
0.0004616624,0.0002007372,1,1
0.000314345,0.0002169437,1,1
0.0001798307,0.0002198609,1,1
7.497447e-05,0.0002148369,1,1
9.106227e-07,0.0002114335,1,1
-4.884343e-05,0.0002159713,1,1
-8.579432e-05,0.0002265056,1,1
-0.0001185315,0.0002357433,1,1
-0.0001606685,0.0002372019,1,1
-0.0002178775,0.0002297469,1,1
-0.000281083,0.000217754,1,1
-0.0003352128,0.0002039785,1,1
-0.0003664914,0.0001869616,1,1
-0.0003741085,0.0001647587,1,1
-0.0003663294,0.0001422316,1,1
-0.0003572537,0.0001218114,1,1
-0.0003671397,0.00010366,1,1
-0.0004152731,8.810177e-05,1,1
-0.0005060296,7.546067e-05,1,1
-0.0006209339,6.622294e-05,1,1
-0.0007329211,5.94162e-05,1,1
-0.0008277292,5.325772e-05,1,1
-0.0009076274,4.758544e-05,1,1
-0.0009776396,4.191315e-05,1,1
-0.001043438,3.510641e-05,1,1
-0.001099999,2.700314e-05,1,1
-0.001135329,2.327564e-05,1,1
-0.001134519,2.408596e-05,1,1
-0.001088492,2.34377e-05,1,1
-0.001000653,1.808955e-05,1,1
-0.0008847762,5.610517e-06,1,1
-0.0007654962,-1.010982e-05,1,1
-0.0006603158,-2.372331e-05,1,1
-0.0005682627,-3.360929e-05,1,1
-0.0004736166,-4.333321e-05,1,1
-0.0003502849,-5.338126e-05,1,1
-0.0001763888,-6.310517e-05,1,1
6.249545e-05,-7.363943e-05,1,1
0.0003605336,-8.887356e-05,1,1
0.0006856368,-0.0001102662,1,1
0.0009968026,-0.0001386276,1,1
0.001255297,-0.0001705545,1,1
0.001436973,-0.0002021572,1,1
0.00153956,-0.0002199844,1,1
0.001587694,-0.0002070192,1,1
0.0016086,-0.0001553203,1,1
0.001615569,-7.752899e-05,1,1
0.001620593,-4.275467e-06,1,1
0.001636476,3.802358e-05,1,1
0.001677802,3.915804e-05,1,1
0.001747004,3.503668e-06,1,1
0.001837923,-5.402952e-05,1,1
0.001940511,-0.0001152902,1,1
0.002040506,-0.0001629374,1,1
0.002125752,-0.0001831956,1,1
0.002187499,-0.0001716889,1,1
0.002203544,-0.0001329553,1,1
0.0021405,-8.384954e-05,1,1
0.001969359,-4.284701e-05,1,1
0.001694171,-1.918548e-05,1,1
0.00134573,-9.623623e-06,1,1
0.0009677928,-6.058186e-06,1,1
0.0005995801,-4.599598e-06,1,1
0.0002611876,-6.382317e-06,1,1
-4.333321e-05,-1.399939e-05,1,1
-0.0003143064,-2.501983e-05,1,1
-0.000544277,-3.101625e-05,1,1
-0.0007207661,-2.307504e-05,1,1
-0.0008319429,6.582909e-06,1,1
-0.0008800763,5.406805e-05,1,1
-0.000886721,0.0001044704,1,1
-0.000881859,0.0001391524,1,1
-0.0008870451,0.0001451488,1,1
-0.0009105446,0.0001231079,1,1
-0.0009455507,8.631905e-05,1,1
-0.0009878498,5.179914e-05,1,1
-0.001034687,3.18651e-05,1,1
-0.001079579,2.862379e-05,1,1
-0.001114261,3.850978e-05,1,1
-0.001127388,5.763349e-05,1,1
-0.001112802,8.097089e-05,1,1
-0.001073096,0.0001013911,1,1
-0.001023504,0.0001122495,1,1
-0.0009794224,0.0001143563,1,1
-0.0009489541,0.0001088461,1,1
-0.0009299924,9.798775e-05,1,1
-0.0009196203,8.486046e-05,1,1
-0.0009123273,7.30297e-05,1,1
-0.0009009827,6.41161e-05,1,1
-0.0008776453,6.022653e-05,1,1
-0.0008415048,6.281957e-05,1,1
-0.0007938576,6.654708e-05,1,1
-0.0007395657,6.492643e-05,1,1
-0.0006847876,5.666109e-05,1,1
-0.0006348715,4.564065e-05,1,1
-0.0005872243,3.688912e-05,1,1
-0.0005329325,3.299956e-05,1,1
-0.0004703753,3.348575e-05,1,1
-0.0004115456,3.624086e-05,1,1
-0.0003692465,3.640293e-05,1,1
-0.0003525538,3.251336e-05,1,1
-0.0003601709,2.149292e-05,1,1
-0.0003836704,4.638125e-06,1,1
-0.0004110594,-1.480971e-05,1,1
-0.0004347209,-3.117831e-05,1,1
-0.0004574101,-4.187462e-05,1,1
-0.0004826922,-4.252288e-05,1,1
-0.0005081365,-3.393342e-05,1,1
-0.0005249913,-2.0482e-05,1,1
-0.0005264499,-6.868513e-06,1,1
-0.0005097571,-2.238346e-07,1,1
-0.0004773441,-3.627206e-06,1,1
-0.0004363416,-1.383732e-05,1,1
-0.0003980942,-2.534396e-05,1,1
-0.0003698948,-3.344723e-05,1,1
-0.0003502849,-3.474375e-05,1,1
-0.0003329439,-3.150244e-05,1,1
-0.0003074997,-2.631635e-05,1,1
-0.0002639041,-2.031993e-05,1,1
-0.0002006986,-1.513384e-05,1,1
-0.0001251762,-1.562004e-05,1,1
-5.192267e-05,-2.177852e-05,1,1
9.338019e-06,-3.360929e-05,1,1
5.471631e-05,-4.85193e-05,1,1
9.053275e-05,-6.48879e-05,1,1
0.0001271595,-8.141856e-05,1,1
0.0001621656,-9.794922e-05,1,1
0.000187772,-0.0001115627,1,1
0.0002020337,-0.0001165867,1,1
0.0002109473,-0.0001135075,1,1
0.0002242366,-0.0001091317,1,1
0.0002441707,-0.0001105903,1,1
0.0002634565,-0.0001229073,1,1
0.0002704253,-0.0001434896,1,1
0.0002571359,-0.0001629374,1,1
0.0002255332,-0.0001715269,1,1
0.000192796,-0.0001652063,1,1
0.0001736723,-0.0001439758,1,1
0.0001736723,-0.0001146419,1,1
0.0001837203,-9.000802e-05,1,1
0.0001981441,-7.65566e-05,1,1
0.0002172679,-6.877746e-05,1,1
0.0002466017,-5.759496e-05,1,1
0.0002890628,-4.171256e-05,1,1
0.0003386548,-2.874733e-05,1,1
0.0003777126,-2.7937e-05,1,1
0.0003867882,-4.025397e-05,1,1
0.0003610198,-5.808115e-05,1,1
0.0003140208,-7.396356e-05,1,1
0.0002713977,-8.44978e-05,1,1
0.0002571359,-8.741498e-05,1,1
0.0002861456,-8.109443e-05,1,1
0.0003623164,-6.731888e-05,1,1
0.0004715484,-5.013995e-05,1,1
0.0005952043,-3.020592e-05,1,1
0.0007177258,-2.492749e-06,1,1
0.0008287407,4.207521e-05,1,1
0.000926142,0.0001039842,1,1
0.001017223,0.0001723757,1,1
0.001101335,0.0002310434,1,1
0.001169402,0.0002636185,1,1
0.001209919,0.0002603772,1,1
0.001220291,0.0002268297,1,1
0.00120765,0.0001773998,1,1
0.001175885,0.0001255389,1,1
0.001126455,8.210535e-05,1,1
0.00106098,5.601284e-05,1,1
0.0009792994,5.179914e-05,1,1
0.0008859497,6.930219e-05,1,1
0.0007909794,0.0001022015,1,1
0.0007114052,0.0001448246,1,1
0.000653872,0.0001955511,1,1
0.0006071971,0.0002509774,1,1
0.0005529052,0.000302028,1,1
0.0004678209,0.0003362238,1,1
0.0003376824,0.0003488649,1,1
0.0001718896,0.0003407616,1,1
-3.465141e-06,0.0003151553,1,1
-0.0001590478,0.0002791768,1,1
-0.0002814071,0.0002415777,1,1
-0.0003737844,0.0002054371,1,1
-0.0004468758,0.000168,1,1
-0.0005112157,0.0001268354,1,1
-0.0005758798,8.307774e-05,1,1
-0.0006371404,4.02925e-05,1,1
-0.0006851118,2.623614e-07,1,1
-0.0007045596,-3.360929e-05,1,1
-0.0006883531,-5.581224e-05,1,1
-0.0006398956,-6.48879e-05,1,1
-0.0005695592,-6.472583e-05,1,1
-0.0004903093,-6.0188e-05,1,1
-0.0004215936,-5.662256e-05,1,1
-0.0003763774,-5.59743e-05,1,1
-0.0003588744,-5.921561e-05,1,1
-0.0003650328,-6.083626e-05,1,1
-0.0003841565,-5.59743e-05,1,1
-0.0004021458,-4.625038e-05,1,1
-0.0004087905,-3.425755e-05,1,1
-0.0004031182,-2.064406e-05,1,1
-0.0003873979,-7.354709e-06,1,1
-0.0003687603,1.002961e-07,1,1
-0.0003643846,-2.81688e-06,1,1
-0.0003966356,-1.578211e-05,1,1
-0.0004812336,-3.409549e-05,1,1
-0.0006159099,-5.451572e-05,1,1
-0.0007768407,-7.282909e-05,1,1
-0.0009254546,-8.271508e-05,1,1
-0.00101459,-8.773911e-05,1,1
-0.001000815,-9.357346e-05,1,1
-0.0008546321,-0.0001018388,1,1
-0.0005779866,-0.0001092938,1,1
-0.0002128535,-0.0001125351,1,1
0.0001623277,-0.0001071869,1,1
0.0004728449,-9.19528e-05,1,1
0.0006678096,-7.120844e-05,1,1
0.0007342565,-5.127441e-05,1,1
0.0007015193,-3.571614e-05,1,1
0.000629238,-2.809907e-05,1,1
0.000572029,-2.583016e-05,1,1
0.0005608465,-2.323711e-05,1,1
0.0005995801,-1.691656e-05,1,1
0.0006752646,-1.027188e-05,1,1
0.0007699109,-7.516774e-06,1,1
0.0008556435,-9.299493e-06,1,1
0.0009081527,-1.059602e-05,1,1
0.0009180387,-7.192643e-06,1,1
0.0009062079,2.855407e-06,1,1
0.0009036149,1.97102e-05,1,1
0.0009280868,3.591673e-05,1,1
0.0009721686,4.790957e-05,1,1
0.001017385,5.698522e-05,1,1
0.00105466,6.573675e-05,1,1
0.001082697,7.562274e-05,1,1
0.001096959,9.069481e-05,1,1
0.001076701,0.0001119254,1,1
0.000992751,0.0001289422,1,1
0.0008230684,0.0001398006,1,1
0.0005692738,0.000143204,1,1
0.0002566497,0.0001401247,1,1
-7.18567e-05,0.0001297526,1,1
-0.0003724878,0.0001146805,1,1
-0.0006223925,9.766362e-05,1,1
-0.0008154123,8.388807e-05,1,1
-0.0009593263,7.610894e-05,1,1
-0.001068882,7.092284e-05,1,1
-0.001159153,6.476436e-05,1,1
-0.001237754,5.601284e-05,1,1
-0.001292533,4.45062e-05,1,1
-0.001296908,3.429608e-05,1,1
-0.001237592,2.927205e-05,1,1
-0.001124633,3.073064e-05,1,1
-0.0009899565,3.55926e-05,1,1
-0.0008663007,4.077869e-05,1,1
-0.0007737615,4.483033e-05,1,1
-0.0007100698,4.709924e-05,1,1
-0.000648323,4.871989e-05,1,1
-0.0005611319,4.985435e-05,1,1
-0.0004311555,5.19612e-05,1,1
-0.0002619593,5.390598e-05,1,1
-7.65566e-05,5.066468e-05,1,1
9.474644e-05,4.013043e-05,1,1
0.0002247229,2.262738e-05,1,1
0.0002898731,4.638125e-06,1,1
0.0002790148,-9.947754e-06,1,1
0.0001950649,-1.918548e-05,1,1
6.200925e-05,-2.437157e-05,1,1
-7.979791e-05,-2.89094e-05,1,1
-0.0001947022,-3.587821e-05,1,1
-0.0002682799,-4.284701e-05,1,1
-0.0003087962,-4.706071e-05,1,1
-0.000330675,-4.835724e-05,1,1
-0.0003301888,-4.932962e-05,1,1
-0.0003003688,-5.046408e-05,1,1
-0.0002476975,-5.046408e-05,1,1
-0.0001974573,-4.754691e-05,1,1
-0.0001784957,-4.349527e-05,1,1
-0.0002088019,-4.43056e-05,1,1
-0.0002895104,-4.738484e-05,1,1
-0.0004133283,-5.240886e-05,1,1
-0.0005650214,-5.953974e-05,1,1
-0.0007173628,-6.845333e-05,1,1
-0.0008358325,-7.995997e-05,1,1
-0.0008977414,-9.341139e-05,1,1
-0.0008977414,-0.000104756,1,1
-0.0008450702,-0.0001112386,1,1
-0.0007633893,-0.0001154523,1,1
-0.000673281,-0.0001203142,1,1
-0.000581552,-0.0001274451,1,1
-0.0004805854,-0.0001353863,1,1
-0.0003600088,-0.0001405724,1,1
-0.0002143121,-0.0001387897,1,1
-4.689865e-05,-0.0001340898,1,1
0.0001287802,-0.0001306864,1,1
0.0002984626,-0.0001336036,1,1
0.0004592314,-0.0001389517,1,1
0.0006123833,-0.0001417068,1,1
0.0007546768,-0.000134576,1,1
0.0008729845,-0.0001164247,1,1
0.000953207,-8.919769e-05,1,1
0.0009899958,-5.921561e-05,1,1
0.0009852959,-3.506788e-05,1,1
0.0009473725,-1.983374e-05,1,1
0.0008880566,-1.173047e-05,1,1
0.0008195029,-7.354709e-06,1,1
0.0007462493,-1.844488e-06,1,1
0.0006626236,1.063454e-05,1,1
0.0005636016,3.008238e-05,1,1
0.0004516144,5.001642e-05,1,1
0.0003326584,6.233338e-05,1,1
0.0002133783,6.476436e-05,1,1
9.912221e-05,6.168512e-05,1,1
-5.085794e-06,6.200925e-05,1,1
-8.773911e-05,7.043665e-05,1,1
-0.0001336036,8.939829e-05,1,1
-0.0001327933,0.0001158149,1,1
-7.995997e-05,0.0001415833,1,1
2.39239e-05,0.0001636242,1,1
0.0001667035,0.0001808031,1,1
0.0003232586,0.000192796,1,1
0.0004593935,0.0002005751,1,1
0.0005394538,0.000207706,1,1
0.0005491778,0.0002203471,1,1
0.0004990995,0.0002397949,1,1
0.0004148255,0.0002603772,1,1
0.0003195311,0.0002754493,1,1
0.0002242366,0.0002795009,1,1
0.0001325077,0.0002684805,1,1
4.272347e-05,0.0002417397,1,1
-4.608832e-05,0.0002046267,1,1
-0.0001344139,0.0001699448,1,1
-0.0002118811,0.0001470936,1,1
-0.0002624455,0.0001363972,1,1
-0.0002791382,0.0001344524,1,1
-0.0002692523,0.0001352628,1,1
-0.0002357047,0.0001346145,1,1
-0.0001801163,0.0001328318,1,1
-0.0001136696,0.0001342904,1,1
-5.59743e-05,0.0001420695,1,1
-2.583016e-05,0.0001545486,1,1
-1.934754e-05,0.0001633001,1,1
-2.745081e-05,0.0001608691,1,1
-4.236082e-05,0.0001409351,1,1
-5.808115e-05,0.0001057669,1,1
-7.444975e-05,6.362991e-05,1,1
-9.033215e-05,2.100672e-05,1,1
-0.0001015147,-1.788895e-05,1,1
-0.0001050801,-5.483985e-05,1,1
-0.0001003802,-8.692878e-05,1,1
-8.303922e-05,-0.0001115627,1,1
-4.932962e-05,-0.0001235555,1,1
-2.006553e-06,-0.0001235555,1,1
4.72613e-05,-0.0001162626,1,1
8.891209e-05,-0.0001084835,1,1
0.0001218114,-0.0001044318,1,1
0.0001501728,-0.0001000561,1,1
0.0001723757,-8.903562e-05,1,1
0.0001783722,-6.748094e-05,1,1
0.0001658931,-3.863332e-05,1,1
0.0001352628,-1.059602e-05,1,1
9.134307e-05,6.744974e-06,1,1
4.434413e-05,8.203562e-06,1,1
-3.858999e-07,-6.706447e-06,1,1
-4.544006e-05,-3.344723e-05,1,1
-9.827335e-05,-6.423963e-05,1,1
-0.0001624512,-9.2439e-05,1,1
-0.0002282497,-0.0001118868,1,1
-0.0002754107,-0.0001204763,1,1
-0.0002927517,-0.0001217728,1,1
-0.0002843243,-0.0001224211,1,1
-0.0002622834,-0.0001253383,1,1
-0.0002316531,-0.0001357104,1,1
-0.0001887058,-0.000151917,1,1
-0.0001336036,-0.0001697442,1,1
-7.396356e-05,-0.0001840059,1,1
-2.080613e-05,-0.0001903264,1,1
1.744129e-05,-0.0001857886,1,1
4.094075e-05,-0.0001733096,1,1
5.682316e-05,-0.0001579134,1,1
7.400208e-05,-0.0001464067,1,1
0.0001018773,-0.0001397621,1,1
0.0001480659,-0.0001326312,1,1
0.000200413,-0.000119666,1,1
0.0002381743,-0.0001034594,1,1
0.0002467637,-8.692878e-05,1,1
0.0002240746,-6.974985e-05,1,1
0.0001850168,-4.916756e-05,1,1
0.0001595726,-1.902341e-05,1,1
0.0001707551,1.711715e-05,1,1
0.0002255332,5.374392e-05,1,1
0.0003096451,8.307774e-05,1,1
0.000381278,9.977047e-05,1,1
0.0003982949,0.0001051186,1,1
0.0003307136,0.0001000946,1,1
0.000177886,8.696731e-05,1,1
-2.84232e-05,6.946425e-05,1,1
-0.0002360289,5.115087e-05,1,1
-0.0003963114,3.332369e-05,1,1
-0.0004903093,1.776542e-05,1,1
-0.0005240189,9.175954e-06,1,1
-0.0005206155,1.274139e-05,1,1
-0.0005006815,2.76514e-05,1,1
-0.0004700511,4.936815e-05,1,1
-0.0004241867,7.270556e-05,1,1
-0.0003624398,9.118101e-05,1,1
-0.0002895104,0.0001026876,1,1
-0.0002042641,0.000111115,1,1
-0.0001018388,0.0001195424,1,1
1.808955e-05,0.0001291043,1,1
0.0001451488,0.0001391524,1,1
0.0002628082,0.0001462832,1,1
0.0003545372,0.0001534141,1,1
0.0004138531,0.0001670276,1,1
0.0004469145,0.0001914995,1,1
0.0004658761,0.0002213195,1,1
0.0004809482,0.0002480603,1,1
0.000500234,0.0002626462,1,1
0.0005378332,0.0002613496,1,1
0.0006109247,0.0002461155,1,1
0.0007290703,0.0002242366,1,1
0.0008762258,0.0002047888,1,1
0.001011226,0.0001902029,1,1
0.001085452,0.0001739964,1,1
0.001062439,0.0001526038,1,1
0.0009381349,0.0001237561,1,1
0.0007376599,9.004655e-05,1,1
0.0005007202,5.228533e-05,1,1
0.0002566497,1.468618e-05,1,1
1.792748e-05,-1.756482e-05,1,1
-0.000206695,-4.317115e-05,1,1
-0.0003937184,-6.423963e-05,1,1
-0.0005112157,-8.174268e-05,1,1
-0.0005476804,-9.811128e-05,1,1
-0.0005228845,-0.0001233935,1,1
-0.000459679,-0.000164396,1,1
-0.0003663294,-0.0002039399,1,1
-0.0002446183,-0.0002107467,1,1
-0.0001135075,-0.0001650443,1,1
-5.57199e-06,-7.007399e-05,1,1
4.499239e-05,4.320967e-05,1,1
2.197911e-05,0.0001334801,1,1
-6.164659e-05,0.0001712413,1,1
-0.0001754164,0.0001504969,1,1
-0.0002904828,8.988449e-05,1,1
-0.000385291,1.484824e-05,1,1
-0.0004478482,-5.305713e-05,1,1
-0.0004734545,-9.875954e-05,1,1
-0.0004630823,-0.000117235,1,1
-0.0004256453,-0.0001118868,1,1
-0.0003745947,-9.081835e-05,1,1
-0.0003228959,-6.602235e-05,1,1
-0.0002718453,-4.608832e-05,1,1
-0.000226467,-3.425755e-05,1,1
-0.0001958367,-2.907146e-05,1,1
-0.0001806025,-2.858527e-05,1,1
-0.0001731475,-2.858527e-05,1,1
-0.000169258,-2.615429e-05,1,1
-0.0001695821,-2.339918e-05,1,1
-0.0001736337,-2.372331e-05,1,1
-0.000176875,-2.761287e-05,1,1
-0.0001713648,-3.117831e-05,1,1
-0.0001514308,-2.712668e-05,1,1
-0.0001112386,-1.318906e-05,1,1
-5.192267e-05,7.717366e-06,1,1
1.695509e-05,2.959619e-05,1,1
7.562274e-05,4.369587e-05,1,1
0.0001030118,4.418206e-05,1,1
9.069481e-05,3.380988e-05,1,1
3.915804e-05,1.938607e-05,1,1
-3.895745e-05,6.90704e-06,1,1
-0.0001206384,-1.358292e-06,1,1
-0.0001887058,-3.14101e-06,1,1
-0.000233922,9.106227e-07,1,1
-0.0002527216,9.013889e-06,1,1
-0.0002509389,1.938607e-05,1,1
-0.0002332737,2.862379e-05,1,1
-0.0002006986,3.737532e-05,1,1
-0.0001621271,4.677511e-05,1,1
-0.0001313347,5.504044e-05,1,1
-0.0001159385,6.022653e-05,1,1
-0.0001151281,5.974033e-05,1,1
-0.0001177212,5.406805e-05,1,1
-0.0001120489,4.72613e-05,1,1
-9.778715e-05,4.061663e-05,1,1
-7.882551e-05,3.93201e-05,1,1
-5.565017e-05,4.418206e-05,1,1
-3.21507e-05,5.017848e-05,1,1
-1.480971e-05,4.969229e-05,1,1
-1.075808e-05,4.045456e-05,1,1
-1.416145e-05,2.603075e-05,1,1
-1.270286e-05,1.079661e-05,1,1
4.47606e-06,-3.858999e-07,1,1
3.55926e-05,-4.437533e-06,1,1
7.221937e-05,-1.196227e-06,1,1
9.977047e-05,5.772582e-06,1,1
0.0001007429,1.257933e-05,1,1
6.930219e-05,1.565857e-05,1,1
1.193106e-05,1.533444e-05,1,1
-5.775702e-05,1.630683e-05,1,1
-0.0001209625,2.035846e-05,1,1
-0.0001603444,2.603075e-05,1,1
-0.0001707166,3.235129e-05,1,1
-0.0001535376,4.256141e-05,1,1
-0.0001139937,6.41161e-05,1,1
-6.099833e-05,9.960841e-05,1,1
2.04508e-06,0.0001438522,1,1
7.610894e-05,0.000190365,1,1
0.0001598967,0.0002269918,1,1
0.000247412,0.0002414156,1,1
0.0003300653,0.0002279642,1,1
0.0004062361,0.0001876099,1,1
0.0004775448,0.0001312112,1,1
0.0005430193,7.335383e-05,1,1
0.0005971491,2.732727e-05,1,1
0.0006336138,-2.81688e-06,1,1
0.0006486859,-1.886135e-05,1,1
0.0006269692,-2.907146e-05,1,1
0.0005579292,-4.203669e-05,1,1
0.0004501558,-6.456377e-05,1,1
0.0003276344,-9.746302e-05,1,1
0.0002169437,-0.0001352242,1,1
0.0001412592,-0.0001673132,1,1
0.0001154908,-0.0001908126,1,1
0.000133318,-0.0002047502,1,1
0.0001626518,-0.0002126914,1,1
0.0001694586,-0.0002159328,1,1
0.0001346145,-0.0002154466,1,1
6.525056e-05,-0.0002133397,1,1
-1.886135e-05,-0.000209126,1,1
-9.568031e-05,-0.0002045882,1,1
-0.0001577513,-0.0001995642,1,1
-0.000206533,-0.0001893541,1,1
-0.0002486699,-0.0001710407,1,1
-0.0002917793,-0.0001485136,1,1
-0.0003365093,-0.0001259865,1,1
-0.0003784843,-0.0001034594,1,1
-0.0004096008,-7.590833e-05,1,1
-0.0004259694,-3.944364e-05,1,1
-0.0004245108,2.369211e-06,1,1
-0.0004008493,3.688912e-05,1,1
-0.0003536883,5.374392e-05,1,1
-0.0002906449,5.001642e-05,1,1
-0.0002219292,2.959619e-05,1,1
-0.000161965,1.396819e-06,1,1
-0.0001193418,-3.150244e-05,1,1
-9.146661e-05,-6.569822e-05,1,1
-6.618442e-05,-0.0001007043,1,1
-2.647842e-05,-0.0001342519,1,1
3.55926e-05,-0.0001606685,1,1
0.0001163011,-0.000166989,1,1
0.0002020337,-0.000147055,1,1
0.0002696149,-0.0001028112,1,1
0.0002958695,-4.884343e-05,1,1
0.0002705873,-1.196227e-06,1,1
0.0001997648,3.235129e-05,1,1
0.0001022015,5.277153e-05,1,1
2.623614e-07,6.78436e-05,1,1
-8.854943e-05,8.761557e-05,1,1
-0.0001532135,0.0001161391,1,1
-0.0001950263,0.0001519555,1,1
-0.000216581,0.0001906891,1,1
-0.0002117191,0.000225209,1,1
-0.0001783336,0.0002491947,1,1
-0.0001237176,0.0002560015,1,1
-7.137051e-05,0.0002493568,1,1
-4.398147e-05,0.0002365536,1,1
-4.706071e-05,0.0002211574,1,1
-7.169464e-05,0.0002060853,1,1
-9.519411e-05,0.0001947408,1,1
-8.563225e-05,0.000185503,1,1
-1.221667e-05,0.000173024,1,1
0.0001240803,0.0001548727,1,1
0.0002948972,0.0001305629,1,1
0.0004598797,0.0001009049,1,1
0.0005887217,6.78436e-05,1,1
0.0006669993,3.526847e-05,1,1
0.0007045984,9.824215e-06,1,1
0.0007229118,-3.14101e-06,1,1
0.0007421977,-4.437533e-06,1,1
0.0007640765,3.017472e-06,1,1
0.0007791486,1.760335e-05,1,1
0.0007749349,3.737532e-05,1,1
0.000737984,5.779555e-05,1,1
0.0006622995,7.57848e-05,1,1
0.0005537156,9.328786e-05,1,1
0.0004200116,0.0001174356,1,1
0.0002670219,0.0001454729,1,1
0.0001081979,0.0001701068,1,1
-3.798505e-05,0.0001820997,1,1
-0.0001583996,0.0001783722,1,1
-0.0002447804,0.0001649207,1,1
-0.0003027998,0.0001440143,1,1
-0.0003520676,0.0001177597,1,1
-0.0004123559,8.761557e-05,1,1
-0.0004893369,5.471631e-05,1,1
-0.0005745832,2.473423e-05,1,1
-0.0006449196,3.827799e-06,1,1
-0.0006729569,-1.3027e-05,1,1
-0.0006394094,-2.874733e-05,1,1
-0.0005371462,-4.203669e-05,1,1
-0.0003820497,-5.305713e-05,1,1
-0.0002044261,-6.423963e-05,1,1
-3.279896e-05,-7.736692e-05,1,1
0.0001146805,-9.260107e-05,1,1
0.0002266676,-0.0001088076,1,1
0.0002987867,-0.0001219349,1,1
0.0003261758,-0.000127121,1,1
0.0003046211,-0.0001235555,1,1
0.0002363916,-0.0001156143,1,1
0.0001344524,-0.0001083214,1,1
1.64689e-05,-0.0001070249,1,1
-9.422172e-05,-0.0001126972,1,1
-0.0001797922,-0.000122097,1,1
-0.000231329,-0.0001280934,1,1
-0.0002394322,-0.0001287416,1,1
-0.0001912988,-0.0001253383,1,1
-7.169464e-05,-0.0001219349,1,1
0.0001140322,-0.0001201522,1,1
0.0003383307,-0.0001180453,1,1
0.0005666808,-0.0001078352,1,1
0.0007723419,-8.773911e-05,1,1
0.0009301936,-6.326724e-05,1,1
0.001015764,-4.155049e-05,1,1
0.001015278,-2.437157e-05,1,1
0.0009279247,-1.221667e-05,1,1
0.0007609973,-3.14101e-06,1,1
0.0005302161,3.179537e-06,1,1
0.0002712356,8.689758e-06,1,1
2.943412e-05,1.760335e-05,1,1
-0.0001681235,3.348575e-05,1,1
-0.0003233821,5.811968e-05,1,1
-0.0004590307,8.810177e-05,1,1
-0.0005916001,0.0001153287,1,1
-0.000715418,0.0001328318,1,1
-0.0008191398,0.0001404489,1,1
-0.0008970932,0.0001399627,1,1
-0.0009492782,0.000138342,1,1
-0.0009755327,0.0001341283,1,1
-0.0009802326,0.0001244044,1,1
-0.0009594883,0.0001093323,1,1
-0.000909248,9.782569e-05,1,1
-0.0008317808,9.296373e-05,1,1
-0.0007400519,9.63671e-05,1,1
-0.0006517263,0.0001051186,1,1
-0.0005807417,0.0001156529,1,1
-0.0005206155,0.0001248906,1,1
-0.0004428242,0.0001269974,1,1
-0.0003248407,0.0001240803,1,1
-0.0001712027,0.0001197045,1,1
-3.789272e-06,0.0001216493,1,1
0.0001513072,0.0001386662,1,1
0.0002676702,0.0001748067,1,1
0.0003320101,0.0002242366,1,1
0.0003478926,0.0002681563,1,1
0.0003305515,0.0002905214,1,1
0.0002944109,0.0002824181,1,1
0.0002488706,0.0002477361,1,1
0.0001984683,0.0001968476,1,1
0.0001475797,0.0001461212,1,1
0.0001000946,0.0001064152,1,1
5.082674e-05,8.016057e-05,1,1
-7.516774e-06,6.168512e-05,1,1
-7.477388e-05,4.709924e-05,1,1
-0.0001464067,3.121684e-05,1,1
-0.0002167431,1.452411e-05,1,1
-0.0002750866,-6.176923e-08,1,1
-0.0003027998,-7.192643e-06,1,1
-0.0002857829,-9.623623e-06,1,1
-0.000216419,-9.461558e-06,1,1
-0.0001042698,-1.173047e-05,1,1
1.873781e-05,-1.513384e-05,1,1
0.0001130598,-1.724069e-05,1,1
0.0001615174,-1.805102e-05,1,1
0.0001744826,-1.853722e-05,1,1
0.0001722137,-2.242678e-05,1,1
0.0001626518,-3.182657e-05,1,1
0.0001430419,-4.689865e-05,1,1
0.0001022015,-6.845333e-05,1,1
3.056858e-05,-9.260107e-05,1,1
-7.120844e-05,-0.0001141558,1,1
-0.0001900023,-0.0001267968,1,1
-0.0003047445,-0.0001324691,1,1
-0.0003890185,-0.0001378173,1,1
-0.0004266177,-0.000151917,1,1
-0.0004139766,-0.0001754164,1,1
-0.0003609812,-0.0002010227,1,1
-0.0002872415,-0.0002188499,1,1
-0.0002120432,-0.0002248464,1,1
-0.0001455964,-0.0002198223,1,1
-9.065628e-05,-0.0002102605,1,1
-4.625038e-05,-0.0002013469,1,1
-1.643037e-05,-0.0001953505,1,1
-8.813297e-06,-0.0001947022,1,1
-2.210265e-05,-0.0002000504,1,1
-4.317115e-05,-0.0002086398,1,1
-5.613637e-05,-0.000213988,1,1
-4.835724e-05,-0.0002110708,1,1
-2.0482e-05,-0.0002029675,1,1
1.808955e-05,-0.0001948643,1,1
6.265751e-05,-0.0001890299,1,1
0.000113384,-0.0001833576,1,1
0.0001670276,-0.0001739578,1,1
0.0002156472,-0.0001579134,1,1
0.0002485465,-0.0001374932,1,1
0.0002555152,-0.000117235,1,1
0.0002355812,-9.713889e-05,1,1
0.0002086784,-7.704279e-05,1,1
0.0002039785,-5.743289e-05,1,1
0.0002419018,-3.992984e-05,1,1
0.0003203414,-2.388537e-05,1,1
0.0004198496,-1.043395e-05,1,1
0.0005159543,2.369211e-06,1,1
0.0005990939,1.679302e-05,1,1
0.0006751026,3.056858e-05,1,1
0.0007637524,4.175109e-05,1,1
0.000876712,5.358185e-05,1,1
0.001009768,7.140904e-05,1,1
0.001142175,9.847395e-05,1,1
0.001247032,0.000130887,1,1
0.001313641,0.0001610312,1,1
0.001339895,0.0001824238,1,1
0.00131672,0.0001966855,1,1
0.001226936,0.0002115956,1,1
0.001061467,0.0002289366,1,1
0.0008405714,0.0002446569,1,1
0.0006033076,0.0002490327,1,1
0.0003871123,0.0002427121,1,1
0.0002068957,0.0002286124,1,1
6.508849e-05,0.000210299,1,1
-3.522994e-05,0.0001910133,1,1
-8.563225e-05,0.0001735102,1,1
-8.158062e-05,0.0001590864,1,1
-3.766092e-05,0.0001509831,1,1
2.003433e-05,0.0001504969,1,1
6.735741e-05,0.0001571416,1,1
9.134307e-05,0.0001663793,1,1
8.74535e-05,0.0001694586,1,1
5.260946e-05,0.0001658931,1,1
-7.840905e-06,0.0001587623,1,1
-8.07703e-05,0.0001519555,1,1
-0.0001543479,0.0001485521,1,1
-0.0002212809,0.0001461212,1,1
-0.0002838381,0.0001417454,1,1
-0.0003465574,0.0001373696,1,1
-0.0004134903,0.0001329939,1,1
-0.0004797751,0.0001265113,1,1
-0.0005377944,0.0001172735,1,1
-0.0005804176,0.0001056048,1,1
-0.000603755,9.150514e-05,1,1
-0.0006134789,7.691926e-05,1,1
-0.0006194753,6.136099e-05,1,1
-0.0006253097,4.499239e-05,1,1
-0.0006225546,2.927205e-05,1,1
-0.0006056998,1.468618e-05,1,1
-0.0005833348,-1.682422e-06,1,1
-0.0005630766,-2.129233e-05,1,1
-0.00055157,-4.171256e-05,1,1
-0.0005471942,-5.419158e-05,1,1
-0.0005507597,-5.808115e-05,1,1
-0.0005598353,-5.500191e-05,1,1
-0.0005684248,-4.673658e-05,1,1
-0.0005702075,-3.474375e-05,1,1
-0.0005608077,-2.226472e-05,1,1
-0.0005399013,-1.399939e-05,1,1
-0.0005092709,-1.286493e-05,1,1
-0.0004737787,-1.740276e-05,1,1
-0.0004403932,-2.664048e-05,1,1
-0.0004133283,-3.814712e-05,1,1
-0.000390315,-4.787104e-05,1,1
-0.0003669776,-5.59743e-05,1,1
-0.0003442885,-6.342931e-05,1,1
-0.000325813,-7.120844e-05,1,1
-0.0003104168,-7.817725e-05,1,1
-0.0002955068,-8.239095e-05,1,1
-0.0002773555,-8.320128e-05,1,1
-0.0002551526,-7.931171e-05,1,1
-0.0002305186,-7.201877e-05,1,1
-0.0002076674,-6.229485e-05,1,1
-0.0001848162,-5.483985e-05,1,1
-0.0001588858,-5.338126e-05,1,1
-0.0001290658,-5.32192e-05,1,1
-9.989401e-05,-4.965376e-05,1,1
-7.444975e-05,-4.333321e-05,1,1
-5.143648e-05,-3.604027e-05,1,1
-2.453363e-05,-3.166451e-05,1,1
9.338019e-06,-3.166451e-05,1,1
4.839576e-05,-3.441962e-05,1,1
8.988449e-05,-3.717473e-05,1,1
0.000130725,-3.652646e-05,1,1
0.0001637863,-3.328516e-05,1,1
0.0001848548,-3.134038e-05,1,1
0.0001893926,-3.312309e-05,1,1
0.000180479,-3.522994e-05,1,1
0.0001686482,-3.069211e-05,1,1
0.0001608691,-1.967167e-05,1,1
0.0001574657,-2.492749e-06,1,1
0.0001560072,2.003433e-05,1,1
0.0001500107,4.709924e-05,1,1
0.0001363972,7.189524e-05,1,1
0.000115977,9.328786e-05,1,1
9.717743e-05,0.0001088461,1,1
8.972242e-05,0.0001156529,1,1
0.0001000946,0.0001104668,1,1
0.0001279698,9.523264e-05,1,1
0.0001709172,7.837785e-05,1,1
0.0002240746,6.444023e-05,1,1
0.00027707,5.763349e-05,1,1
0.0003245551,5.811968e-05,1,1
0.0003634508,6.573675e-05,1,1
0.0003924605,8.259155e-05,1,1
0.0004102877,0.0001073875,1,1
0.000416122,0.0001354248,1,1
0.0004128807,0.0001597346,1,1
0.0004055878,0.0001718896,1,1
0.0003997535,0.0001686482,1,1
0.0003981328,0.0001561692,1,1
0.0004033189,0.0001441764,1,1
0.0004120704,0.0001420695,1,1
0.0004132049,0.0001495245,1,1
0.0003987811,0.0001595726,1,1
0.0003650715,0.0001637863,1,1
0.0003154794,0.0001600588,1,1
0.0002553532,0.000148228,1,1
0.0001926339,0.000128456,1,1
0.0001375317,0.0001018773,1,1
9.879808e-05,7.335383e-05,1,1
7.708133e-05,4.985435e-05,1,1
6.265751e-05,3.543054e-05,1,1
4.677511e-05,2.700314e-05,1,1
2.181705e-05,1.744129e-05,1,1
-1.075808e-05,2.693341e-06,1,1
-3.701266e-05,-1.383732e-05,1,1
-4.47918e-05,-2.84232e-05,1,1
-3.425755e-05,-4.252288e-05,1,1
-1.448558e-05,-5.824322e-05,1,1
6.096713e-06,-7.833932e-05,1,1
2.181705e-05,-0.0001054042,1,1
3.105477e-05,-0.0001358725,1,1
2.927205e-05,-0.0001647201,1,1
1.403791e-05,-0.0001921092,1,1
-1.221667e-05,-0.0002156086,1,1
-3.830919e-05,-0.0002334358,1,1
-4.85193e-05,-0.000243808,1,1
-3.247483e-05,-0.0002470493,1,1
5.448452e-06,-0.0002434839,1,1
4.985435e-05,-0.000231329,1,1
8.226741e-05,-0.0002107467,1,1
9.507057e-05,-0.0001836818,1,1
9.21534e-05,-0.0001549962,1,1
8.664318e-05,-0.0001263107,1,1
9.231547e-05,-0.0001024871,1,1
0.0001088461,-8.806324e-05,1,1
0.0001231079,-8.093236e-05,1,1
0.0001245665,-7.914964e-05,1,1
0.000108522,-7.850138e-05,1,1
7.513654e-05,-7.55842e-05,1,1
3.526847e-05,-6.472583e-05,1,1
-1.520357e-06,-4.835724e-05,1,1
-3.717473e-05,-3.166451e-05,1,1
-8.07703e-05,-1.99958e-05,1,1
-0.0001310105,-1.399939e-05,1,1
-0.0001778474,-1.480971e-05,1,1
-0.0002136638,-2.356124e-05,1,1
-0.0002329496,-3.717473e-05,1,1
-0.0002326255,-4.965376e-05,1,1
-0.0002147983,-5.59743e-05,1,1
-0.0001812508,-5.370539e-05,1,1
-0.0001292278,-4.300908e-05,1,1
-5.500191e-05,-2.712668e-05,1,1
3.996837e-05,-8.975362e-06,1,1
0.0001464453,1.306552e-05,1,1
0.000250005,3.591673e-05,1,1
0.0003313618,6.03886e-05,1,1
0.0003678266,8.599492e-05,1,1
0.0003553475,0.0001116012,1,1
0.0003054314,0.0001351007,1,1
0.0002419018,0.0001540623,1,1
0.0001827479,0.0001650828,1,1
0.0001304008,0.0001649207,1,1
7.821578e-05,0.0001577899,1,1
2.116879e-05,0.0001474177,1,1
-4.236082e-05,0.0001396385,1,1
-0.000104918,0.0001334801,1,1
-0.0001504584,0.0001247285,1,1
-0.0001686097,0.000110953,1,1
-0.0001590478,9.16672e-05,1,1
-0.0001290658,6.654708e-05,1,1
-8.725291e-05,4.045456e-05,1,1
-3.506788e-05,1.97102e-05,1,1
3.413401e-05,9.500085e-06,1,1
0.0001316974,1.54965e-05,1,1
0.0002608634,4.142696e-05,1,1
0.0004015361,8.664318e-05,1,1
0.0005177371,0.0001410971,1,1
0.0005814288,0.0001898788,1,1
0.0005809425,0.000217754,1,1
0.0005216266,0.0002216436,1,1
0.0004226047,0.0002046267,1,1
0.0003098072,0.0001762653,1,1
0.0002057612,0.0001479039,1,1
0.0001192183,0.0001260251,1,1
4.483033e-05,0.0001124116,1,1
-2.46957e-05,0.0001049566,1,1
-9.373552e-05,0.0001004187,1,1
-0.0001652063,9.361199e-05,1,1
-0.0002423494,8.356394e-05,1,1
-0.0003274337,7.189524e-05,1,1
-0.0004202971,6.265751e-05,1,1
-0.0005183466,5.406805e-05,1,1
-0.0006173685,4.337174e-05,1,1
-0.0007181731,3.121684e-05,1,1
-0.0008218948,1.97102e-05,1,1
-0.0009223754,1.112074e-05,1,1
-0.001004056,5.934648e-06,1,1
-0.001054134,9.106227e-07,1,1
-0.001068882,-6.544382e-06,1,1
-0.001063858,-1.659243e-05,1,1
-0.001059645,-2.955766e-05,1,1
-0.001054783,-4.300908e-05,1,1
-0.001018156,-5.727083e-05,1,1
-0.0009124894,-7.363943e-05,1,1
-0.0007249799,-8.871149e-05,1,1
-0.0004734545,-9.875954e-05,1,1
-0.0001958367,-0.0001013526,1,1
7.351589e-05,-9.762509e-05,1,1
0.0003190449,-9.29252e-05,1,1
0.0005379952,-9.503204e-05,1,1
0.0007237222,-0.0001057284,1,1
0.0008614778,-0.0001211246,1,1
0.0009426727,-0.0001392759,1,1
0.0009716824,-0.0001601823,1,1
0.0009664963,-0.0001818991,1,1
0.0009506139,-0.0001969711,1,1
0.0009489932,-0.000199078,1,1
0.0009690893,-0.0001861127,1,1
0.001003447,-0.0001624512,1,1
0.001035374,-0.0001319829,1,1
0.001051581,-0.0001003802,1,1
0.001046233,-7.347736e-05,1,1
0.001019978,-4.819517e-05,1,1
0.000970548,-1.983374e-05,1,1
0.0008917841,1.014835e-05,1,1
0.0007716935,3.964424e-05,1,1
0.0006037938,6.217132e-05,1,1
0.0003987811,7.027458e-05,1,1
0.0001816135,6.362991e-05,1,1
-2.242678e-05,5.034055e-05,1,1
-0.000191785,4.013043e-05,1,1
-0.000313334,3.624086e-05,1,1
-0.0003809152,4.094075e-05,1,1
-0.0003982562,4.790957e-05,1,1
-0.0003805911,5.293359e-05,1,1
-0.000353202,5.406805e-05,1,1
-0.000335699,5.714729e-05,1,1
-0.0003447747,6.508849e-05,1,1
-0.0003886944,8.161915e-05,1,1
-0.00047232,0.0001067393,1,1
-0.0005980827,0.0001354248,1,1
-0.0007522068,0.0001594105,1,1
-0.0009079515,0.0001718896,1,1
-0.001033228,0.0001723757,1,1
-0.001099027,0.0001637863,1,1
-0.00108752,0.000150659,1,1
-0.001010377,0.0001398006,1,1
-0.0008953104,0.0001401247,1,1
-0.0007635514,0.0001501728,1,1
-0.0006165582,0.0001639484,1,1
-0.0004384484,0.0001759412,1,1
-0.0002235498,0.0001835583,1,1
9.986281e-06,0.0001880961,1,1
0.0002240746,0.0001910133,1,1
0.0003910019,0.0001898788,1,1
0.0005010443,0.0001812893,1,1
0.0005606844,0.0001675138,1,1
0.0005867769,0.0001524417,1,1
0.0005974732,0.0001398006,1,1
0.0006059006,0.0001286181,1,1
0.0006206486,0.0001187321,1,1
0.0006352345,0.0001083599,1,1
0.0006352345,9.798775e-05,1,1
0.0006156246,8.615699e-05,1,1
0.0005806184,6.881599e-05,1,1
0.0005483674,4.191315e-05,1,1
0.000534916,7.23117e-06,1,1
0.0005263265,-2.955766e-05,1,1
0.0004848378,-6.245691e-05,1,1
0.0003759298,-8.611845e-05,1,1
0.000195389,-9.697683e-05,1,1
-3.21507e-05,-9.616651e-05,1,1
-0.0002658489,-8.709085e-05,1,1
-0.0004681064,-7.833932e-05,1,1
-0.0006191512,-7.671866e-05,1,1
-0.0007214144,-8.07703e-05,1,1
-0.0007940196,-8.352541e-05,1,1
-0.0008572251,-7.995997e-05,1,1
-0.0009238339,-6.699475e-05,1,1
-0.0009914152,-4.80331e-05,1,1
-0.001047976,-2.971972e-05,1,1
-0.001080551,-2.129233e-05,1,1
-0.001076986,-2.712668e-05,1,1
-0.001023018,-4.608832e-05,1,1
-0.0009084377,-7.315322e-05,1,1
-0.0007288694,-9.989401e-05,1,1
-0.0004948471,-0.0001206384,1,1
-0.0002261429,-0.0001313347,1,1
4.661304e-05,-0.0001313347,1,1
0.0002817699,-0.0001238797,1,1
0.0004470765,-0.0001110765,1,1
0.0005271368,-9.632857e-05,1,1
0.0005294057,-8.303922e-05,1,1
0.0004770586,-7.65566e-05,1,1
0.0004034809,-8.044617e-05,1,1
0.0003388169,-9.535618e-05,1,1
0.0002984626,-0.0001126972,1,1
0.0002876042,-0.0001217728,1,1
0.0003002453,-0.0001225832,1,1
0.0003219621,-0.0001211246,1,1
0.0003389789,-0.000119666,1,1
0.0003360618,-0.0001157764,1,1
0.0003067279,-0.0001094559,1,1
0.0002530843,-9.908367e-05,1,1
0.0001900409,-8.579432e-05,1,1
0.0001281319,-7.088431e-05,1,1
7.837785e-05,-5.889148e-05,1,1
4.466826e-05,-5.240886e-05,1,1
2.894792e-05,-5.257093e-05,1,1
3.154097e-05,-5.565017e-05,1,1
5.925414e-05,-5.435365e-05,1,1
0.0001231079,-4.754691e-05,1,1
0.0002237505,-3.620233e-05,1,1
0.0003420582,-1.805102e-05,1,1
0.0004483731,5.286387e-06,1,1
0.000522599,2.910999e-05,1,1
0.0005601982,5.115087e-05,1,1
0.0005663567,7.416415e-05,1,1
0.0005543638,0.0001007429,1,1
0.0005302161,0.0001323456,1,1
0.0004937514,0.0001676758,1,1
0.0004480489,0.0001992786,1,1
0.0003944053,0.0002198609,1,1
0.0003378445,0.0002290986,1,1
0.0002877662,0.000227478,1,1
0.0002504913,0.0002164575,1,1
0.0002286124,0.000200251,1,1
0.0002206712,0.0001798307,1,1
0.0002132162,0.0001623277,1,1
0.0001906891,0.0001535762,1,1
0.0001462832,0.0001526038,1,1
8.291568e-05,0.0001539003,1,1
1.889987e-05,0.0001548727,1,1
-2.728874e-05,0.0001582761,1,1
-4.997789e-05,0.0001660552,1,1
-5.59743e-05,0.0001785342,1,1
-5.516398e-05,0.0001911753,1,1
-5.483985e-05,0.0002018716,1,1
-5.937768e-05,0.0002091646,1,1
-7.574627e-05,0.0002111094,1,1
-0.0001105903,0.000202844,1,1
-0.0001624512,0.0001833962,1,1
-0.0002131776,0.0001527658,1,1
-0.0002397564,0.0001197045,1,1
-0.0002384598,9.020862e-05,1,1
-0.0002172293,6.606088e-05,1,1
-0.0001904885,4.35338e-05,1,1
-0.0001724993,2.230325e-05,1,1
-0.0001674752,3.179537e-06,1,1
-0.0001699062,-9.461558e-06,1,1
-0.0001724993,-1.20546e-05,1,1
-0.0001749302,-5.247859e-06,1,1
-0.0001724993,3.503668e-06,1,1
-0.0001676373,5.934648e-06,1,1
-0.0001608306,1.720949e-06,1,1
-0.0001525652,-6.544382e-06,1,1
-0.0001434896,-1.707863e-05,1,1
-0.0001379794,-2.988179e-05,1,1
-0.0001384655,-4.43056e-05,1,1
-0.0001423551,-6.083626e-05,1,1
-0.0001504584,-7.60704e-05,1,1
-0.0001653684,-8.952183e-05,1,1
-0.0001854645,-0.0001031353,1,1
-0.0002058847,-0.0001159385,1,1
-0.0002191741,-0.000127121,1,1
-0.0002250084,-0.0001391138,1,1
-0.0002271153,-0.0001538618,1,1
-0.0002272773,-0.0001666649,1,1
-0.0002246843,-0.0001757406,1,1
-0.0002224154,-0.0001763888,1,1
-0.0002280877,-0.000166989,1,1
-0.0002475355,-0.0001517549,1,1
-0.0002750866,-0.0001400862,1,1
-0.0002956689,-0.0001352242,1,1
-0.0002979378,-0.0001365208,1,1
-0.0002841623,-0.0001405724,1,1
-0.0002679557,-0.0001426792,1,1
-0.0002626076,-0.0001397621,1,1
-0.0002664971,-0.0001292278,1,1
-0.0002598524,-0.0001138316,1,1
-0.0002186879,-9.924574e-05,1,1
-0.0001306864,-8.644259e-05,1,1
-6.382317e-06,-7.639453e-05,1,1
0.0001244044,-7.088431e-05,1,1
0.0002333123,-6.877746e-05,1,1
0.0003096451,-6.796714e-05,1,1
0.0003503235,-6.780507e-05,1,1
0.0003522683,-6.456377e-05,1,1
0.0003106175,-5.613637e-05,1,1
0.0002321778,-4.365734e-05,1,1
0.000140773,-2.988179e-05,1,1
6.881599e-05,-1.659243e-05,1,1
3.948217e-05,-7.030578e-06,1,1
5.504044e-05,-1.034161e-06,1,1
9.944634e-05,4.313994e-06,1,1
0.0001558451,1.452411e-05,1,1
0.0002156472,3.13789e-05,1,1
0.0002736666,5.325772e-05,1,1
0.0003307136,7.594687e-05,1,1
0.0003856538,9.604298e-05,1,1
0.0004315182,0.0001094944,1,1
0.0004652279,0.0001185701,1,1
0.0004833792,0.0001232699,1,1
0.0004890515,0.0001257009,1,1
0.0004862963,0.0001257009,1,1
0.0004764104,0.0001235941,1,1
0.0004598797,0.0001206769,1,1
0.0004354078,0.000118408,1,1
0.000403643,0.000115977,1,1
0.0003670162,0.000111115,1,1
0.0003320101,0.0001022015,1,1
0.000299435,8.972242e-05,1,1
0.0002692908,7.254349e-05,1,1
0.0002441707,5.309566e-05,1,1
0.0002316917,3.60788e-05,1,1
0.0002321778,2.748934e-05,1,1
0.0002397949,3.218923e-05,1,1
0.0002483844,4.936815e-05,1,1
0.0002585945,7.400208e-05,1,1
0.0002663737,9.733949e-05,1,1
0.0002637806,0.0001103047,1,1
0.0002415777,0.0001098185,1,1
0.0002005751,0.0001056048,1,1
0.0001485521,0.0001081979,1,1
9.21534e-05,0.0001218114,1,1
3.834771e-05,0.0001415833,1,1
-1.189254e-05,0.0001587623,1,1
-5.775702e-05,0.0001621656,1,1
-9.389759e-05,0.0001516314,1,1
-0.0001092938,0.0001334801,1,1
-0.0001005423,0.0001140322,1,1
-7.444975e-05,9.555677e-05,1,1
-4.284701e-05,7.935024e-05,1,1
-2.372331e-05,6.330578e-05,1,1
-3.360929e-05,4.531652e-05,1,1
-7.526008e-05,2.197911e-05,1,1
-0.0001407345,-7.516774e-06,1,1
-0.0002167431,-4.284701e-05,1,1
-0.0002877277,-7.914964e-05,1,1
-0.0003420196,-0.0001083214,1,1
-0.0003783222,-0.0001250141,1,1
-0.0004003631,-0.0001331174,1,1
-0.0004155972,-0.0001332795,1,1
-0.0004279142,-0.0001214487,1,1
-0.0004361795,-9.762509e-05,1,1
-0.0004366657,-6.926366e-05,1,1
-0.0004266177,-4.706071e-05,1,1
-0.0004089525,-3.701266e-05,1,1
-0.0003929081,-3.409549e-05,1,1
-0.0003906392,-2.955766e-05,1,1
-0.000405063,-1.659243e-05,1,1
-0.0004303451,3.989864e-06,1,1
-0.000459679,2.684107e-05,1,1
-0.0004812336,4.564065e-05,1,1
-0.000484637,5.61749e-05,1,1
-0.0004603272,5.666109e-05,1,1
-0.0004083043,4.904402e-05,1,1
-0.0003339163,3.624086e-05,1,1
-0.0002399184,1.97102e-05,1,1
-0.0001255003,-3.303076e-06,1,1
4.638125e-06,-3.522994e-05,1,1
0.0001362352,-7.315322e-05,1,1
0.0002482223,-0.0001089697,1,1
0.0003171001,-0.0001327933,1,1
0.0003303894,-0.0001396,1,1
0.0002913317,-0.0001295519,1,1
0.0002158093,-0.0001078352,1,1
0.0001297526,-8.547019e-05,1,1
5.633696e-05,-6.877746e-05,1,1
1.403791e-05,-5.872941e-05,1,1
9.500085e-06,-5.030202e-05,1,1
3.640293e-05,-4.284701e-05,1,1
7.886404e-05,-3.847125e-05,1,1
0.0001260251,-3.198864e-05,1,1
0.0001736723,-1.918548e-05,1,1
0.0002156472,3.017472e-06,1,1
0.0002359054,3.332369e-05,1,1
0.0002247229,6.573675e-05,1,1
0.000187772,9.63671e-05,1,1
0.0001430419,0.0001265113,1,1
0.0001090082,0.0001526038,1,1
0.0001017153,0.0001722137,1,1
0.0001295905,0.000185341,1,1
0.0001911753,0.0001919856,1,1
0.0002782044,0.0001949028,1,1
0.0003747954,0.0001958752,1,1
0.0004571246,0.0001947408,1,1
0.0005007202,0.0001924718,1,1
0.0004981271,0.0001887444,1,1
0.0004593935,0.0001843686,1,1
0.0004005638,0.0001770756,1,1
0.0003371962,0.0001660552,1,1
0.0002752873,0.0001534141,1,1
0.0002112714,0.0001415833,1,1
0.0001436902,0.0001331559,1,1
8.016057e-05,0.0001302388,1,1
2.81376e-05,0.0001299146,1,1
-4.761664e-06,0.0001292664,1,1
-9.947754e-06,0.0001268354,1,1
1.954813e-05,0.0001242423,1,1
8.453633e-05,0.0001229458,1,1
0.000178048,0.000125863,1,1
0.0002854973,0.0001323456,1,1
0.0003858158,0.0001391524,1,1
0.0004525868,0.0001446626,1,1
0.0004608521,0.0001448246,1,1
0.000393757,0.000135911,1,1
0.0002654013,0.0001214872,1,1
0.0001064152,0.000101067,1,1
-5.2733e-05,7.57848e-05,1,1
-0.0001938919,4.855783e-05,1,1
-0.0003091203,2.489629e-05,1,1
-0.0003914495,1.031041e-05,1,1
-0.0004403932,6.420843e-06,1,1
-0.0004588687,8.689758e-06,1,1
-0.0004595169,1.014835e-05,1,1
-0.0004538446,6.744974e-06,1,1
-0.000449793,-3.14101e-06,1,1
-0.0004509274,-1.918548e-05,1,1
-0.000459679,-3.976777e-05,1,1
-0.0004750752,-6.359137e-05,1,1
-0.0004907955,-8.563225e-05,1,1
-0.0005014918,-0.0001037836,1,1
-0.0005104054,-0.000117235,1,1
-0.0005236948,-0.0001285796,1,1
-0.0005428185,-0.0001363587,1,1
-0.0005698834,-0.0001400862,1,1
-0.000603755,-0.0001407345,1,1
-0.0006381128,-0.0001457585,1,1
-0.000665826,-0.0001554824,1,1
-0.0006844635,-0.0001677994,1,1
-0.0006933771,-0.0001825473,1,1
-0.0006924047,-0.0001976194,1,1
-0.000680736,-0.0002092881,1,1
-0.0006585331,-0.000216419,1,1
-0.0006280648,-0.0002167431,1,1
-0.0005877105,-0.0002178775,1,1
-0.0005293671,-0.0002241981,1,1
-0.0004462276,-0.0002368392,1,1
-0.0003468815,-0.0002558008,1,1
-0.0002483458,-0.0002768693,1,1
-0.0001637477,-0.0002901587,1,1
-9.956988e-05,-0.0002906449,1,1
-5.532604e-05,-0.00027849,1,1
-2.339918e-05,-0.0002595283,1,1
7.23117e-06,-0.0002378116,1,1
4.839576e-05,-0.000213988,1,1
0.0001088461,-0.0001925954,1,1
0.0001955511,-0.0001731475,1,1
0.0003085106,-0.000156941,1,1
0.0004405939,-0.0001376552,1,1
0.0005764047,-0.0001118868,1,1
0.0007011951,-7.947377e-05,1,1
0.0008078342,-4.462973e-05,1,1
0.0008924323,-1.059602e-05,1,1
0.0009498035,1.9224e-05,1,1
0.0009728169,4.288554e-05,1,1
0.0009720065,5.974033e-05,1,1
0.0009655239,7.384002e-05,1,1
0.0009627688,8.79397e-05,1,1
0.0009530449,0.0001057669,1,1
0.0009092872,0.0001266733,1,1
0.000809941,0.0001535762,1,1
0.0006592202,0.0001838824,1,1
0.0004843516,0.0002132162,1,1
0.0003161277,0.0002334744,1,1
0.0001678379,0.00024255,1,1
2.441009e-05,0.0002430362,1,1
-0.0001383035,0.0002419018,1,1
-0.0003262992,0.0002433604,1,1
-0.0005209396,0.0002478982,1,1
-0.0006922426,0.0002521119,1,1
-0.000819626,0.0002532463,1,1
-0.0008873693,0.0002487085,1,1
-0.0008795901,0.0002393087,1,1
-0.0007753822,0.000227478,1,1
-0.0005661559,0.0002159713,1,1
-0.0002729798,0.0002090025,1,1
5.909208e-05,0.0002070577,1,1
0.0003780367,0.0002044647,1,1
0.0006460929,0.0001979821,1,1
0.0008470541,0.0001884202,1,1
0.0009870786,0.0001803169,1,1
0.001087073,0.0001748067,1,1
0.001170051,0.0001689724,1,1
0.001244763,0.000160707,1,1
0.001314613,0.0001498487,1,1
0.001369391,0.0001363972,1,1
0.001393539,0.0001214872,1,1
0.001376846,0.0001075496,1,1
0.001320934,9.458438e-05,1,1
0.001239901,7.821578e-05,1,1
0.001149955,5.487838e-05,1,1
0.001063898,2.781346e-05,1,1
0.0009839993,4.313994e-06,1,1
0.000903939,-1.156841e-05,1,1
0.0008135065,-2.031993e-05,1,1
0.0007026537,-2.372331e-05,1,1
0.0005655463,-2.339918e-05,1,1
0.0004046154,-2.307504e-05,1,1
0.0002242366,-3.134038e-05,1,1
3.154097e-05,-4.738484e-05,1,1
-0.0001630995,-6.602235e-05,1,1
-0.000348016,-7.833932e-05,1,1
-0.0005162397,-8.255302e-05,1,1
-0.0006601537,-7.704279e-05,1,1
-0.0007781372,-6.780507e-05,1,1
-0.0008705144,-6.116039e-05,1,1
-0.0009418232,-6.099833e-05,1,1
-0.0009953048,-6.44017e-05,1,1
-0.001031445,-7.299116e-05,1,1
-0.001047652,-8.433573e-05,1,1
-0.001036631,-9.503204e-05,1,1
-0.0009970875,-0.000102325,1,1
-0.000941337,-0.0001062146,1,1
-0.0008852624,-0.0001107524,1,1
-0.000844422,-0.0001183694,1,1
-0.0008233535,-0.0001274451,1,1
-0.0008124951,-0.0001368449,1,1
-0.0007979092,-0.0001457585,1,1
-0.0007744097,-0.0001533756,1,1
-0.0007398899,-0.0001580754,1,1
-0.0006992114,-0.0001580754,1,1
-0.0006622606,-0.0001535376,1,1
-0.0006351956,-0.0001472171,1,1
-0.0006150996,-0.0001376552,1,1
-0.0005950035,-0.00012469,1,1
-0.0005645352,-0.0001133454,1,1
-0.0005152673,-0.000102325,1,1
-0.0004475241,-8.935975e-05,1,1
-0.0003763774,-7.218083e-05,1,1
-0.0003201407,-5.354332e-05,1,1
-0.0002872415,-3.620233e-05,1,1
-0.0002718453,-2.064406e-05,1,1
-0.0002605007,-6.220252e-06,1,1
-0.0002441321,6.744974e-06,1,1
-0.0002217671,1.727922e-05,1,1
-0.0001968091,2.489629e-05,1,1
-0.0001733096,3.348575e-05,1,1
-0.0001515928,4.77475e-05,1,1
-0.0001295519,6.83298e-05,1,1
-0.0001062146,9.037068e-05,1,1
-8.692878e-05,0.0001094944,1,1
-7.509801e-05,0.0001227837,1,1
-7.104638e-05,0.0001321835,1,1
-7.153257e-05,0.0001396385,1,1
-7.428769e-05,0.0001454729,1,1
-7.720486e-05,0.0001485521,1,1
-8.174268e-05,0.0001516314,1,1
-8.692878e-05,0.0001582761,1,1
-9.260107e-05,0.000168162,1,1
-9.616651e-05,0.0001790204,1,1
-9.276313e-05,0.0001856651,1,1
-8.303922e-05,0.0001884202,1,1
-7.169464e-05,0.0001898788,1,1
-6.407757e-05,0.0001902029,1,1
-5.872941e-05,0.0001863134,1,1
-4.090223e-05,0.0001809652,1,1
1.883015e-06,0.0001757791,1,1
7.286763e-05,0.0001722137,1,1
0.0001602208,0.0001694586,1,1
0.0002402811,0.0001660552,1,1
0.0002851732,0.0001610312,1,1
0.000284687,0.000155683,1,1
0.0002480603,0.0001503349,1,1
0.0001944166,0.0001409351,1,1
0.0001399627,0.0001257009,1,1
9.750156e-05,0.0001119254,1,1
7.708133e-05,0.0001075496,1,1
7.853991e-05,0.000113384,1,1
9.717743e-05,0.0001218114,1,1
0.0001341283,0.0001274836,1,1
0.0001882582,0.0001276457,1,1
0.0002517878,0.0001214872,1,1
0.0003124002,0.0001073875,1,1
0.000351458,8.567078e-05,1,1
0.0003603715,6.055066e-05,1,1
0.0003376824,3.98063e-05,1,1
0.0002853353,2.554455e-05,1,1
0.0002065715,1.9224e-05,1,1
0.0001138702,2.01964e-05,1,1
2.424803e-05,2.39239e-05,1,1
-5.143648e-05,2.181705e-05,1,1
-0.0001079973,4.80019e-06,1,1
-0.0001468929,-2.955766e-05,1,1
-0.0001653684,-7.282909e-05,1,1
-0.0001558065,-0.0001156143,1,1
-0.0001115627,-0.0001493239,1,1
-2.809907e-05,-0.0001703924,1,1
8.486046e-05,-0.0001828714,1,1
0.0002030061,-0.0001898403,1,1
0.0002991108,-0.0001950263,1,1
0.0003498373,-0.000201671,1,1
0.00033671,-0.0002099363,1,1
0.0002602152,-0.000213988,1,1
0.0001412592,-0.000206533,1,1
1.711715e-05,-0.0001882196,1,1
-7.250496e-05,-0.0001661787,1,1
-0.0001071869,-0.0001493239,1,1
-9.730096e-05,-0.0001407345,1,1
-5.986387e-05,-0.0001396,1,1
5.86492e-07,-0.0001412206,1,1
7.837785e-05,-0.000142031,1,1
0.0001624898,-0.0001412206,1,1
0.0002443328,-0.0001344139,1,1
0.0003138588,-0.0001178833,1,1
0.0003597233,-9.373552e-05,1,1
0.0003794953,-6.893953e-05,1,1
0.0003734989,-5.111234e-05,1,1
0.0003488649,-4.138842e-05,1,1
0.0003255275,-3.68506e-05,1,1
0.0003276344,-3.441962e-05,1,1
0.0003632887,-3.21507e-05,1,1
0.0004230909,-3.036798e-05,1,1
0.0004926169,-2.923353e-05,1,1
0.000562143,-2.372331e-05,1,1
0.0006298863,-1.010982e-05,1,1
0.0006987641,1.517237e-05,1,1
0.0007716935,5.293359e-05,1,1
0.0008428403,0.0001015532,1,1
0.0008984288,0.0001539003,1,1
0.0009217662,0.0001966855,1,1
0.0009003736,0.0002214815,1,1
0.000827282,0.000230071,1,1
0.0007146465,0.0002310434,1,1
0.0005783495,0.0002271538,1,1
0.0004316803,0.0002208333,1,1
0.0002837146,0.0002106232,1,1
0.000145797,0.0001950649,1,1
3.753739e-05,0.0001785342,1,1
-2.599222e-05,0.0001662173,1,1
-4.560212e-05,0.0001594105,1,1
-4.187462e-05,0.0001563313,1,1
-4.932962e-05,0.00015309,1,1
-8.514606e-05,0.0001436902,1,1
-0.0001399241,0.0001295905,1,1
-0.0001874093,0.0001122495,1,1
-0.0002044261,9.16672e-05,1,1
-0.0001900023,6.849186e-05,1,1
-0.0001635857,5.050261e-05,1,1
-0.0001468929,4.110282e-05,1,1
-0.0001525652,4.013043e-05,1,1
-0.0001810887,4.223728e-05,1,1
-0.0002303566,4.094075e-05,1,1
-0.0002890242,3.462021e-05,1,1
-0.0003337542,2.81376e-05,1,1
-0.0003319715,2.084466e-05,1,1
-0.000261149,1.209313e-05,1,1
-0.0001255003,4.47606e-06,1,1
3.18651e-05,2.855407e-06,1,1
0.0001561692,7.069105e-06,1,1
0.0002106232,1.338965e-05,1,1
0.0001937684,1.841368e-05,1,1
0.0001271595,1.727922e-05,1,1
3.154097e-05,7.717366e-06,1,1
-7.979791e-05,-8.002969e-06,1,1
-0.0001922712,-2.485776e-05,1,1
-0.0002919414,-3.555408e-05,1,1
-0.0003685983,-3.830919e-05,1,1
-0.0004220798,-3.409549e-05,1,1
-0.0004632444,-2.501983e-05,1,1
-0.0005039228,-1.578211e-05,1,1
-0.0005556216,-1.610624e-05,1,1
-0.0006222305,-3.101625e-05,1,1
-0.000695646,-6.197072e-05,1,1
-0.0007518827,-0.0001013526,1,1
-0.0007791097,-0.0001374932,1,1
-0.0007794338,-0.0001650443,1,1
-0.0007687375,-0.0001825473,1,1
-0.0007624169,-0.0001925954,1,1
-0.000767603,-0.0001977815,1,1
-0.0007791097,-0.0001971332,1,1
-0.0007795958,-0.0001896782,1,1
-0.0007500999,-0.0001780095,1,1
-0.0006761982,-0.0001661787,1,1
-0.0005575664,-0.0001566169,1,1
-0.0004084663,-0.0001478653,1,1
-0.0002520733,-0.0001412206,1,1
-0.0001114006,-0.0001387897,1,1
4.244267e-07,-0.0001389517,1,1
8.502253e-05,-0.0001404103,1,1
0.0001576278,-0.000137169,1,1
0.0002312055,-0.0001237176,1,1
0.0003089969,-9.973194e-05,1,1
