EMG1,EMG2,class,user
0.0002644289,0.0001469315,1,1
0.0002986247,0.0001417454,1,1
0.000309483,0.0001312112,1,1
0.0003130485,0.0001226217,1,1
0.0003234207,0.000120839,1,1
0.0003483787,0.0001263492,1,1
0.0003879227,0.0001355869,1,1
0.0004491834,0.0001425557,1,1
0.0005435055,0.0001462832,1,1
0.0006593822,0.0001436902,1,1
0.0007584042,0.0001372076,1,1
0.0008008654,0.0001286181,1,1
0.0007656972,0.0001219734,1,1
0.0006605167,0.0001242423,1,1
0.0005104441,0.000135749,1,1
0.0003478926,0.0001519555,1,1
0.0002000889,0.0001634622,1,1
7.756752e-05,0.0001660552,1,1
-2.161646e-05,0.0001598967,1,1
-0.0001029732,0.0001490383,1,1
-0.0001677994,0.0001394765,1,1
-0.0002162569,0.000133318,1,1
-0.0002442942,0.0001257009,1,1
-0.0002460769,0.0001116012,1,1
-0.0002206326,9.247754e-05,1,1
-0.0001713648,7.52986e-05,1,1
-9.908367e-05,6.346784e-05,1,1
-6.220252e-06,5.94162e-05,1,1
9.863601e-05,6.265751e-05,1,1
0.0002000889,6.881599e-05,1,1
0.0002801492,7.384002e-05,1,1
0.0003337929,7.059871e-05,1,1
0.0003705817,5.925414e-05,1,1
0.0004004017,4.402e-05,1,1
0.0004200116,3.040651e-05,1,1
0.0004198496,1.889987e-05,1,1
0.0003997535,7.069105e-06,1,1
0.0003718782,-6.868513e-06,1,1
0.0003423823,-2.194059e-05,1,1
0.0003075383,-3.571614e-05,1,1
0.0002542187,-4.868137e-05,1,1
0.0001626518,-6.44017e-05,1,1
1.873781e-05,-8.595638e-05,1,1
-0.0001749302,-0.0001120489,1,1
-0.0003963114,-0.000137007,1,1
-0.0006084549,-0.0001554824,1,1
-0.0007682513,-0.0001627754,1,1
-0.0008340498,-0.0001601823,1,1
-0.0007842957,-0.0001530514,1,1
-0.0006321164,-0.0001460826,1,1
-0.0004279142,-0.0001386276,1,1
-0.0002378116,-0.0001282554,1,1
-0.00010978,-0.0001151281,1,1
-6.035007e-05,-0.0001063766,1,1
-7.590833e-05,-0.0001086455,1,1
-0.0001293899,-0.0001219349,1,1
-0.0001909747,-0.0001433275,1,1
-0.0002431597,-0.0001663408,1,1
-0.0002831898,-0.0001851404,1,1
-0.0003112272,-0.0001956746,1,1
-0.0003222476,-0.0002000504,1,1
-0.0003128478,-0.0001979435,1,1
-0.0002838381,-0.0001912988,1,1
-0.0002426735,-0.0001818991,1,1
-0.0002044261,-0.0001715269,1,1
-0.0001814128,-0.0001609926,1,1
-0.0001794681,-0.0001512687,1,1
-0.0001981056,-0.0001431655,1,1
-0.000233922,-0.0001376552,1,1
-0.0002820554,-0.0001357104,1,1
-0.0003366714,-0.0001339277,1,1
-0.0003940425,-0.0001285796,1,1
-0.0004518998,-0.0001169109,1,1
-0.0005079744,-9.875954e-05,1,1
-0.0005546492,-7.979791e-05,1,1
-0.0005809038,-6.553616e-05,1,1
-0.0005783107,-5.435365e-05,1,1
-0.0005444391,-4.171256e-05,1,1
-0.0004813957,-2.615429e-05,1,1
-0.0003966356,-1.237873e-05,1,1
-0.0003013411,-3.627206e-06,1,1
-0.0002081536,3.827799e-06,1,1
-0.0001250141,1.906194e-05,1,1
-5.840528e-05,4.434413e-05,1,1
-7.516774e-06,7.319176e-05,1,1
3.008238e-05,9.604298e-05,1,1
5.666109e-05,0.0001086841,1,1
7.30297e-05,0.000111115,1,1
7.6271e-05,0.0001163011,1,1
6.444023e-05,0.0001305629,1,1
3.737532e-05,0.0001522796,1,1
-2.492749e-06,0.0001773998,1,1
-4.916756e-05,0.0001996027,1,1
-9.794922e-05,0.0002128921,1,1
-0.0001430034,0.0002171058,1,1
-0.0001770371,0.0002153231,1,1
-0.0001861127,0.0002120818,1,1
-0.0001582375,0.0002085163,1,1
-8.82253e-05,0.0002034923,1,1
1.452411e-05,0.000195227,1,1
0.0001252147,0.0001872858,1,1
0.0002214815,0.0001832341,1,1
0.0002979764,0.0001856651,1,1
0.000356482,0.0001918236,1,1
0.0004041292,0.0001949028,1,1
0.0004391353,0.0001902029,1,1
0.0004491834,0.0001769136,1,1
0.0004217943,0.0001576278,1,1
0.0003537269,0.0001378558,1,1
0.0002592428,0.0001247285,1,1
0.0001634622,0.0001169494,1,1
8.923623e-05,0.0001117633,1,1
4.483033e-05,0.0001062531,1,1
2.100672e-05,9.912221e-05,1,1
4.80019e-06,8.761557e-05,1,1
-1.643037e-05,7.20573e-05,1,1
-5.176061e-05,5.034055e-05,1,1
-9.179074e-05,2.603075e-05,1,1
-0.0001214487,4.962256e-06,1,1
-0.0001331174,-7.516774e-06,1,1
-0.0001250141,-1.286493e-05,1,1
-0.0001031353,-1.578211e-05,1,1
-8.044617e-05,-2.145439e-05,1,1
-7.120844e-05,-3.247483e-05,1,1
-7.898758e-05,-4.544006e-05,1,1
-0.0001002181,-5.451572e-05,1,1
-0.0001276072,-6.099833e-05,1,1
-0.0001571031,-6.893953e-05,1,1
-0.0001833576,-7.931171e-05,1,1
-0.0001934057,-9.081835e-05,1,1
-0.0001838438,-0.0001020008,1,1
-0.0001650443,-0.0001105903,1,1
-0.0001464067,-0.0001151281,1,1
-0.0001302002,-0.0001143178,1,1
-0.0001183694,-0.000104918,1,1
-0.0001068628,-8.903562e-05,1,1
-9.017008e-05,-7.056019e-05,1,1
-6.099833e-05,-6.051213e-05,1,1
-1.043395e-05,-6.521203e-05,1,1
6.525056e-05,-7.866345e-05,1,1
0.0001610312,-8.725291e-05,1,1
0.0002629703,-8.595638e-05,1,1
0.0003603715,-7.542214e-05,1,1
0.0004389733,-5.856735e-05,1,1
0.0004859722,-4.05781e-05,1,1
0.0004945617,-2.534396e-05,1,1
0.0004684692,-1.20546e-05,1,1
0.0004219564,-2.978945e-06,1,1
0.0003777126,3.989864e-06,1,1
0.0003546993,9.013889e-06,1,1
0.0003524304,1.193106e-05,1,1
0.0003608578,1.014835e-05,1,1
0.0003696093,2.693341e-06,1,1
0.0003696093,-7.678839e-06,1,1
0.0003546993,-1.318906e-05,1,1
0.0003311998,-1.059602e-05,1,1
0.0003081865,-1.682422e-06,1,1
0.000289387,8.689758e-06,1,1
0.0002765838,1.954813e-05,1,1
0.0002678322,2.975825e-05,1,1
0.0002566497,4.126489e-05,1,1
0.0002381743,5.779555e-05,1,1
0.0002140265,7.837785e-05,1,1
0.0001871237,9.588091e-05,1,1
0.0001650828,0.0001072255,1,1
0.0001540623,0.0001093323,1,1
0.0001568175,0.0001046324,1,1
0.000168162,9.798775e-05,1,1
0.0001790204,9.490851e-05,1,1
0.0001861513,9.490851e-05,1,1
0.000187934,9.474644e-05,1,1
0.0001871237,9.669123e-05,1,1
0.0001830721,0.0001070634,1,1
0.0001746447,0.0001313732,1,1
0.0001628139,0.0001684862,1,1
0.0001524417,0.0002083542,1,1
0.0001446626,0.0002394708,1,1
0.0001433661,0.0002542187,1,1
0.0001479039,0.0002534084,1,1
0.0001483901,0.0002401191,1,1
0.0001355869,0.0002196988,1,1
0.0001067393,0.0001916615,1,1
6.751948e-05,0.0001589243,1,1
2.781346e-05,0.0001313732,1,1
-8.720959e-07,0.0001150046,1,1
-1.189254e-05,0.0001116012,1,1
-9.947754e-06,0.0001146805,1,1
-7.354709e-06,0.0001167873,1,1
-1.967167e-05,0.0001101427,1,1
-5.127441e-05,9.004655e-05,1,1
-9.357346e-05,6.330578e-05,1,1
-0.000132145,3.494434e-05,1,1
-0.0001579134,1.063454e-05,1,1
-0.000169258,-8.489166e-06,1,1
-0.0001642339,-2.388537e-05,1,1
-0.0001496481,-3.717473e-05,1,1
-0.0001350622,-4.317115e-05,1,1
-0.0001274451,-3.21507e-05,1,1
-0.0001266348,-4.923729e-06,1,1
-0.0001355484,2.327564e-05,1,1
-0.0001536997,3.575467e-05,1,1
-0.0001733096,2.700314e-05,1,1
-0.0001874093,-5.479652e-07,1,1
-0.0001935677,-3.830919e-05,1,1
-0.0001893541,-7.720486e-05,1,1
-0.0001746061,-0.0001070249,1,1
-0.0001567789,-0.0001251762,1,1
-0.0001438137,-0.0001363587,1,1
-0.0001384655,-0.0001454344,1,1
-0.0001386276,-0.0001543479,1,1
-0.0001405724,-0.0001634236,1,1
-0.0001451102,-0.0001731475,1,1
-0.0001511067,-0.0001838438,1,1
-0.0001527273,-0.0001935677,1,1
-0.0001460826,-0.0002002124,1,1
-0.0001337657,-0.0002011848,1,1
-0.0001167488,-0.0001932436,1,1
-8.871149e-05,-0.0001780095,1,1
-4.219875e-05,-0.0001585616,1,1
1.64689e-05,-0.0001389517,1,1
6.735741e-05,-0.0001242038,1,1
9.977047e-05,-0.0001151281,1,1
0.0001127357,-0.0001088076,1,1
0.0001099806,-0.0001003802,1,1
9.004655e-05,-8.82253e-05,1,1
5.552663e-05,-7.33153e-05,1,1
1.97102e-05,-5.970181e-05,1,1
-7.678839e-06,-5.078821e-05,1,1
-2.080613e-05,-4.997789e-05,1,1
-1.578211e-05,-5.516398e-05,1,1
6.582909e-06,-6.310517e-05,1,1
3.899597e-05,-7.250496e-05,1,1
6.865393e-05,-7.931171e-05,1,1
7.886404e-05,-8.109443e-05,1,1
5.487838e-05,-7.866345e-05,1,1
-2.492749e-06,-7.347736e-05,1,1
-7.720486e-05,-6.342931e-05,1,1
-0.000144462,-4.770897e-05,1,1
-0.0001823853,-2.712668e-05,1,1
-0.0001812508,-3.789272e-06,1,1
-0.0001481895,1.808955e-05,1,1
-0.0001008664,3.705119e-05,1,1
-5.500191e-05,5.698522e-05,1,1
-1.805102e-05,7.659513e-05,1,1
1.241726e-05,9.199134e-05,1,1
3.575467e-05,0.0001004187,1,1
4.888196e-05,0.0001022015,1,1
5.082674e-05,0.0001017153,1,1
5.115087e-05,0.0001044704,1,1
6.055066e-05,0.0001164632,1,1
8.664318e-05,0.0001341283,1,1
0.000125863,0.0001496866,1,1
0.0001662173,0.0001608691,1,1
0.0001971717,0.0001701068,1,1
0.0002190506,0.0001796687,1,1
0.0002386605,0.0001869616,1,1
0.0002569738,0.0001898788,1,1
0.0002739907,0.0001893926,1,1
0.0002916559,0.0001876099,1,1
0.0003211517,0.000187772,1,1
0.0003770643,0.0001910133,1,1
0.0004704139,0.0001957132,1,1
0.000601849,0.0001996027,1,1
0.0007626179,0.0002020337,1,1
0.0009216042,0.0002043026,1,1
0.001036022,0.0002049509,1,1
0.001068273,0.0002021958,1,1
0.001003447,0.0001921477,1,1
0.0008536987,0.0001751309,1,1
0.0006454446,0.0001539003,1,1
0.0004081808,0.0001289422,1,1
0.0001707551,0.0001026876,1,1
-4.462973e-05,8.032264e-05,1,1
-0.0002261429,6.525056e-05,1,1
-0.0003651949,5.439218e-05,1,1
-0.0004612996,4.35338e-05,1,1
-0.0005191569,2.781346e-05,1,1
-0.0005484907,9.66215e-06,1,1
-0.0005599973,-9.137427e-06,1,1
-0.0005726385,-2.615429e-05,1,1
-0.0005980827,-3.976777e-05,1,1
-0.000643299,-5.2733e-05,1,1
-0.0007076389,-6.667062e-05,1,1
-0.0007834854,-7.995997e-05,1,1
-0.0008627353,-9.081835e-05,1,1
-0.0009385819,-9.940781e-05,1,1
-0.001000005,-0.0001079973,1,1
-0.001037442,-0.0001169109,1,1
-0.001046841,-0.0001263107,1,1
-0.001025611,-0.0001337657,1,1
-0.0009740742,-0.000137169,1,1
-0.0008923933,-0.0001358725,1,1
-0.0007766787,-0.0001303623,1,1
-0.0006291993,-0.0001229073,1,1
-0.0004642168,-0.0001159385,1,1
-0.0003112272,-0.0001084835,1,1
-0.0002008607,-0.0001036215,1,1
-0.000144462,-9.924574e-05,1,1
-0.0001373311,-9.649064e-05,1,1
-0.0001609926,-9.811128e-05,1,1
-0.0001900023,-0.0001031353,1,1
-0.000201509,-0.0001078352,1,1
-0.0001797922,-0.0001094559,1,1
-0.0001253383,-0.0001070249,1,1
-4.85193e-05,-0.0001021629,1,1
4.434413e-05,-9.422172e-05,1,1
0.000153252,-8.854943e-05,1,1
0.0002701012,-8.82253e-05,1,1
0.0003793332,-9.535618e-05,1,1
0.0004636072,-0.0001067007,1,1
0.0005089855,-0.0001156143,1,1
0.0005138475,-0.0001193418,1,1
0.0004859722,-0.0001186936,1,1
0.0004368664,-0.0001141558,1,1
0.0003875985,-0.0001052422,1,1
0.0003527545,-8.903562e-05,1,1
0.0003328204,-6.586029e-05,1,1
0.0003201794,-3.863332e-05,1,1
0.0003080245,-1.367526e-05,1,1
0.0002908455,5.448452e-06,1,1
0.0002621599,1.760335e-05,1,1
0.0002159713,2.651694e-05,1,1
0.0001527658,3.575467e-05,1,1
7.57848e-05,5.212327e-05,1,1
-5.085794e-06,7.562274e-05,1,1
-7.752899e-05,0.000103498,1,1
-0.0001349001,0.0001297526,1,1
-0.0001734716,0.0001508211,1,1
-0.0001932436,0.0001649207,1,1
-0.0001969711,0.0001722137,1,1
-0.0001930815,0.0001739964,1,1
-0.0001840059,0.0001723757,1,1
-0.0001674752,0.000170431,1,1
-0.0001412206,0.0001751309,1,1
-0.0001162626,0.000187934,1,1
-0.0001062146,0.000200413,1,1
-0.0001146419,0.0002054371,1,1
-0.0001306864,0.0002018716,1,1
-0.0001319829,0.0001947408,1,1
-9.924574e-05,0.0001874478,1,1
-2.307504e-05,0.0001825859,1,1
8.453633e-05,0.0001801549,1,1
0.000195227,0.0001756171,1,1
0.0002720459,0.0001647587,1,1
0.0002984626,0.0001513072,1,1
0.0002803113,0.0001396385,1,1
0.0002446569,0.0001316974,1,1
0.0002149989,0.0001269974,1,1
0.0002039785,0.0001266733,1,1
0.0002081922,0.0001276457,1,1
0.0002156472,0.0001222976,1,1
0.0002137024,0.0001075496,1,1
0.0001987924,8.648112e-05,1,1
0.0001796687,6.395404e-05,1,1
0.000170431,4.223728e-05,1,1
0.0001782101,1.744129e-05,1,1
0.0002033302,-1.075808e-05,1,1
0.000239957,-3.701266e-05,1,1
0.0002744769,-5.030202e-05,1,1
0.0002939248,-4.252288e-05,1,1
0.000289549,-1.464765e-05,1,1
0.0002642668,2.295151e-05,1,1
0.0002318537,5.52025e-05,1,1
0.0002033302,7.043665e-05,1,1
0.0001814514,6.249545e-05,1,1
0.0001660552,3.769945e-05,1,1
0.0001662173,7.717366e-06,1,1
0.0001863134,-2.0482e-05,1,1
0.0002205092,-4.414354e-05,1,1
0.0002487085,-6.132246e-05,1,1
0.0002490327,-7.250496e-05,1,1
0.0002093267,-8.579432e-05,1,1
0.0001368834,-0.0001036215,1,1
5.050261e-05,-0.0001217728,1,1
-2.988179e-05,-0.0001349001,1,1
-9.308726e-05,-0.0001418689,1,1
-0.0001426792,-0.000142031,1,1
-0.0001885437,-0.000134576,1,1
-0.0002378116,-0.0001193418,1,1
-0.0002888622,-0.0001024871,1,1
-0.0003334301,-9.19528e-05,1,1
-0.0003663294,-9.438378e-05,1,1
-0.0003854531,-0.0001088076,1,1
-0.0003909633,-0.0001280934,1,1
-0.0003883702,-0.0001447861,1,1
-0.0003844807,-0.0001533756,1,1
-0.0003792946,-0.0001525652,1,1
-0.000365357,-0.0001436516,1,1
-0.0003399127,-0.0001319829,1,1
-0.0003096065,-0.000122259,1,1
-0.0002882139,-0.000117235,1,1
-0.0002807589,-0.0001157764,1,1
-0.0002831898,-0.0001105903,1,1
-0.0002812451,-9.438378e-05,1,1
-0.0002570974,-6.91016e-05,1,1
-0.0002086398,-4.592625e-05,1,1
-0.0001511067,-3.231277e-05,1,1
-0.0001034594,-2.550602e-05,1,1
-7.33153e-05,-1.853722e-05,1,1
-5.402952e-05,-6.706447e-06,1,1
-2.696461e-05,8.527692e-06,1,1
3.478228e-05,2.554455e-05,1,1
0.0001441764,3.786152e-05,1,1
0.0002910076,4.207521e-05,1,1
0.0004525868,3.769945e-05,1,1
0.0005937457,2.81376e-05,1,1
0.0006845024,2.052053e-05,1,1
0.0007123777,1.9224e-05,1,1
0.0006856368,2.538249e-05,1,1
0.0006261588,4.094075e-05,1,1
0.000562143,6.541262e-05,1,1
0.0005224369,9.847395e-05,1,1
0.0005260024,0.000140773,1,1
0.0005668429,0.0001923098,1,1
0.0006212969,0.0002516257,1,1
0.0006674855,0.0003104554,1,1
0.000695847,0.0003574544,1,1
0.0007003848,0.0003804677,1,1
0.0006846645,0.0003767402,1,1
0.0006543582,0.0003555096,1,1
0.0006211348,0.0003299033,1,1
0.0005911527,0.0003109416,1,1
0.0005554983,0.0002989488,1,1
0.0004913204,0.0002869559,1,1
0.0003833848,0.0002676702,1,1
0.0002323399,0.0002397949,1,1
5.828175e-05,0.0002068957,1,1
-0.0001164247,0.0001714034,1,1
-0.0002718453,0.0001376938,1,1
-0.0003959873,0.0001073875,1,1
-0.0004857715,8.113296e-05,1,1
-0.0005420081,5.666109e-05,1,1
-0.0005726385,3.105477e-05,1,1
-0.0005849554,7.393236e-06,1,1
-0.0005844692,-7.192643e-06,1,1
-0.000574097,-1.480971e-05,1,1
-0.0005575664,-2.275091e-05,1,1
-0.0005350393,-3.587821e-05,1,1
-0.0005063537,-5.435365e-05,1,1
-0.0004737787,-7.428769e-05,1,1
-0.0004420138,-9.211487e-05,1,1
-0.0004196489,-0.0001065387,1,1
-0.0004136524,-0.0001165867,1,1
-0.0004181903,-0.0001209625,1,1
-0.0004154351,-0.0001203142,1,1
-0.0003854531,-0.0001188556,1,1
-0.0003219235,-0.0001225832,1,1
-0.0002384598,-0.000132145,1,1
-0.0001600202,-0.0001426792,1,1
-0.0001109144,-0.0001499722,1,1
-9.924574e-05,-0.0001549962,1,1
-0.0001114006,-0.0001598582,1,1
-0.0001263107,-0.0001703924,1,1
-0.0001314967,-0.0001862748,1,1
-0.000119666,-0.0002029675,1,1
-9.017008e-05,-0.0002178775,1,1
-5.046408e-05,-0.0002321393,1,1
-1.383732e-05,-0.000246239,1,1
9.500085e-06,-0.0002572594,1,1
1.727922e-05,-0.0002580697,1,1
1.419998e-05,-0.0002433218,1,1
1.241726e-05,-0.0002096122,1,1
2.570662e-05,-0.0001613168,1,1
6.346784e-05,-0.00010978,1,1
0.0001287802,-6.569822e-05,1,1
0.0002161334,-3.733679e-05,1,1
0.0003172622,-2.550602e-05,1,1
0.0004245494,-2.080613e-05,1,1
0.0005290816,-1.643037e-05,1,1
0.0006221072,-5.734056e-06,1,1
0.0006913091,1.306552e-05,1,1
0.000737984,3.818565e-05,1,1
0.0007723419,6.233338e-05,1,1
0.0008029722,7.853991e-05,1,1
0.0008250132,8.648112e-05,1,1
0.0008186926,8.826383e-05,1,1
0.0007561353,8.534666e-05,1,1
0.000621783,8.016057e-05,1,1
0.000428277,7.270556e-05,1,1
0.0002125679,6.508849e-05,1,1
1.630683e-05,6.055066e-05,1,1
-0.0001323071,6.427817e-05,1,1
-0.0002256567,7.335383e-05,1,1
-0.0002737901,8.340187e-05,1,1
-0.0002948586,9.118101e-05,1,1
-0.000305879,9.604298e-05,1,1
-0.0003162512,0.0001012291,1,1
-0.000333268,0.0001062531,1,1
-0.0003564434,0.0001093323,1,1
-0.0003765395,0.0001125736,1,1
-0.000390315,0.0001222976,1,1
-0.0003989045,0.0001422316,1,1
-0.0004066836,0.0001662173,1,1
-0.0004117076,0.0001812893,1,1
-0.0004092767,0.0001777239,1,1
-0.0003945287,0.0001597346,1,1
-0.0003664914,0.0001378558,1,1
-0.0003279199,0.0001226217,1,1
-0.0002833519,0.0001177597,1,1
-0.0002374874,0.0001188942,1,1
-0.0002011848,0.0001175977,1,1
-0.0001796301,0.0001112771,1,1
-0.0001726613,9.896015e-05,1,1
-0.000179306,8.437427e-05,1,1
-0.0001940539,7.108491e-05,1,1
-0.000211557,6.249545e-05,1,1
-0.0002266291,5.876794e-05,1,1
-0.0002395943,5.601284e-05,1,1
-0.0002600145,5.034055e-05,1,1
-0.0002916173,3.753739e-05,1,1
-0.0003279199,1.419998e-05,1,1
-0.0003627639,-1.351319e-05,1,1
-0.0003841565,-4.365734e-05,1,1
-0.000387722,-7.282909e-05,1,1
-0.0003757291,-9.778715e-05,1,1
-0.0003582261,-0.0001131834,1,1
-0.000343154,-0.0001154523,1,1
-0.0003345645,-0.0001050801,1,1
-0.000328082,-8.465986e-05,1,1
-0.000313334,-6.48879e-05,1,1
-0.0002804347,-5.2733e-05,1,1
-0.0002266291,-4.90055e-05,1,1
-0.0001579134,-5.192267e-05,1,1
-8.40116e-05,-5.710876e-05,1,1
-1.740276e-05,-6.213279e-05,1,1
2.732727e-05,-6.099833e-05,1,1
4.483033e-05,-5.046408e-05,1,1
3.98063e-05,-3.328516e-05,1,1
2.149292e-05,-1.707863e-05,1,1
-6.868513e-06,-8.489166e-06,1,1
-4.657452e-05,-1.043395e-05,1,1
-9.584238e-05,-2.145439e-05,1,1
-0.0001517549,-3.992984e-05,1,1
-0.0002049123,-6.504996e-05,1,1
-0.0002441321,-9.746302e-05,1,1
-0.0002561249,-0.0001334415,1,1
-0.0002357047,-0.0001626133,1,1
-0.0001885437,-0.0001775233,1,1
-0.0001300382,-0.0001755785,1,1
-7.785312e-05,-0.0001650443,1,1
-3.668853e-05,-0.0001554824,1,1
9.106227e-07,-0.0001499722,1,1
4.531652e-05,-0.0001459206,1,1
9.766362e-05,-0.0001418689,1,1
0.0001582761,-0.0001352242,1,1
0.0002286124,-0.0001263107,1,1
0.0003073762,-0.0001067007,1,1
0.0003897054,-6.618442e-05,1,1
0.0004696036,6.096713e-06,1,1
0.0005433434,0.000101067,1,1
0.000604442,0.0001906891,1,1
0.0006456067,0.000247412,1,1
0.0006622995,0.0002574601,1,1
0.0006524134,0.0002258573,1,1
0.0006206486,0.0001725378,1,1
0.0005806184,0.0001190562,1,1
0.0005496639,7.999851e-05,1,1
0.0005462606,5.860588e-05,1,1
0.000577053,5.439218e-05,1,1
0.000636531,6.622294e-05,1,1
0.0007136742,9.328786e-05,1,1
0.0007960034,0.0001328318,1,1
0.0008718501,0.0001770756,1,1
0.0009269523,0.0002146748,1,1
0.0009472105,0.0002365536,1,1
0.0009203076,0.0002443328,1,1
0.0008355473,0.0002451431,1,1
0.0006916333,0.0002431983,1,1
0.0005034753,0.0002378501,1,1
0.0003049452,0.0002260194,1,1
0.0001346145,0.0002098128,1,1
2.01964e-05,0.0001911753,1,1
-3.360929e-05,0.0001715654,1,1
-3.668853e-05,0.0001521176,1,1
-1.432352e-05,0.0001342904,1,1
3.017472e-06,0.0001218114,1,1
-7.030578e-06,0.0001151667,1,1
-3.749886e-05,0.0001116012,1,1
-6.359137e-05,0.000108522,1,1
-6.229485e-05,0.0001015532,1,1
-2.485776e-05,9.101894e-05,1,1
3.93201e-05,7.918817e-05,1,1
0.0001046324,7.011252e-05,1,1
0.0001396385,6.654708e-05,1,1
0.0001250527,6.719535e-05,1,1
7.870197e-05,6.816773e-05,1,1
3.60788e-05,6.476436e-05,1,1
2.34377e-05,5.471631e-05,1,1
3.624086e-05,3.915804e-05,1,1
4.72613e-05,2.295151e-05,1,1
2.797553e-05,1.144487e-05,1,1
-2.826114e-05,6.744974e-06,1,1
-0.0001154523,6.420843e-06,1,1
-0.0002138259,6.420843e-06,1,1
-0.0002974516,2.693341e-06,1,1
-0.0003428299,-7.354709e-06,1,1
-0.0003426678,-2.307504e-05,1,1
-0.0003118754,-3.992984e-05,1,1
-0.0002773555,-5.435365e-05,1,1
-0.000266011,-6.44017e-05,1,1
-0.0002914552,-7.201877e-05,1,1
-0.0003523917,-8.336335e-05,1,1
-0.0004329382,-0.0001052422,1,1
-0.0005084606,-0.000134576,1,1
-0.0005494631,-0.0001572651,1,1
-0.000541846,-0.0001686097,1,1
-0.0004898231,-0.0001697442,1,1
-0.0004164075,-0.0001665028,1,1
-0.0003514194,-0.0001673132,1,1
-0.000313334,-0.000174444,1,1
-0.0003052308,-0.0001849783,1,1
-0.0003238683,-0.000196647,1,1
-0.0003548227,-0.0002036158,1,1
-0.0003843186,-0.0002049123,1,1
-0.0004113835,-0.0002000504,1,1
-0.0004483344,-0.0001875713,1,1
-0.0004980884,-0.0001690959,1,1
-0.0005512458,-0.0001462447,1,1
-0.0005877105,-0.000122097,1,1
-0.0005878726,-9.908367e-05,1,1
-0.0005460597,-8.368748e-05,1,1
-0.00047702,-7.817725e-05,1,1
-0.0004042526,-8.206682e-05,1,1
-0.0003449367,-9.519411e-05,1,1
-0.0003002067,-0.0001138316,1,1
-0.0002551526,-0.0001284175,1,1
-0.0002000504,-0.0001287416,1,1
-0.0001319829,-0.0001128592,1,1
-5.937768e-05,-8.838737e-05,1,1
5.124321e-06,-6.569822e-05,1,1
5.893001e-05,-5.127441e-05,1,1
0.0001044704,-4.560212e-05,1,1
0.0001469315,-4.462973e-05,1,1
0.000187934,-3.895745e-05,1,1
0.0002218057,-2.42095e-05,1,1
0.0002402811,-2.330684e-06,1,1
0.0002389846,2.327564e-05,1,1
0.0002260194,4.839576e-05,1,1
0.0002156472,7.076078e-05,1,1
0.000217592,9.085688e-05,1,1
0.0002303951,0.0001117633,1,1
0.0002428742,0.0001338042,1,1
0.0002427121,0.0001563313,1,1
0.0002221298,0.0001770756,1,1
0.0001786963,0.0001949028,1,1
0.0001198666,0.0002119197,1,1
5.747142e-05,0.0002334744,1,1
5.610517e-06,0.0002579462,1,1
-1.967167e-05,0.000279663,1,1
-8.165035e-06,0.00029198,1,1
3.348575e-05,0.0002885766,1,1
8.567078e-05,0.0002699391,1,1
0.000125863,0.0002410915,1,1
0.0001342904,0.0002122438,1,1
0.000108522,0.000190365,1,1
6.200925e-05,0.0001773998,1,1
1.095867e-05,0.0001733481,1,1
-3.26369e-05,0.0001756171,1,1
-5.808115e-05,0.000177886,1,1
-6.44017e-05,0.0001783722,1,1
-5.483985e-05,0.0001718896,1,1
-3.053005e-05,0.0001522796,1,1
1.436204e-05,0.0001193804,1,1
7.951231e-05,8.259155e-05,1,1
0.0001586002,4.985435e-05,1,1
0.0002326641,2.586868e-05,1,1
0.0002811216,1.241726e-05,1,1
0.0002961937,3.665733e-06,1,1
0.0002859836,-6.058186e-06,1,1
0.0002712356,-1.367526e-05,1,1
0.0002735045,-1.610624e-05,1,1
0.0003101313,-1.25408e-05,1,1
0.0003832228,-3.14101e-06,1,1
0.0004848378,1.59827e-05,1,1
0.0005981215,5.309566e-05,1,1
0.0007159431,0.0001090082,1,1
0.000829713,0.0001701068,1,1
0.000923873,0.0002188885,1,1
0.0009849718,0.0002427121,1,1
0.001005878,0.0002355812,1,1
0.0009703859,0.0002005751,1,1
0.0008614778,0.000148228,1,1
0.0006746164,8.956036e-05,1,1
0.0004226047,3.073064e-05,1,1
0.0001331559,-2.42095e-05,1,1
-0.0001616409,-7.169464e-05,1,1
-0.0004309934,-0.0001050801,1,1
-0.0006536711,-0.0001229073,1,1
-0.000814764,-0.0001313347,1,1
-0.0009056826,-0.0001436516,1,1
-0.0009261029,-0.0001686097,1,1
-0.00088429,-0.0002055606,1,1
-0.0007940196,-0.0002433218,1,1
-0.0006736051,-0.000271197,1,1
-0.0005444391,-0.0002843243,1,1
-0.0004292107,-0.0002828657,1,1
-0.0003391024,-0.0002700626,1,1
-0.0002726556,-0.0002522354,1,1
-0.0002219292,-0.000236353,1,1
-0.0001789819,-0.0002254946,1,1
-0.0001431655,-0.0002191741,1,1
-0.0001139937,-0.0002143121,1,1
-8.806324e-05,-0.0002105846,1,1
-6.197072e-05,-0.0002096122,1,1
-3.458168e-05,-0.0002062088,1,1
-8.002969e-06,-0.0001971332,1,1
1.095867e-05,-0.0001828714,1,1
1.808955e-05,-0.0001671511,1,1
2.01964e-05,-0.0001511067,1,1
3.073064e-05,-0.0001366828,1,1
6.427817e-05,-0.0001256624,1,1
0.0001263492,-0.0001203142,1,1
0.0002117576,-0.0001225832,1,1
0.0003062417,-0.0001274451,1,1
0.0003971604,-0.0001287416,1,1
0.0004841895,-0.0001253383,1,1
0.0005778633,-0.0001139937,1,1
0.0006789921,-9.341139e-05,1,1
0.0007673178,-6.634648e-05,1,1
0.0008084825,-3.895745e-05,1,1
0.0007797969,-1.934754e-05,1,1
0.0006773715,-1.059602e-05,1,1
0.0005183853,-7.192643e-06,1,1
0.0003321722,-4.113403e-06,1,1
0.0001587623,2.04508e-06,1,1
2.473423e-05,7.717366e-06,1,1
-6.407757e-05,1.079661e-05,1,1
-0.0001170729,1.484824e-05,1,1
-0.0001524032,2.327564e-05,1,1
-0.000186761,3.494434e-05,1,1
-0.0002243602,4.677511e-05,1,1
-0.0002553146,5.698522e-05,1,1
-0.0002724935,7.027458e-05,1,1
-0.0002744383,9.442231e-05,1,1
-0.0002669833,0.0001386662,1,1
-0.0002629317,0.000207706,1,1
-0.0002888622,0.0002939248,1,1
-0.0003583881,0.0003822504,1,1
-0.0004611376,0.0004602039,1,1
-0.0005734488,0.0005157923,1,1
-0.0006716604,0.0005386435,1,1
-0.0007390795,0.0005237334,1,1
-0.0007677651,0.0004824068,1,1
-0.0007543136,0.0004295735,1,1
-0.0006937013,0.0003799815,1,1
-0.0005878726,0.0003422202,1,1
-0.0004441207,0.0003146691,1,1
-0.0002788141,0.0002903593,1,1
-0.0001169109,0.0002590807,1,1
1.403791e-05,0.0002174299,1,1
9.977047e-05,0.0001671896,1,1
0.0001477418,0.0001146805,1,1
0.0001786963,6.476436e-05,1,1
0.0002192126,2.068259e-05,1,1
0.0002892249,-1.869928e-05,1,1
0.0003879227,-5.500191e-05,1,1
0.0004968306,-8.757704e-05,1,1
0.000599418,-0.0001118868,1,1
0.0006849886,-0.0001251762,1,1
0.000753056,-0.0001253383,1,1
0.0008091307,-0.0001175591,1,1
0.0008477023,-0.000107349,1,1
0.0008596951,-9.924574e-05,1,1
0.0008342508,-9.146661e-05,1,1
0.0007676419,-7.266703e-05,1,1
0.0006658648,-3.911951e-05,1,1
0.0005413986,4.638125e-06,1,1
0.0004164462,4.158902e-05,1,1
0.0003062417,5.811968e-05,1,1
0.0002107852,4.564065e-05,1,1
0.0001137081,4.47606e-06,1,1
-1.156841e-05,-4.997789e-05,1,1
-0.0001794681,-9.843541e-05,1,1
-0.0003786463,-0.0001255003,1,1
-0.0005796073,-0.0001293899,1,1
-0.0007447518,-0.0001180453,1,1
-0.0008452323,-0.0001036215,1,1
-0.0008703524,-9.535618e-05,1,1
-0.0008332395,-9.568031e-05,1,1
-0.0007607963,-0.0001031353,1,1
-0.0006818705,-0.0001157764,1,1
-0.0006168823,-0.0001342519,1,1
-0.0005796073,-0.0001556445,1,1
-0.0005724764,-0.0001724993,1,1
-0.0005852795,-0.0001752544,1,1
-0.0006060239,-0.0001566169,1,1
-0.0006283889,-0.0001190177,1,1
-0.0006462161,-7.315322e-05,1,1
-0.0006535091,-3.198864e-05,1,1
-0.0006499436,-7.840905e-06,1,1
-0.0006489712,-2.978945e-06,1,1
-0.0006606399,-8.165035e-06,1,1
-0.0006834911,-6.382317e-06,1,1
-0.0007047217,1.59827e-05,1,1
-0.0007071526,6.330578e-05,1,1
-0.0006799257,0.0001240803,1,1
-0.0006246614,0.0001798307,1,1
-0.0005531906,0.00021273,1,1
-0.0004752372,0.0002133783,1,1
-0.0003895047,0.0001850168,1,1
-0.0002825416,0.0001425557,1,1
-0.0001384655,0.0001038221,1,1
5.034055e-05,8.04847e-05,1,1
0.0002791768,7.497447e-05,1,1
0.0005310264,8.307774e-05,1,1
0.000770235,0.0001002567,1,1
0.0009564483,0.000120839,1,1
0.001050284,0.0001373696,1,1
0.001036833,0.0001436902,1,1
0.0009324626,0.0001389903,1,1
0.0007742866,0.0001273216,1,1
0.0006107626,0.000118408,1,1
0.0004802999,0.0001156529,1,1
0.0003995914,0.0001193804,1,1
0.0003592371,0.0001263492,1,1
0.0003363859,0.0001344524,1,1
0.0003200173,0.0001417454,1,1
0.0003222862,0.0001466074,1,1
0.000356644,0.0001461212,1,1
0.0004204978,0.0001375317,1,1
0.0004893756,0.0001240803,1,1
0.0005363746,0.0001083599,1,1
0.0005543638,9.68533e-05,1,1
0.0005418848,9.134307e-05,1,1
0.0005047718,8.42122e-05,1,1
0.0004524247,6.849186e-05,1,1
0.0003940812,4.320967e-05,1,1
0.0003386548,8.203562e-06,1,1
0.0002968419,-2.745081e-05,1,1
0.0002712356,-5.338126e-05,1,1
0.0002537325,-6.164659e-05,1,1
0.0002294227,-5.240886e-05,1,1
0.0001840444,-2.826114e-05,1,1
0.0001116012,1.234753e-06,1,1
6.096713e-06,2.408596e-05,1,1
-0.0001279313,3.364782e-05,1,1
-0.0002763831,3.251336e-05,1,1
-0.0004130042,2.376183e-05,1,1
-0.0005084606,5.934648e-06,1,1
-0.0005301774,-2.09682e-05,1,1
-0.0004544929,-5.710876e-05,1,1
-0.0002833519,-9.940781e-05,1,1
-4.349527e-05,-0.0001439758,1,1
0.0002149989,-0.0001877334,1,1
0.0004342734,-0.000226467,1,1
0.0005661946,-0.0002533699,1,1
0.0005858046,-0.000268604,1,1
0.0005029891,-0.0002737901,1,1
0.0003532407,-0.0002715212,1,1
0.0001791825,-0.0002666592,1,1
1.501031e-05,-0.0002630937,1,1
-0.000127121,-0.0002600145,1,1
-0.0002504527,-0.0002551526,1,1
-0.0003613053,-0.0002455907,1,1
-0.0004530343,-0.0002334358,1,1
-0.0005128364,-0.0002162569,1,1
-0.0005415219,-0.0001921092,1,1
-0.0005408737,-0.0001577513,1,1
-0.0005065158,-0.00010978,1,1
-0.0004232143,-5.354332e-05,1,1
-0.0002778417,2.693341e-06,1,1
-7.088431e-05,5.034055e-05,1,1
0.0001741585,8.42122e-05,1,1
0.0004068843,0.0001012291,1,1
0.0005678153,0.0001023635,1,1
0.0006135177,8.858796e-05,1,1
0.0005371849,6.881599e-05,1,1
0.0003770643,5.682316e-05,1,1
0.000195389,6.184718e-05,1,1
3.834771e-05,8.161915e-05,1,1
-7.526008e-05,0.0001031738,1,1
-0.0001431655,0.0001150046,1,1
-0.0001752544,0.0001112771,1,1
-0.0001812508,9.231547e-05,1,1
-0.0001681235,6.136099e-05,1,1
-0.0001465688,2.586868e-05,1,1
-0.0001293899,-3.303076e-06,1,1
-0.0001248521,-1.594417e-05,1,1
-0.000132145,-1.043395e-05,1,1
-0.0001442999,9.500085e-06,1,1
-0.0001514308,3.543054e-05,1,1
-0.0001467309,6.200925e-05,1,1
-0.0001261486,8.340187e-05,1,1
-9.649064e-05,9.652917e-05,1,1
-6.699475e-05,0.0001022015,1,1
-4.187462e-05,0.0001028497,1,1
-1.756482e-05,0.000101067,1,1
1.257933e-05,0.0001009049,1,1
5.714729e-05,0.0001052807,1,1
0.0001130598,0.0001164632,1,1
0.0001751309,0.0001346145,1,1
0.000237526,0.0001584381,1,1
0.0002905214,0.0001827479,1,1
0.0003284447,0.0002000889,1,1
0.0003558337,0.0002044647,1,1
0.0003819262,0.0001981441,1,1
0.0004146635,0.0001905271,1,1
0.0004574487,0.0001887444,1,1
0.0005141716,0.0001921477,1,1
0.0005789978,0.0001984683,1,1
0.0006279415,0.0002039785,1,1
0.0006303725,0.0002051129,1,1
0.0005801322,0.0001992786,1,1
0.0004989374,0.0001884202,1,1
0.0004204978,0.0001764274,1,1
0.000373823,0.0001660552,1,1
0.0003697714,0.0001564933,1,1
0.0003963501,0.0001441764,1,1
0.0004247115,0.0001286181,1,1
0.0004315182,0.0001098185,1,1
0.0004091532,9.020862e-05,1,1
0.0003606957,6.800567e-05,1,1
0.0002926282,3.867184e-05,1,1
0.0002219677,-6.176923e-08,1,1
0.0001671896,-3.928157e-05,1,1
0.0001388282,-7.120844e-05,1,1
0.00013818,-9.130454e-05,1,1
0.0001517934,-0.0001020008,1,1
0.0001620036,-0.0001037836,1,1
0.0001577899,-0.0001010285,1,1
0.0001391524,-0.0001016767,1,1
0.0001158149,-0.0001114006,1,1
9.247754e-05,-0.0001293899,1,1
6.087479e-05,-0.0001511067,1,1
1.144487e-05,-0.0001702304,1,1
-5.905355e-05,-0.000184168,1,1
-0.0001451102,-0.0001921092,1,1
-0.0002429977,-0.0001896782,1,1
-0.0003570916,-0.0001747682,1,1
-0.0004859335,-0.0001504584,1,1
-0.0006144513,-0.0001289037,1,1
-0.0007144455,-0.0001227452,1,1
-0.0007716547,-0.0001334415,1,1
-0.0007982334,-0.0001477033,1,1
-0.000824812,-0.0001528894,1,1
-0.0008630594,-0.0001430034,1,1
-0.0009056826,-0.0001214487,1,1
-0.0009322613,-9.908367e-05,1,1
-0.0009345302,-9.017008e-05,1,1
-0.0009154066,-0.0001032974,1,1
-0.0008851003,-0.0001336036,1,1
-0.0008547941,-0.0001716889,1,1
-0.0008376152,-0.0002105846,1,1
-0.00083956,-0.0002449425,1,1
-0.000856901,-0.0002603387,1,1
-0.0008807246,-0.0002399184,1,1
-0.0009008207,-0.0001840059,1,1
-0.0009137859,-0.0001115627,1,1
-0.0009212409,-5.078821e-05,1,1
-0.0009282097,-1.869928e-05,1,1
-0.0009405267,-9.623623e-06,1,1
-0.0009643502,-8.975362e-06,1,1
-0.001011835,-4.923729e-06,1,1
-0.001089789,9.013889e-06,1,1
-0.001180221,3.672706e-05,1,1
-0.001239537,7.059871e-05,1,1
-0.001229489,9.960841e-05,1,1
-0.001146187,0.0001174356,1,1
-0.001016049,0.0001240803,1,1
-0.0008734317,0.000120839,1,1
-0.0007454,0.000108522,1,1
-0.0006476747,8.680524e-05,1,1
-0.0005745832,5.925414e-05,1,1
-0.0005011677,3.543054e-05,1,1
-0.0003875599,2.214118e-05,1,1
-0.0002084778,2.165498e-05,1,1
2.781346e-05,3.170304e-05,1,1
0.0002803113,4.596478e-05,1,1
0.0005062304,6.103686e-05,1,1
0.000693416,7.951231e-05,1,1
0.0008616399,0.000101067,1,1
0.001052067,0.0001227837,1,1
0.0012916,0.0001414213,1,1
0.001585587,0.0001547106,1,1
0.001926411,0.0001589243,1,1
0.002290573,0.0001577899,1,1
0.002630588,0.0001594105,1,1
0.002889246,0.0001722137,1,1
0.003027003,0.0001976579,1,1
0.003042075,0.00022764,1,1
0.002959259,0.0002513016,1,1
0.00280173,0.0002579462,1,1
0.002582617,0.0002493568,1,1
0.002315532,0.0002339606,1,1
0.002018141,0.0002143507,1,1
0.001705353,0.0001887444,1,1
0.001382519,0.0001543865,1,1
0.001053201,0.0001130598,1,1
0.00072826,7.319176e-05,1,1
0.0004269804,4.677511e-05,1,1
0.000168162,4.045456e-05,1,1
-4.560212e-05,4.888196e-05,1,1
-0.0002269532,5.860588e-05,1,1
-0.0003938804,5.925414e-05,1,1
-0.0005525423,5.552663e-05,1,1
-0.0006962943,5.649903e-05,1,1
-0.0008155743,6.525056e-05,1,1
-0.0009043861,7.286763e-05,1,1
-0.0009551126,6.83298e-05,1,1
-0.0009706708,4.158902e-05,1,1
-0.0009671054,-9.461558e-06,1,1
-0.0009653227,-7.65566e-05,1,1
-0.0009779637,-0.0001433275,1,1
-0.001009404,-0.0001943781,1,1
-0.001053648,-0.0002162569,1,1
-0.001095137,-0.0002002124,1,1
-0.001115557,-0.0001465688,1,1
-0.001098378,-6.197072e-05,1,1
-0.001039062,3.786152e-05,1,1
-0.000941337,0.0001231079,1,1
-0.0008154123,0.0001620036,1,1
-0.0006727948,0.000145635,1,1
-0.0005206155,9.507057e-05,1,1
-0.0003674638,4.272347e-05,1,1
-0.0002258187,1.533444e-05,1,1
-0.0001057284,1.97102e-05,1,1
-1.772689e-05,4.094075e-05,1,1
2.748934e-05,5.633696e-05,1,1
3.251336e-05,4.72613e-05,1,1
1.679302e-05,1.095867e-05,1,1
-2.81688e-06,-3.814712e-05,1,1
-1.545797e-05,-8.320128e-05,1,1
-2.145439e-05,-0.0001143178,1,1
-2.907146e-05,-0.0001269589,1,1
-5.451572e-05,-0.0001230693,1,1
-0.0001130213,-0.0001112386,1,1
-0.0002052365,-0.0001007043,1,1
-0.0003117133,-9.486997e-05,1,1
-0.0003966356,-9.130454e-05,1,1
-0.000434883,-8.692878e-05,1,1
-0.0004245108,-8.07703e-05,1,1
-0.000387722,-7.18567e-05,1,1
-0.0003566054,-5.791909e-05,1,1
-0.0003494746,-4.074016e-05,1,1
-0.0003648708,-2.113026e-05,1,1
-0.0003872358,-2.238346e-07,1,1
-0.0003964735,2.133085e-05,1,1
-0.0003734602,4.110282e-05,1,1
-0.0003068514,5.649903e-05,1,1
-0.000199078,6.525056e-05,1,1
-6.44017e-05,6.978839e-05,1,1
8.437427e-05,7.351589e-05,1,1
0.0002393087,7.594687e-05,1,1
0.0003919743,7.67572e-05,1,1
0.0005303781,7.465034e-05,1,1
0.000648848,6.816773e-05,1,1
0.0007378219,5.957827e-05,1,1
0.0007914656,5.374392e-05,1,1
0.0008086445,5.131294e-05,1,1
0.000787576,4.580272e-05,1,1
0.0007287462,3.445814e-05,1,1
0.0006447964,2.489629e-05,1,1
0.0005543638,2.570662e-05,1,1
0.0004652279,4.013043e-05,1,1
0.0003756057,6.703327e-05,1,1
0.0002850112,9.717743e-05,1,1
0.0001976579,0.0001229458,1,1
0.0001252147,0.0001420695,1,1
7.335383e-05,0.0001529279,1,1
2.81376e-05,0.0001524417,1,1
-2.712668e-05,0.0001448246,1,1
-9.049421e-05,0.0001316974,1,1
-0.000147055,0.0001166253,1,1
-0.0001869231,0.000101067,1,1
-0.0002117191,8.79397e-05,1,1
-0.0002287359,7.967438e-05,1,1
-0.0002412149,7.546067e-05,1,1
-0.0002425115,7.367795e-05,1,1
-0.0002258187,7.221937e-05,1,1
-0.0001935677,6.946425e-05,1,1
-0.0001579134,6.557468e-05,1,1
-0.0001267968,5.860588e-05,1,1
-0.0001094559,4.758544e-05,1,1
-0.000112211,3.299956e-05,1,1
-0.0001360346,1.501031e-05,1,1
-0.0001747682,-6.058186e-06,1,1
-0.0002185258,-2.647842e-05,1,1
-0.0002519113,-4.300908e-05,1,1
-0.0002605007,-5.759496e-05,1,1
-0.0002376495,-6.81292e-05,1,1
-0.0001846542,-7.169464e-05,1,1
-0.0001180453,-7.039812e-05,1,1
-6.44017e-05,-6.958779e-05,1,1
-4.462973e-05,-7.526008e-05,1,1
-6.326724e-05,-8.773911e-05,1,1
-0.0001057284,-0.0001062146,1,1
-0.0001496481,-0.0001287416,1,1
-0.0001703924,-0.0001549962,1,1
-0.0001498101,-0.0001818991,1,1
-8.854943e-05,-0.0002031296,1,1
1.002961e-07,-0.0002118811,1,1
9.344993e-05,-0.0002062088,1,1
0.0001683241,-0.0001904885,1,1
0.0002054371,-0.0001677994,1,1
0.0002023578,-0.0001397621,1,1
0.000173024,-0.0001070249,1,1
0.0001415833,-7.639453e-05,1,1
0.0001316974,-5.159854e-05,1,1
0.0001598967,-3.652646e-05,1,1
0.0002271538,-3.182657e-05,1,1
0.0003135347,-3.490581e-05,1,1
0.0003879227,-4.414354e-05,1,1
0.0004235771,-5.775702e-05,1,1
0.0004065602,-7.493595e-05,1,1
0.0003323342,-9.033215e-05,1,1
0.0002043026,-9.859748e-05,1,1
4.110282e-05,-8.82253e-05,1,1
-0.0001216107,-5.111234e-05,1,1
-0.0002402425,4.962256e-06,1,1
-0.0002765452,5.893001e-05,1,1
-0.0002112329,8.810177e-05,1,1
-6.0188e-05,8.388807e-05,1,1
0.0001295905,5.406805e-05,1,1
0.0002981384,1.468618e-05,1,1
0.0004112601,-2.177852e-05,1,1
0.0004721967,-4.787104e-05,1,1
0.0005010443,-6.002594e-05,1,1
0.0005110924,-5.662256e-05,1,1
0.0004943996,-4.414354e-05,1,1
0.0004380009,-3.036798e-05,1,1
0.0003448133,-2.210265e-05,1,1
0.0002337985,-1.821308e-05,1,1
0.0001273216,-1.562004e-05,1,1
4.320967e-05,-8.651231e-06,1,1
-8.165035e-06,3.341602e-06,1,1
-3.798505e-05,1.484824e-05,1,1
-6.294311e-05,1.808955e-05,1,1
-9.486997e-05,1.59827e-05,1,1
-0.0001327933,2.100672e-05,1,1
-0.0001695821,3.769945e-05,1,1
-0.0001903264,5.585077e-05,1,1
-0.0001728234,6.006447e-05,1,1
-9.697683e-05,4.969229e-05,1,1
3.462021e-05,3.218923e-05,1,1
0.0001979821,1.436204e-05,1,1
0.000366368,1.002961e-07,1,1
0.0005282713,-7.678839e-06,1,1
0.0006872575,-2.330684e-06,1,1
0.0008425161,2.100672e-05,1,1
0.0009898337,6.83298e-05,1,1
0.001122241,0.0001352628,1,1
0.001220615,0.0002093267,1,1
0.001264211,0.000267346,1,1
0.001239253,0.0002926282,1,1
0.001145903,0.0002816078,1,1
0.000995344,0.0002469258,1,1
0.000799893,0.0002049509,1,1
0.0005755944,0.0001658931,1,1
0.0003438409,0.0001370455,1,1
0.0001360731,0.000118408,1,1
-2.388537e-05,0.0001044704,1,1
-0.0001318209,9.26396e-05,1,1
-0.0001971332,9.101894e-05,1,1
-0.0002337599,0.0001103047,1,1
-0.0002624455,0.0001477418,1,1
-0.0003076617,0.0001876099,1,1
-0.0003736223,0.0002120818,1,1
-0.0004531963,0.0002112714,1,1
-0.0005411978,0.0001858272,1,1
-0.000638599,0.0001516314,1,1
-0.0007536653,0.0001240803,1,1
-0.0008889899,0.0001112771,1,1
-0.001042304,0.0001119254,1,1
-0.001201452,0.0001167873,1,1
-0.001348121,0.0001114392,1,1
-0.001460108,8.907416e-05,1,1
-0.001522341,5.374392e-05,1,1
-0.001539844,2.035846e-05,1,1
-0.001535955,-7.100305e-07,1,1
-0.001530282,-1.010982e-05,1,1
-0.001516831,-2.113026e-05,1,1
-0.001478908,-4.511593e-05,1,1
-0.001403871,-7.817725e-05,1,1
-0.001285726,-0.0001067007,1,1
-0.001115233,-0.0001238797,1,1
-0.0008961208,-0.0001293899,1,1
-0.0006564262,-0.0001285796,1,1
-0.000437314,-0.0001276072,1,1
-0.0002723315,-0.0001305243,1,1
-0.0001703924,-0.0001358725,1,1
-0.000117235,-0.0001426792,1,1
-7.752899e-05,-0.0001502963,1,1
-1.562004e-05,-0.0001579134,1,1
8.502253e-05,-0.0001611547,1,1
0.0002224539,-0.0001571031,1,1
0.0003814401,-0.0001454344,1,1
0.000532647,-0.0001276072,1,1
0.0006383138,-0.0001062146,1,1
0.0006668373,-8.514606e-05,1,1
0.0006127074,-6.748094e-05,1,1
0.0004945617,-4.949169e-05,1,1
0.0003440029,-3.231277e-05,1,1
0.0001939304,-1.659243e-05,1,1
6.978839e-05,-5.085794e-06,1,1
-1.529591e-05,4.962256e-06,1,1
-6.294311e-05,1.436204e-05,1,1
-8.903562e-05,2.505836e-05,1,1
-0.0001089697,3.656499e-05,1,1
-0.0001376552,4.661304e-05,1,1
-0.000176713,5.406805e-05,1,1
-0.0002194982,6.330578e-05,1,1
-0.0002525595,7.772959e-05,1,1
-0.0002596904,9.63671e-05,1,1
-0.0002365151,0.0001143563,1,1
-0.0001934057,0.0001316974,1,1
-0.0001383035,0.0001553589,1,1
-6.456377e-05,0.0001867996,1,1
3.834771e-05,0.0002219677,1,1
0.0001722137,0.0002530843,1,1
0.0003281205,0.0002741528,1,1
0.0004956961,0.0002811216,1,1
0.0006721854,0.0002686426,1,1
0.0008592089,0.0002367157,1,1
0.001054174,0.0001911753,1,1
0.001237308,0.0001419075,1,1
0.001375226,0.0001023635,1,1
0.001432273,7.789165e-05,1,1
0.001389812,6.055066e-05,1,1
0.00126259,3.98063e-05,1,1
0.001089666,3.503668e-06,1,1
0.0009052355,-5.581224e-05,1,1
0.000725829,-0.0001324691,1,1
0.0005542018,-0.0002122053,1,1
0.000388895,-0.0002809209,1,1
0.0002187264,-0.0003250027,1,1
3.55926e-05,-0.0003318095,1,1
-0.0001527273,-0.0003027998,1,1
-0.0003254889,-0.0002564491,1,1
-0.000467134,-0.0002149604,1,1
-0.0005716661,-0.0001883817,1,1
-0.0006504298,-0.0001754164,1,1
-0.0007197938,-0.0001689338,1,1
-0.0007857543,-0.0001627754,1,1
-0.0008418289,-0.0001507825,1,1
-0.0008664628,-0.0001276072,1,1
-0.0008343739,-8.628052e-05,1,1
-0.0007364865,-1.853722e-05,1,1
-0.000578797,7.270556e-05,1,1
-0.0003757291,0.0001686482,1,1
-0.0001439758,0.000249843,1,1
0.0001031738,0.0003107795,1,1
0.000359075,0.0003571303,1,1
0.0006140039,0.0003973225,1,1
0.0008383025,0.0004303838,1,1
0.001000854,0.0004410801,1,1
0.001084642,0.0004140152,1,1
0.001097931,0.0003495132,1,1
0.00106876,0.0002642668,1,1
0.001039264,0.0001824238,1,1
0.001039912,0.0001179218,1,1
0.001083346,7.610894e-05,1,1
0.001151899,5.244739e-05,1,1
0.001198088,3.964424e-05,1,1
0.00116373,3.154097e-05,1,1
0.001029054,2.165498e-05,1,1
0.0008190167,7.879432e-06,1,1
0.000577215,-7.516774e-06,1,1
0.0003354135,-2.080613e-05,1,1
0.0001106288,-2.923353e-05,1,1
-8.44978e-05,-3.247483e-05,1,1
-0.0002431597,-3.409549e-05,1,1
-0.0003660052,-3.830919e-05,1,1
-0.0004638926,-4.673658e-05,1,1
-0.0005455735,-5.532604e-05,1,1
-0.0006116962,-6.132246e-05,1,1
-0.0006536711,-6.715681e-05,1,1
-0.0006643674,-7.866345e-05,1,1
-0.0006439472,-0.0001021629,1,1
-0.0006034309,-0.0001363587,1,1
-0.0005582146,-0.0001765509,1,1
-0.0005149432,-0.0002136638,1,1
-0.0004711856,-0.0002412149,1,1
-0.0004159214,-0.0002528836,1,1
-0.0003497987,-0.0002483458,1,1
-0.0002836761,-0.0002295462,1,1
-0.0002321393,-0.0002021572,1,1
-0.0002039399,-0.0001733096,1,1
-0.0001981056,-0.0001433275,1,1
-0.0002084778,-0.0001107524,1,1
-0.000223874,-7.412562e-05,1,1
-0.000231491,-3.490581e-05,1,1
-0.0002199844,3.179537e-06,1,1
-0.0001840059,3.818565e-05,1,1
-0.0001302002,6.962632e-05,1,1
-8.174268e-05,9.523264e-05,1,1
-7.250496e-05,0.0001117633,1,1
-0.0001164247,0.0001150046,1,1
-0.000199078,0.000105929,1,1
-0.0002914552,9.004655e-05,1,1
-0.0003647087,7.189524e-05,1,1
-0.0004003631,5.471631e-05,1,1
-0.000395339,3.543054e-05,1,1
-0.0003598467,4.80019e-06,1,1
-0.0003078238,-4.187462e-05,1,1
-0.0002530457,-9.973194e-05,1,1
-0.0002083157,-0.0001548341,1,1
-0.0001825473,-0.0001929195,1,1
-0.000176713,-0.0002135018,1,1
-0.0001864369,-0.0002199844,1,1
-0.0002088019,-0.0002120432,1,1
-0.0002485079,-0.0001838438,1,1
-0.0003081479,-0.0001373311,1,1
-0.0003839945,-8.628052e-05,1,1
-0.0004601652,-4.90055e-05,1,1
-0.0005081365,-2.988179e-05,1,1
-0.0005021401,-1.124428e-05,1,1
-0.0004345588,4.175109e-05,1,1
-0.0003267854,0.0001454729,1,1
-0.0002146363,0.0002854973,1,1
-0.0001280934,0.0004204978,1,1
-8.336335e-05,0.0005084993,1,1
-8.125649e-05,0.0005255162,1,1
-0.0001058904,0.0004731691,1,1
-0.0001373311,0.0003731747,1,1
-0.0001655305,0.0002589186,1,1
-0.0001938919,0.0001566554,1,1
-0.0002412149,7.935024e-05,1,1
-0.0003203028,2.81376e-05,1,1
-0.0004262935,-5.479652e-07,1,1
-0.0005434667,-1.610624e-05,1,1
-0.0006504298,-2.696461e-05,1,1
-0.000727897,-3.895745e-05,1,1
-0.0007630652,-5.013995e-05,1,1
-0.0007473448,-5.565017e-05,1,1
-0.0006820326,-5.548811e-05,1,1
-0.0005744212,-5.451572e-05,1,1
-0.0004272659,-6.002594e-05,1,1
-0.000238784,-6.650855e-05,1,1
-1.237873e-05,-6.48879e-05,1,1
0.0002239125,-4.884343e-05,1,1
0.0004172565,-2.453363e-05,1,1
0.0005234093,-2.168618e-06,1,1
0.0005405883,1.079661e-05,1,1
0.0005037994,8.689758e-06,1,1
0.00046069,-1.25408e-05,1,1
0.0004438352,-4.722278e-05,1,1
0.0004713863,-8.595638e-05,1,1
0.0005339436,-0.0001188556,1,1
0.0006131936,-0.0001402483,1,1
0.0006896885,-0.0001477033,1,1
0.0007512733,-0.000144462,1,1
0.0007917897,-0.0001366828,1,1
0.0008050791,-0.0001280934,1,1
0.0007994067,-0.0001225832,1,1
0.0007979482,-0.0001178833,1,1
0.0008219338,-0.0001115627,1,1
0.0008694191,-9.892161e-05,1,1
0.0009246834,-7.817725e-05,1,1
0.0009703859,-4.90055e-05,1,1
0.0009961543,-1.124428e-05,1,1
0.001007337,2.700314e-05,1,1
0.001028892,5.763349e-05,1,1
0.001088532,7.448828e-05,1,1
0.001193874,7.870197e-05,1,1
0.001333575,7.708133e-05,1,1
0.001477489,7.465034e-05,1,1
0.001576835,7.740546e-05,1,1
0.001588018,8.405014e-05,1,1
0.001490616,9.085688e-05,1,1
0.001298569,9.63671e-05,1,1
0.001053525,9.912221e-05,1,1
0.0008037825,0.0001022015,1,1
0.0005898562,0.0001073875,1,1
0.0004316803,0.0001145184,1,1
0.0003162898,0.0001219734,1,1
0.0002143507,0.000128294,1,1
8.777764e-05,0.0001346145,1,1
-9.308726e-05,0.0001414213,1,1
-0.0003272716,0.0001487142,1,1
-0.0005804176,0.0001558451,1,1
-0.0008068228,0.0001621656,1,1
-0.0009742362,0.0001671896,1,1
-0.001066451,0.0001715654,1,1
-0.00108201,0.0001761032,1,1
-0.001023666,0.0001795066,1,1
-0.0009145963,0.0001812893,1,1
-0.000789806,0.0001801549,1,1
-0.0006834911,0.0001749688,1,1
-0.0006209339,0.000170593,1,1
-0.0006073205,0.0001710792,1,1
-0.0006338991,0.0001722137,1,1
-0.0006851118,0.0001684862,1,1
-0.0007392416,0.0001574657,1,1
-0.0007747339,0.0001399627,1,1
-0.0007770028,0.000121001,1,1
-0.0007463724,0.0001047945,1,1
-0.0006945116,9.020862e-05,1,1
-0.0006382749,7.481241e-05,1,1
-0.0005857658,5.811968e-05,1,1
-0.0005313118,4.531652e-05,1,1
-0.0004600031,3.591673e-05,1,1
-0.0003635742,2.570662e-05,1,1
-0.0002548284,8.041497e-06,1,1
-0.0001582375,-1.902341e-05,1,1
-9.373552e-05,-5.062615e-05,1,1
-6.877746e-05,-8.125649e-05,1,1
-7.574627e-05,-0.0001062146,1,1
-0.0001000561,-0.0001259865,1,1
-0.0001266348,-0.000142031,1,1
-0.0001507825,-0.0001532135,1,1
-0.0001835197,-0.0001541859,1,1
-0.0002455907,-0.0001449482,1,1
-0.0003459091,-0.0001282554,1,1
-0.0004706994,-0.0001091317,1,1
-0.0005852795,-9.551824e-05,1,1
-0.0006492953,-9.146661e-05,1,1
-0.000645892,-9.892161e-05,1,1
-0.0005852795,-0.0001141558,1,1
-0.0004907955,-0.0001327933,1,1
-0.0003956632,-0.0001475412,1,1
-0.0003311612,-0.0001504584,1,1
-0.0003173856,-0.0001426792,1,1
-0.0003593606,-0.000134738,1,1
-0.0004397449,-0.0001336036,1,1
-0.000504409,-0.0001397621,1,1
-0.0004919299,-0.0001511067,1,1
-0.0003747568,-0.0001608306,1,1
-0.0001682856,-0.000164396,1,1
8.145709e-05,-0.0001605064,1,1
0.0003175863,-0.000152079,1,1
0.0004982892,-0.0001428413,1,1
0.0006073592,-0.0001337657,1,1
0.0006496583,-0.0001256624,1,1
0.0006493342,-0.0001154523,1,1
0.0006443101,-0.0001032974,1,1
0.0006645683,-9.081835e-05,1,1
0.000725667,-8.158062e-05,1,1
0.0008185305,-7.60704e-05,1,1
0.0009139871,-7.526008e-05,1,1
0.0009797857,-8.060823e-05,1,1
0.0009932371,-8.773911e-05,1,1
0.0009545035,-9.308726e-05,1,1
0.0008793051,-9.405965e-05,1,1
0.0007908173,-8.984595e-05,1,1
0.0007062191,-8.271508e-05,1,1
0.0006355586,-7.347736e-05,1,1
0.0005747841,-5.759496e-05,1,1
0.0005097958,-3.847125e-05,1,1
0.0004294114,-2.064406e-05,1,1
0.0003370341,-8.327101e-06,1,1
0.000239957,-1.682422e-06,1,1
0.0001414213,9.824215e-06,1,1
4.35338e-05,4.596478e-05,1,1
-4.625038e-05,0.0001171115,1,1
-0.0001285796,0.0002107852,1,1
-0.0002203085,0.0002957075,1,1
-0.0003415334,0.0003430306,1,1
-0.0005006815,0.0003440029,1,1
-0.0006768464,0.0003091589,1,1
-0.0008270809,0.0002569738,1,1
-0.0009074653,0.0002083542,1,1
-0.0008992,0.0001765894,1,1
-0.0008163847,0.0001668655,1,1
-0.0006914323,0.0001723757,1,1
-0.0005530285,0.0001811273,1,1
-0.0004215936,0.0001795066,1,1
-0.0002971275,0.0001597346,1,1
-0.0001713648,0.0001211631,1,1
-4.47918e-05,6.946425e-05,1,1
6.670914e-05,1.889987e-05,1,1
0.0001401247,-1.756482e-05,1,1
0.0001611932,-3.247483e-05,1,1
0.0001367214,-2.712668e-05,1,1
8.599492e-05,-6.868513e-06,1,1
3.056858e-05,2.700314e-05,1,1
-1.286493e-05,6.589881e-05,1,1
-3.782299e-05,9.928428e-05,1,1
-4.965376e-05,0.0001161391,1,1
-4.981582e-05,0.0001124116,1,1
-4.138842e-05,9.766362e-05,1,1
-3.312309e-05,8.145709e-05,1,1
-3.539201e-05,7.335383e-05,1,1
-5.2733e-05,7.935024e-05,1,1
-8.628052e-05,9.150514e-05,1,1
-0.0001342519,9.863601e-05,1,1
-0.0001925954,9.21534e-05,1,1
-0.000256287,7.238143e-05,1,1
-0.0003165753,4.369587e-05,1,1
-0.000365519,1.889987e-05,1,1
-0.0003979321,8.527692e-06,1,1
-0.0004058733,1.614476e-05,1,1
-0.0003886944,3.737532e-05,1,1
-0.0003557951,5.94162e-05,1,1
-0.0003225718,7.513654e-05,1,1
-0.0003031239,8.145709e-05,1,1
-0.0002974516,8.016057e-05,1,1
-0.0002877277,7.335383e-05,1,1
-0.0002572594,6.606088e-05,1,1
-0.0002076674,5.94162e-05,1,1
-0.0001535376,5.212327e-05,1,1
-0.0001086455,4.531652e-05,1,1
-7.363943e-05,3.867184e-05,1,1
-4.203669e-05,3.073064e-05,1,1
-8.813297e-06,1.808955e-05,1,1
2.522042e-05,-3.465141e-06,1,1
5.228533e-05,-3.296103e-05,1,1
6.914012e-05,-6.521203e-05,1,1
6.606088e-05,-9.033215e-05,1,1
2.376183e-05,-0.0001055663,1,1
-7.315322e-05,-0.0001138316,1,1
-0.0002151224,-0.000114804,1,1
-0.0003616295,-0.0001096179,1,1
-0.0004645409,-9.859748e-05,1,1
-0.0004917679,-8.790117e-05,1,1
-0.0004309934,-8.417367e-05,1,1
-0.0002906449,-9.000802e-05,1,1
-8.903562e-05,-0.0001020008,1,1
0.0001487142,-0.0001062146,1,1
0.0003957018,-9.341139e-05,1,1
0.0006302104,-6.81292e-05,1,1
0.0008258235,-4.47918e-05,1,1
0.0009517483,-3.474375e-05,1,1
0.0009875648,-3.539201e-05,1,1
0.0009363521,-3.960571e-05,1,1
0.0008399231,-4.349527e-05,1,1
0.0007694247,-4.90055e-05,1,1
0.0007882243,-5.824322e-05,1,1
0.0009104217,-6.893953e-05,1,1
0.00110409,-7.785312e-05,1,1
0.001321744,-8.40116e-05,1,1
0.001509092,-8.887356e-05,1,1
0.001608762,-8.919769e-05,1,1
0.00157408,-8.141856e-05,1,1
0.00139208,-6.294311e-05,1,1
0.001095987,-3.101625e-05,1,1
0.0007507871,1.663096e-05,1,1
0.0004321665,8.080883e-05,1,1
0.0002098128,0.0001579519,1,1
0.0001187321,0.0002321778,1,1
0.000145635,0.0002863077,1,1
0.0002339606,0.0003111037,1,1
0.0003175863,0.0003133726,1,1
0.0003548613,0.0003060797,1,1
0.0003428685,0.0002979764,1,1
0.0002974902,0.0002936006,1,1
0.0002511395,0.0002937627,1,1
0.0002362295,0.0002934386,1,1
0.000279663,0.0002854973,1,1
0.000386302,0.0002678322,1,1
0.0005245438,0.0002384984,1,1
0.0006457687,0.0002039785,1,1
0.0007162672,0.0001720516,1,1
0.000737984,0.0001446626,1,1
0.0007308531,0.0001229458,1,1
0.0007110811,0.0001062531,1,1
0.000676237,9.296373e-05,1,1
0.0006054144,8.016057e-05,1,1
0.0004765725,6.444023e-05,1,1
0.0002830664,4.35338e-05,1,1
4.126489e-05,2.035846e-05,1,1
-0.0002235498,-1.682422e-06,1,1
-0.000487068,-1.983374e-05,1,1
-0.0007249799,-3.344723e-05,1,1
-0.000921565,-4.673658e-05,1,1
-0.001060617,-6.083626e-05,1,1
-0.001133222,-7.380149e-05,1,1
-0.001132736,-8.563225e-05,1,1
-0.001067262,-9.697683e-05,1,1
-0.0009531678,-0.0001062146,1,1
-0.0008124951,-0.0001067007,1,1
-0.0006747396,-9.503204e-05,1,1
-0.0005693972,-7.299116e-05,1,1
-0.0005136467,-4.592625e-05,1,1
-0.0005053814,-2.194059e-05,1,1
-0.0005275843,-8.489166e-06,1,1
-0.0005587008,-1.286493e-05,1,1
-0.0005804176,-3.328516e-05,1,1
-0.0005826865,-6.213279e-05,1,1
-0.0005702075,-8.611845e-05,1,1
-0.0005656697,-9.713889e-05,1,1
-0.0005956517,-9.454585e-05,1,1
-0.0006739292,-8.514606e-05,1,1
-0.0007846198,-7.639453e-05,1,1
-0.0008930415,-7.007399e-05,1,1
-0.0009612711,-6.81292e-05,1,1
-0.0009701846,-7.428769e-05,1,1
-0.0009167031,-9.081835e-05,1,1
-0.0008052022,-0.0001110765,1,1
-0.0006491333,-0.0001323071,1,1
-0.0004728062,-0.0001506204,1,1
-0.000310903,-0.0001690959,1,1
-0.0001956746,-0.0001924333,1,1
-0.0001379794,-0.0002219292,1,1
-0.0001280934,-0.0002520733,1,1
-0.0001546721,-0.0002767073,1,1
-0.0002125294,-0.0002945344,1,1
-0.0002993964,-0.0003052308,1,1
-0.0004087905,-0.0003073376,1,1
-0.0005298533,-0.0002998826,1,1
-0.0006489712,-0.0002843243,1,1
-0.0007531792,-0.0002621213,1,1
-0.0008342119,-0.0002345703,1,1
-0.0008829935,-0.0002078295,1,1
-0.0008909347,-0.000184168,1,1
-0.0008513908,-0.0001616409,1,1
-0.000762579,-0.0001323071,1,1
-0.0006303337,-9.081835e-05,1,1
-0.0004690787,-4.009191e-05,1,1
-0.0002927517,5.286387e-06,1,1
-0.0001169109,2.959619e-05,1,1
5.179914e-05,2.522042e-05,1,1
0.0002154851,-1.520357e-06,1,1
0.0003634508,-3.458168e-05,1,1
0.0004731691,-6.245691e-05,1,1
0.0005217887,-7.752899e-05,1,1
0.0004901859,-7.380149e-05,1,1
0.0003790091,-5.127441e-05,1,1
0.0002111094,-1.691656e-05,1,1
2.441009e-05,2.278944e-05,1,1
-0.0001381414,5.536457e-05,1,1
-0.0002459149,7.140904e-05,1,1
-0.0002851347,7.384002e-05,1,1
-0.0002648765,8.275361e-05,1,1
-0.0002010227,0.0001242423,1,1
-0.0001057284,0.0002106232,1,1
9.986281e-06,0.0003402755,1,1
0.0001145184,0.0004919686,1,1
0.0001707551,0.0006302104,1,1
0.0001623277,0.0007186982,1,1
0.000113384,0.0007360392,1,1
7.643307e-05,0.0006833679,1,1
0.0001067393,0.0005815908,1,1
0.0002352571,0.0004653899,1,1
0.000455666,0.0003647473,1,1
0.0007209671,0.000297004,1,1
0.0009499656,0.0002587566,1,1
0.001075404,0.0002352571,1,1
0.001075404,0.0002132162,1,1
0.0009760582,0.0001871237,1,1
0.0008227442,0.0001598967,1,1
0.0006558168,0.0001365593,1,1
0.00051012,0.000121001,1,1
0.0004120704,0.0001174356,1,1
0.0003733368,0.0001269974,1,1
0.0003762539,0.0001436902,1,1
0.0003968363,0.0001564933,1,1
0.0004222805,0.0001553589,1,1
0.0004414042,0.000140773,1,1
0.0004427008,0.000118408,1,1
0.0004305459,9.150514e-05,1,1
0.0004211461,6.087479e-05,1,1
0.0004313562,2.732727e-05,1,1
0.0004665244,-6.382317e-06,1,1
0.0005143337,-3.458168e-05,1,1
0.0005490156,-5.192267e-05,1,1
0.0005478812,-6.099833e-05,1,1
0.0005096338,-7.023606e-05,1,1
0.0004527488,-8.40116e-05,1,1
0.0004206599,-0.0001045939,1,1
0.0004650658,-0.0001306864,1,1
0.0006169211,-0.0001596961,1,1
0.0008700673,-0.0001853024,1,1
0.001184474,-0.0002039399,1,1
0.001495965,-0.0002182017,1,1
0.001732256,-0.0002306807,1,1
0.001838734,-0.0002478596,1,1
0.001780876,-0.0002697385,1,1
0.001563384,-0.0002882139,1,1
0.001237632,-0.0002980999,1,1
0.0008843291,-0.0002966413,1,1
0.0005812666,-0.0002844864,1,1
0.0003850055,-0.0002632558,1,1
0.000316938,-0.0002316531,1,1
0.0003616681,-0.0001848162,1,1
0.0004768966,-0.0001242038,1,1
0.0006015248,-6.521203e-05,1,1
0.000681261,-2.275091e-05,1,1
0.0006819093,5.286387e-06,1,1
0.000591801,2.781346e-05,1,1
0.0004217943,5.293359e-05,1,1
0.0002057612,7.983644e-05,1,1
-1.853722e-05,9.717743e-05,1,1
-0.0002212809,9.458438e-05,1,1
-0.0003922598,6.930219e-05,1,1
-0.0005408737,2.700314e-05,1,1
-0.0006810602,-1.821308e-05,1,1
-0.0008193018,-5.2733e-05,1,1
-0.0009520333,-6.780507e-05,1,1
-0.001066451,-6.618442e-05,1,1
-0.001150563,-5.435365e-05,1,1
-0.00120291,-3.879538e-05,1,1
-0.001235648,-2.129233e-05,1,1
-0.001261578,-5.085794e-06,1,1
-0.001283943,4.47606e-06,1,1
-0.001299988,7.23117e-06,1,1
-0.001303715,9.500085e-06,1,1
-0.001283133,1.841368e-05,1,1
-0.001226248,3.494434e-05,1,1
-0.001139057,5.552663e-05,1,1
-0.001039711,7.367795e-05,1,1
-0.0009513851,8.680524e-05,1,1
-0.0008852624,9.182927e-05,1,1
-0.0008405324,9.037068e-05,1,1
-0.0008129813,8.729144e-05,1,1
-0.0007941817,8.04847e-05,1,1
-0.0007718167,7.027458e-05,1,1
-0.0007340555,5.828175e-05,1,1
-0.0006721465,4.515445e-05,1,1
-0.0005959758,3.073064e-05,1,1
-0.0005300153,1.371378e-05,1,1
-0.0004930644,-3.465141e-06,1,1
-0.0004869059,-1.659243e-05,1,1
-0.0005010056,-2.194059e-05,1,1
-0.0005236948,-1.805102e-05,1,1
-0.0005504355,-1.108221e-05,1,1
-0.0005757177,2.623614e-07,1,1
-0.0005924104,2.376183e-05,1,1
-0.0005951655,6.46023e-05,1,1
-0.0005796073,0.0001188942,1,1
-0.0005462218,0.0001791825,1,1
-0.000501978,0.0002354192,1,1
-0.0004606514,0.0002754493,1,1
-0.0004332623,0.0002934386,1,1
-0.0004253211,0.000284525,1,1
-0.0004339106,0.0002491947,1,1
-0.0004494688,0.0001987924,1,1
-0.0004630823,0.0001472556,1,1
-0.0004737787,0.0001049566,1,1
-0.0004794509,7.270556e-05,1,1
-0.0004627582,4.985435e-05,1,1
-0.0004024699,3.332369e-05,1,1
-0.0002854588,1.614476e-05,1,1
-0.0001138316,-5.734056e-06,1,1
8.502253e-05,-2.988179e-05,1,1
0.0002709115,-5.176061e-05,1,1
0.0004062361,-6.650855e-05,1,1
0.0004704139,-7.104638e-05,1,1
0.0004632831,-6.829127e-05,1,1
0.0004078567,-6.261898e-05,1,1
0.0003313618,-5.791909e-05,1,1
0.0002566497,-5.727083e-05,1,1
0.0001919856,-6.083626e-05,1,1
0.0001435281,-6.958779e-05,1,1
0.0001167873,-8.239095e-05,1,1
0.0001153287,-9.811128e-05,1,1
0.0001399627,-0.0001125351,1,1
0.0001880961,-0.0001238797,1,1
0.0002626462,-0.0001313347,1,1
0.0003605336,-0.000132145,1,1
0.000463121,-0.0001261486,1,1
0.0005501501,-0.0001131834,1,1
0.0006120591,-9.130454e-05,1,1
0.0006496583,-6.407757e-05,1,1
0.0006648925,-3.668853e-05,1,1
0.0006603546,-1.513384e-05,1,1
0.0006433378,-1.844488e-06,1,1
0.0006238899,2.04508e-06,1,1
0.0006115729,1.234753e-06,1,1
0.0006110868,1.396819e-06,1,1
0.0006305345,-3.858999e-07,1,1
0.0006793162,-7.516774e-06,1,1
0.0007538663,-1.837515e-05,1,1
0.0008389507,-2.647842e-05,1,1
0.0009159319,-2.923353e-05,1,1
0.0009613102,-2.437157e-05,1,1
0.0009493173,-1.62683e-05,1,1
0.0008630985,-9.461558e-06,1,1
0.0007120535,-9.623623e-06,1,1
0.0005224369,-1.432352e-05,1,1
0.0003264999,-2.031993e-05,1,1
0.0001566554,-2.615429e-05,1,1
3.55926e-05,-3.198864e-05,1,1
-2.777494e-05,-3.377136e-05,1,1
-5.078821e-05,-3.053005e-05,1,1
-5.937768e-05,-2.404744e-05,1,1
-7.60704e-05,-1.805102e-05,1,1
-0.0001031353,-1.092015e-05,1,1
-0.0001266348,1.234753e-06,1,1
-0.0001305243,1.744129e-05,1,1
-0.00010978,3.510641e-05,1,1
-6.764301e-05,5.293359e-05,1,1
-1.610624e-05,7.254349e-05,1,1
1.825161e-05,8.907416e-05,1,1
9.013889e-06,9.798775e-05,1,1
-5.808115e-05,0.0001007429,1,1
-0.0001755785,0.000103498,1,1
-0.0003259751,0.0001150046,1,1
-0.0004847991,0.0001365593,1,1
-0.0006264441,0.0001634622,1,1
-0.0007300039,0.0001838824,1,1
-0.0008056884,0.0001897167,1,1
-0.0008761868,0.0001803169,1,1
-0.0009398784,0.0001569795,1,1
-0.0009693743,0.0001218114,1,1
-0.0009358267,8.064677e-05,1,1
-0.0008267568,4.175109e-05,1,1
-0.0006554538,1.387585e-05,1,1
-0.0004437966,3.017472e-06,1,1
-0.0002049123,9.013889e-06,1,1
5.633696e-05,2.927205e-05,1,1
0.0003498373,5.163707e-05,1,1
0.0006768853,6.703327e-05,1,1
0.001016412,7.286763e-05,1,1
0.001334547,7.173317e-05,1,1
0.00160309,6.962632e-05,1,1
0.001806645,6.606088e-05,1,1
0.001943104,5.309566e-05,1,1
0.002030296,2.910999e-05,1,1
0.002091719,6.258778e-06,1,1
0.002148117,1.883015e-06,1,1
0.00222364,2.586868e-05,1,1
0.002353131,7.011252e-05,1,1
0.002549879,0.0001122495,1,1
0.0027711,0.0001334801,1,1
0.002930087,0.0001310491,1,1
0.002937056,0.0001198666,1,1
0.002739335,0.000120839,1,1
0.002343245,0.0001443384,1,1
0.001805996,0.000175455,1,1
0.001210567,0.0001898788,1,1
0.0006332897,0.0001746447,1,1
0.0001271595,0.0001318594,1,1
-0.0002773555,7.57848e-05,1,1
-0.000578959,2.538249e-05,1,1
-0.0007990437,-1.092015e-05,1,1
-0.0009701846,-3.668853e-05,1,1
-0.001114099,-5.808115e-05,1,1
-0.001229165,-7.769106e-05,1,1
-0.001300474,-9.811128e-05,1,1
-0.00131749,-0.0001214487,1,1
-0.001287022,-0.0001421931,1,1
-0.001231596,-0.0001551583,1,1
-0.001178276,-0.0001600202,1,1
-0.001146025,-0.0001600202,1,1
-0.001141812,-0.0001574272,1,1
-0.001158018,-0.0001556445,1,1
-0.00117698,-0.000156941,1,1
-0.001182814,-0.0001616409,1,1
-0.001170497,-0.0001673132,1,1
-0.001146187,-0.0001695821,1,1
-0.001116043,-0.0001660166,1,1
-0.001091734,-0.0001592099,1,1
-0.001082982,-0.0001504584,1,1
-0.001097892,-0.000137169,1,1
-0.001136626,-0.0001217728,1,1
-0.001188487,-0.000107349,1,1
-0.001238241,-9.29252e-05,1,1
-0.001271302,-7.882551e-05,1,1
-0.001281512,-6.861539e-05,1,1
-0.001266116,-6.472583e-05,1,1
-0.0012209,-6.342931e-05,1,1
-0.001146998,-5.629844e-05,1,1
-0.001057538,-3.522994e-05,1,1
-0.0009645124,3.341602e-06,1,1
-0.000879104,5.277153e-05,1,1
-0.0008026091,0.0001012291,1,1
-0.0007314624,0.000138342,1,1
-0.0006619364,0.0001560072,1,1
-0.0005993792,0.0001522796,1,1
-0.0005530285,0.0001287802,1,1
-0.0005223983,9.490851e-05,1,1
-0.0005006815,6.589881e-05,1,1
-0.0004804233,5.358185e-05,1,1
-0.0004627582,6.006447e-05,1,1
-0.0004517378,7.562274e-05,1,1
-0.0004471999,9.085688e-05,1,1
-0.0004356933,0.0001025256,1,1
-0.0003993907,0.0001101427,1,1
-0.0003387782,0.000113546,1,1
-0.0002705488,0.000113384,1,1
-0.0002135018,0.0001094944,1,1
-0.000174282,0.0001020394,1,1
-0.0001483515,9.523264e-05,1,1
-0.0001287416,9.442231e-05,1,1
-0.0001149661,0.000103498,1,1
-0.0001065387,0.0001195424,1,1
-0.0001010285,0.0001363972,1,1
-9.422172e-05,0.0001459591,1,1
-9.049421e-05,0.000143204,1,1
-9.422172e-05,0.0001242423,1,1
-0.0001071869,9.733949e-05,1,1
-0.0001284175,7.870197e-05,1,1
-0.0001452723,8.04847e-05,1,1
-0.0001441378,9.960841e-05,1,1
-0.0001217728,0.0001229458,1,1
-8.384954e-05,0.0001365593,1,1
-4.187462e-05,0.0001325077,1,1
-1.844488e-06,0.0001069013,1,1
3.429608e-05,6.670914e-05,1,1
6.719535e-05,1.97102e-05,1,1
9.101894e-05,-2.42095e-05,1,1
0.0001022015,-5.743289e-05,1,1
9.977047e-05,-7.769106e-05,1,1
8.988449e-05,-8.595638e-05,1,1
8.729144e-05,-8.709085e-05,1,1
0.0001047945,-8.547019e-05,1,1
0.0001454729,-8.611845e-05,1,1
0.0002055991,-9.276313e-05,1,1
0.0002780424,-0.0001081593,1,1
0.0003561579,-0.0001266348,1,1
0.0004247115,-0.0001379794,1,1
0.0004652279,-0.0001290658,1,1
0.0004652279,-0.0001008664,1,1
0.0004276287,-6.634648e-05,1,1
0.0003660439,-4.187462e-05,1,1
0.0002992729,-3.539201e-05,1,1
0.0002367157,-4.787104e-05,1,1
0.0001788584,-7.380149e-05,1,1
0.0001321835,-0.000104756,1,1
0.0001128978,-0.0001326312,1,1
0.0001294284,-0.0001486757,1,1
0.0001741585,-0.0001431655,1,1
0.0002235884,-0.0001083214,1,1
0.0002555152,-4.80331e-05,1,1
0.0002610255,2.100672e-05,1,1
0.0002516257,7.67572e-05,1,1
0.0002504913,0.0001103047,1,1
0.0002723701,0.0001252147,1,1
0.0003277964,0.0001304008,1,1
0.0004172565,0.0001321835,1,1
0.0005290816,0.0001318594,1,1
0.0006415551,0.0001273216,1,1
0.0007399287,0.0001119254,1,1
0.00081221,8.129502e-05,1,1
0.000849485,3.802358e-05,1,1
0.0008430023,-9.299493e-06,1,1
0.0007955172,-5.386745e-05,1,1
0.0007329599,-8.935975e-05,1,1
0.0006937401,-0.0001164247,1,1
0.0007164293,-0.0001378173,1,1
0.0008219338,-0.0001562927,1,1
0.0009993956,-0.0001726613,1,1
0.001209108,-0.0001864369,1,1
0.001394673,-0.0001956746,1,1
0.001506013,-0.000191785,1,1
0.001514926,-0.0001674752,1,1
0.00141947,-0.0001185315,1,1
0.001236822,-4.80331e-05,1,1
0.0009972887,3.056858e-05,1,1
0.0007374978,9.912221e-05,1,1
0.0004940755,0.0001440143,1,1
0.0002936006,0.0001603829,1,1
0.0001535762,0.0001543865,1,1
8.875003e-05,0.0001352628,1,1
9.928428e-05,0.0001127357,1,1
0.0001647587,9.361199e-05,1,1
0.0002384984,8.113296e-05,1,1
0.0002713977,7.983644e-05,1,1
0.0002363916,8.84259e-05,1,1
0.0001304008,0.000101067,1,1
-2.566809e-05,0.0001075496,1,1
-0.0001901644,0.0001039842,1,1
-0.0003243544,9.004655e-05,1,1
-0.000415111,7.497447e-05,1,1
-0.0004729683,6.46023e-05,1,1
-0.0005183466,6.298164e-05,1,1
-0.0005640491,6.946425e-05,1,1
-0.0006047274,8.113296e-05,1,1
-0.0006217443,9.474644e-05,1,1
-0.0006024585,0.0001090082,1,1
-0.0005561078,0.0001190562,1,1
-0.0005099192,0.0001200286,1,1
-0.0004789647,0.0001098185,1,1
-0.0004538446,9.085688e-05,1,1
-0.000410087,6.962632e-05,1,1
-0.0003423437,4.888196e-05,1,1
-0.000261149,3.105477e-05,1,1
-0.0001705545,1.582063e-05,1,1
-6.051213e-05,1.558884e-06,1,1
7.999851e-05,-1.399939e-05,1,1
0.0002485465,-3.247483e-05,1,1
0.0004206599,-5.143648e-05,1,1
0.0005657084,-6.213279e-05,1,1
0.0006618132,-5.289507e-05,1,1
0.0007016813,-2.194059e-05,1,1
0.0006906608,1.744129e-05,1,1
0.0006418792,5.212327e-05,1,1
0.0005775391,7.319176e-05,1,1
0.0005200059,8.161915e-05,1,1
0.0004790034,8.226741e-05,1,1
0.0004464283,7.67572e-05,1,1
0.0004065602,6.346784e-05,1,1
0.0003433547,4.158902e-05,1,1
0.0002467637,1.387585e-05,1,1
0.0001143563,-1.351319e-05,1,1
-4.608832e-05,-3.117831e-05,1,1
-0.0002287359,-3.344723e-05,1,1
-0.0004146248,-2.113026e-05,1,1
-0.0005729626,-4.761664e-06,1,1
-0.0006719845,6.258778e-06,1,1
-0.0006992114,7.23117e-06,1,1
-0.00067085,-1.682422e-06,1,1
-0.0006233649,-1.318906e-05,1,1
-0.0005963,-2.113026e-05,1,1
-0.0006027826,-1.902341e-05,1,1
-0.0006280648,-5.734056e-06,1,1
-0.0006538332,7.393236e-06,1,1
-0.0006703638,1.112074e-05,1,1
-0.0006698776,3.989864e-06,1,1
-0.0006541573,-9.623623e-06,1,1
-0.0006256338,-2.080613e-05,1,1
-0.000586414,-1.805102e-05,1,1
-0.0005296912,4.962256e-06,1,1
-0.0004489826,4.304761e-05,1,1
-0.0003462333,7.983644e-05,1,1
-0.0002337599,9.717743e-05,1,1
-0.0001259865,8.923623e-05,1,1
-3.26369e-05,6.184718e-05,1,1
3.964424e-05,2.797553e-05,1,1
9.085688e-05,1.002961e-07,1,1
0.0001255389,-1.351319e-05,1,1
0.0001415833,-1.497178e-05,1,1
0.0001316974,-8.813297e-06,1,1
9.458438e-05,1.396819e-06,1,1
3.640293e-05,1.063454e-05,1,1
-2.664048e-05,1.9224e-05,1,1
-7.218083e-05,3.024445e-05,1,1
-9.098041e-05,4.256141e-05,1,1
-0.0001039456,5.974033e-05,1,1
-0.0001433275,8.323981e-05,1,1
-0.0002298704,0.0001138702,1,1
-0.0003544986,0.0001498487,1,1
-0.0004899852,0.0001856651,1,1
-0.0006084549,0.0002159713,1,1
-0.0006988873,0.000234933,1,1
-0.0007633893,0.0002357433,1,1
-0.0007946679,0.00021273,1,1
-0.0007857543,0.0001696206,1,1
-0.000742969,0.0001120874,1,1
-0.0006779809,5.455425e-05,1,1
-0.0006018102,1.371378e-05,1,1
-0.0005189948,4.151929e-06,1,1
-0.0004298589,2.635488e-05,1,1
-0.0003368335,6.346784e-05,1,1
-0.0002426735,9.053275e-05,1,1
-0.0001512687,8.826383e-05,1,1
-7.574627e-05,5.179914e-05,1,1
-2.615429e-05,-6.868513e-06,1,1
2.04508e-06,-6.796714e-05,1,1
2.619281e-05,-0.0001060525,1,1
6.022653e-05,-0.0001057284,1,1
0.0001056048,-7.380149e-05,1,1
0.0001542244,-3.312309e-05,1,1
0.0001934442,-1.043395e-05,1,1
0.0002132162,-1.497178e-05,1,1
0.0002120818,-3.863332e-05,1,1
0.0001966855,-6.326724e-05,1,1
0.0001816135,-7.396356e-05,1,1
0.000168162,-6.537409e-05,1,1
0.000133318,-4.398147e-05,1,1
5.034055e-05,-2.728874e-05,1,1
-7.947377e-05,-2.907146e-05,1,1
-0.0002243602,-5.127441e-05,1,1
-0.0003465574,-8.547019e-05,1,1
-0.0004288866,-0.0001133454,1,1
-0.0004755614,-0.0001219349,1,1
-0.0005035987,-0.0001117248,1,1
-0.0005219121,-9.146661e-05,1,1
-0.0005214258,-7.542214e-05,1,1
-0.0004828543,-7.153257e-05,1,1
-0.0003987424,-7.866345e-05,1,1
-0.0002812451,-9.081835e-05,1,1
-0.0001588858,-9.827335e-05,1,1
-6.893953e-05,-9.616651e-05,1,1
-3.26369e-05,-9.000802e-05,1,1
-4.041603e-05,-8.465986e-05,1,1
-6.051213e-05,-8.40116e-05,1,1
-6.893953e-05,-9.114248e-05,1,1
-6.310517e-05,-0.0001060525,1,1
-4.884343e-05,-0.0001233935,1,1
-2.534396e-05,-0.0001379794,1,1
1.517237e-05,-0.0001493239,1,1
7.497447e-05,-0.0001616409,1,1
0.0001521176,-0.0001752544,1,1
0.0002401191,-0.0001853024,1,1
0.0003358997,-0.0001835197,1,1
0.0004323286,-0.000166989,1,1
0.0005206542,-0.0001387897,1,1
0.0005929354,-0.000107349,1,1
0.0006452826,-8.093236e-05,1,1
0.000681099,-6.569822e-05,1,1
0.0007102708,-6.099833e-05,1,1
0.0007501388,-5.872941e-05,1,1
0.0008143168,-4.365734e-05,1,1
0.0009032908,-2.006553e-06,1,1
0.001013982,7.286763e-05,1,1
0.001149144,0.0001657311,1,1
0.001313803,0.0002475741,1,1
0.001503095,0.0002940868,1,1
0.001691254,0.0002984626,1,1
0.001828362,0.0002704253,1,1
0.001863044,0.000230071,1,1
0.001773583,0.0001937684,1,1
0.001573918,0.0001673517,1,1
0.001301972,0.0001517934,1,1
0.001001827,0.000145797,1,1
0.000713188,0.0001464453,1,1
0.0004694416,0.0001459591,1,1
0.0002856594,0.00013818,1,1
0.0001542244,0.000121001,1,1
5.828175e-05,9.863601e-05,1,1
-1.99958e-05,7.708133e-05,1,1
-9.470791e-05,6.281957e-05,1,1
-0.0001739578,6.022653e-05,1,1
-0.000263742,6.735741e-05,1,1
-0.0003648708,7.448828e-05,1,1
-0.0004718339,7.497447e-05,1,1
-0.0005682627,6.800567e-05,1,1
-0.0006382749,5.325772e-05,1,1
-0.0006870566,3.834771e-05,1,1
-0.0007432932,3.721326e-05,1,1
-0.0008392359,6.055066e-05,1,1
-0.0009825015,0.0001080358,1,1
-0.001149753,0.0001715654,1,1
-0.001298043,0.0002312055,1,1
-0.001389772,0.000267346,1,1
-0.001406302,0.0002736666,1,1
-0.001353469,0.000259729,1,1
-0.001252178,0.000242388,1,1
-0.00112366,0.000230071,1,1
-0.0009870394,0.0002222919,1,1
-0.0008492839,0.0002138645,1,1
-0.0007061802,0.0001991165,1,1
-0.0005543251,0.0001759412,1,1
-0.000397608,0.0001423936,1,1
-0.0002423494,0.0001004187,1,1
-9.065628e-05,5.666109e-05,1,1
6.200925e-05,1.9224e-05,1,1
0.0002443328,-1.075808e-05,1,1
0.0004976409,-3.425755e-05,1,1
0.0008433265,-5.030202e-05,1,1
0.001248328,-5.727083e-05,1,1
0.00163842,-5.937768e-05,1,1
0.001930301,-6.035007e-05,1,1
0.00206044,-6.051213e-05,1,1
0.002017816,-5.775702e-05,1,1
0.001846513,-5.516398e-05,1,1
0.00161881,-5.32192e-05,1,1
0.001407315,-5.257093e-05,1,1
0.001245573,-5.240886e-05,1,1
0.001116083,-5.402952e-05,1,1
0.0009640653,-5.937768e-05,1,1
0.0007472217,-7.088431e-05,1,1
0.0004624728,-9.017008e-05,1,1
0.0001461212,-0.0001141558,1,1
-0.0001511067,-0.0001394379,1,1
-0.0003917736,-0.0001660166,1,1
-0.0005629146,-0.0001921092,1,1
-0.0006711741,-0.000216581,1,1
-0.0007369727,-0.0002340841,1,1
-0.0007757063,-0.0002418632,1,1
-0.0007936955,-0.000238784,1,1
-0.0007907783,-0.000224036,1,1
-0.0007708443,-0.0001994021,1,1
-0.0007496137,-0.000169258,1,1
-0.0007460483,-0.0001386276,1,1
-0.0007718167,-0.0001101041,1,1
-0.000819626,-8.660465e-05,1,1
-0.0008700282,-6.618442e-05,1,1
-0.0008946622,-4.722278e-05,1,1
-0.0008637077,-3.198864e-05,1,1
-0.0007603101,-2.145439e-05,1,1
-0.0005906277,-1.610624e-05,1,1
-0.0003864254,-1.545797e-05,1,1
-0.0001788198,-2.064406e-05,1,1
1.112074e-05,-2.826114e-05,1,1
0.0001793446,-3.522994e-05,1,1
0.0003218,-3.879538e-05,1,1
0.0004334631,-4.05781e-05,1,1
0.0005067165,-4.333321e-05,1,1
0.0005323229,-4.868137e-05,1,1
0.0004995857,-5.176061e-05,1,1
0.0004028327,-4.949169e-05,1,1
0.0002466017,-4.074016e-05,1,1
5.585077e-05,-2.0482e-05,1,1
-0.0001308485,1.338965e-05,1,1
-0.0002746004,5.730935e-05,1,1
-0.0003522297,0.0001018773,1,1
-0.0003622777,0.0001354248,1,1
-0.0003275957,0.0001535762,1,1
-0.0002943724,0.0001582761,1,1
-0.0003018274,0.0001492004,1,1
-0.0003634122,0.0001328318,1,1
-0.0004653512,0.0001164632,1,1
-0.0005818762,0.0001047945,1,1
-0.0006799257,0.0001004187,1,1
-0.0007334072,0.0001030118,1,1
-0.0007382692,0.0001112771,1,1
-0.0007050458,0.0001201907,1,1
-0.0006436231,0.0001247285,1,1
-0.0005648594,0.0001200286,1,1
-0.0004762096,0.0001088461,1,1
-0.0003888564,9.63671e-05,1,1
-0.0003143064,9.053275e-05,1,1
-0.0002603387,9.571884e-05,1,1
-0.0002357047,0.0001093323,1,1
-0.0002404046,0.000123432,1,1
-0.0002664971,0.0001268354,1,1
-0.0002974516,0.0001179218,1,1
-0.0003209511,0.000101067,1,1
-0.0003321336,8.080883e-05,1,1
-0.0003337542,5.876794e-05,1,1
-0.0003344025,3.364782e-05,1,1
-0.0003391024,7.23117e-06,1,1
-0.000345585,-1.432352e-05,1,1
-0.0003463953,-2.583016e-05,1,1
-0.0003327818,-2.615429e-05,1,1
-0.0003036101,-1.805102e-05,1,1
-0.0002639041,-7.192643e-06,1,1
-0.0002186879,-2.492749e-06,1,1
-0.0001788198,-1.20546e-05,1,1
-0.0001535376,-3.668853e-05,1,1
-0.0001442999,-7.169464e-05,1,1
-0.0001339277,-0.0001083214,1,1
-9.568031e-05,-0.0001292278,1,1
-5.247859e-06,-0.0001214487,1,1
0.0001349386,-8.222889e-05,1,1
0.0003007315,-2.566809e-05,1,1
0.0004634451,2.424803e-05,1,1
0.0006050903,4.985435e-05,1,1
0.0007169155,4.272347e-05,1,1
0.0008005413,9.013889e-06,1,1
0.0008695811,-3.555408e-05,1,1
0.0009404037,-7.704279e-05,1,1
0.001014468,-0.0001078352,1,1
0.001081887,-0.0001201522,1,1
0.001125159,-0.0001146419,1,1
0.001133262,-0.0001005423,1,1
0.001115597,-8.465986e-05,1,1
0.001092097,-7.072225e-05,1,1
0.001068598,-6.0188e-05,1,1
0.001028567,-5.59743e-05,1,1
0.0009476967,-5.678463e-05,1,1
0.0008131823,-5.791909e-05,1,1
0.0006339379,-5.402952e-05,1,1
0.0004316803,-4.414354e-05,1,1
0.0002287745,-3.117831e-05,1,1
4.142696e-05,-1.578211e-05,1,1
-0.0001141558,-2.238346e-07,1,1
-0.0002173914,1.64689e-05,1,1
-0.0002504527,3.364782e-05,1,1
-0.0002086398,5.1475e-05,1,1
-0.0001146419,6.670914e-05,1,1
-5.247859e-06,8.113296e-05,1,1
8.567078e-05,9.377406e-05,1,1
0.0001388282,0.000103498,1,1
0.0001417454,0.0001086841,1,1
9.766362e-05,0.0001093323,1,1
2.34377e-05,0.0001023635,1,1
-5.743289e-05,8.923623e-05,1,1
-0.0001266348,7.20573e-05,1,1
-0.0001835197,5.325772e-05,1,1
-0.0002272773,3.688912e-05,1,1
-0.0002501286,2.81376e-05,1,1
-0.0002454286,2.829966e-05,1,1
-0.000219012,3.235129e-05,1,1
-0.0001878955,4.061663e-05,1,1
-0.0001682856,5.957827e-05,1,1
-0.0001754164,9.118101e-05,1,1
-0.0002175534,0.0001266733,1,1
-0.0002814071,0.0001590864,1,1
-0.0003460712,0.000180479,1,1
-0.0003959873,0.000187934,1,1
-0.0004191627,0.0001882582,1,1
-0.0004188385,0.0001867996,1,1
-0.0004039285,0.0001863134,1,1
-0.0003822118,0.0001850168,1,1
-0.000353202,0.0001832341,1,1
-0.0003084721,0.0001808031,1,1
-0.0002423494,0.0001743205,1,1
-0.0001590478,0.0001637863,1,1
-7.785312e-05,0.0001529279,1,1
-2.113026e-05,0.0001462832,1,1
3.017472e-06,0.0001438522,1,1
1.234753e-06,0.0001425557,1,1
-5.085794e-06,0.0001398006,1,1
1.306552e-05,0.0001352628,1,1
7.497447e-05,0.0001240803,1,1
0.0001808031,0.0001041462,1,1
0.0003209897,7.821578e-05,1,1
0.0004794896,5.406805e-05,1,1
0.0006530617,3.802358e-05,1,1
0.000834737,2.76514e-05,1,1
0.001004582,2.230325e-05,1,1
0.001131965,2.052053e-05,1,1
0.00119825,2.295151e-05,1,1
0.001206839,2.295151e-05,1,1
0.00118253,1.468618e-05,1,1
0.0011425,-8.002969e-06,1,1
0.00108999,-4.122636e-05,1,1
0.001025164,-7.477388e-05,1,1
0.000948669,-9.908367e-05,1,1
0.000859371,-0.0001086455,1,1
0.0007436562,-0.0001041077,1,1
0.0005804563,-9.730096e-05,1,1
0.000363937,-0.0001020008,1,1
0.0001080358,-0.0001224211,1,1
-0.0001567789,-0.0001530514,1,1
-0.0003929081,-0.0001812508,1,1
-0.0005802555,-0.0001979435,1,1
-0.0007108802,-0.000201671,1,1
-0.0008024471,-0.00019924,1,1
-0.0008789418,-0.0001953505,1,1
-0.0009607848,-0.0001921092,1,1
-0.001052676,-0.0001901644,1,1
-0.001144891,-0.0001898403,1,1
-0.001219441,-0.0001880575,1,1
-0.001255906,-0.000181737,1,1
-0.001239051,-0.0001702304,1,1
-0.00117147,-0.0001571031,1,1
-0.001069044,-0.000142031,1,1
-0.0009510609,-0.0001284175,1,1
-0.0008377773,-0.000119828,1,1
-0.0007389174,-0.0001178833,1,1
-0.0006548056,-0.0001224211,1,1
-0.0005810658,-0.0001316588,1,1
-0.0005126743,-0.000144624,1,1
-0.000452224,-0.0001590478,1,1
-0.0003992286,-0.0001655305,1,1
-0.000343154,-0.00015451,1,1
-0.0002630937,-0.0001255003,1,1
-0.0001515928,-8.692878e-05,1,1
-2.583016e-05,-5.192267e-05,1,1
9.231547e-05,-2.404744e-05,1,1
0.000192796,2.531276e-06,1,1
0.0002806354,3.526847e-05,1,1
0.0003793332,8.194328e-05,1,1
0.0005167646,0.0001446626,1,1
0.0007026537,0.0002206712,1,1
0.0009159319,0.0003021901,1,1
0.001115597,0.0003710679,1,1
0.001254487,0.0004057499,1,1
0.001288845,0.0003926226,1,1
0.001204571,0.0003358997,1,1
0.001026785,0.000254867,1,1
0.0008071859,0.0001718896,1,1
0.0005989318,0.0001054428,1,1
0.0004337872,6.136099e-05,1,1
0.0003175863,3.705119e-05,1,1
0.0002334744,2.246531e-05,1,1
0.0001620036,1.160693e-05,1,1
9.101894e-05,1.558884e-06,1,1
1.987227e-05,-4.437533e-06,1,1
-4.317115e-05,-2.492749e-06,1,1
-8.465986e-05,1.112074e-05,1,1
-9.940781e-05,3.040651e-05,1,1
-9.762509e-05,4.855783e-05,1,1
-9.584238e-05,6.330578e-05,1,1
-0.0001058904,7.935024e-05,1,1
-0.0001332795,0.0001031738,1,1
-0.000174282,0.000133318,1,1
-0.0002230636,0.000160707,1,1
-0.0002773555,0.0001811273,1,1
-0.0003347266,0.0001945787,1,1
-0.0003946908,0.0002067336,1,1
-0.0004538446,0.0002190506,1,1
-0.0005048952,0.0002247229,1,1
-0.0005405495,0.000210299,1,1
-0.0005634008,0.0001725378,1,1
-0.000583821,0.0001197045,1,1
-0.000603593,6.379197e-05,1,1
-0.0006189891,1.322759e-05,1,1
-0.0006232028,-3.231277e-05,1,1
-0.0006105618,-7.072225e-05,1,1
-0.0005851175,-9.616651e-05,1,1
-0.0005544871,-0.0001039456,1,1
-0.0005236948,-9.908367e-05,1,1
-0.0005008436,-8.871149e-05,1,1
-0.0004906334,-8.012204e-05,1,1
-0.0004919299,-7.833932e-05,1,1
-0.0005008436,-7.363943e-05,1,1
-0.0005061917,-4.544006e-05,1,1
-0.0004959816,1.403791e-05,1,1
-0.0004648651,8.664318e-05,1,1
-0.0004155972,0.0001404489,1,1
-0.0003566054,0.0001513072,1,1
-0.0003037722,0.0001154908,1,1
-0.0002776796,5.374392e-05,1,1
-0.0002942103,-7.516774e-06,1,1
-0.0003553089,-5.111234e-05,1,1
-0.0004387725,-7.153257e-05,1,1
-0.0005061917,-7.363943e-05,1,1
-0.000524343,-6.958779e-05,1,1
-0.0004823681,-6.602235e-05,1,1
-0.000392746,-6.456377e-05,1,1
-0.0002807589,-5.970181e-05,1,1
-0.0001712027,-5.548811e-05,1,1
-6.942573e-05,-6.164659e-05,1,1
3.478228e-05,-8.07703e-05,1,1
0.0001519555,-0.000104756,1,1
0.0002795009,-0.0001242038,1,1
0.0004106118,-0.0001327933,1,1
0.0005430193,-0.0001318209,1,1
0.0006708889,-0.0001258245,1,1
0.0007817416,-0.0001161005,1,1
0.0008588848,-0.0001039456,1,1
0.0008947013,-9.098041e-05,1,1
0.0008917841,-7.688073e-05,1,1
0.0008606675,-5.629844e-05,1,1
0.0008112376,-3.26369e-05,1,1
0.0007574318,-1.367526e-05,1,1
0.0007057329,-4.599598e-06,1,1
0.000656465,-2.330684e-06,1,1
0.0006106006,-4.275467e-06,1,1
0.0005765668,-2.978945e-06,1,1
0.0005738117,3.665733e-06,1,1
0.000609304,1.468618e-05,1,1
0.0006669993,2.797553e-05,1,1
0.0007110811,4.061663e-05,1,1
0.0007005468,5.179914e-05,1,1
0.000616759,5.99024e-05,1,1
0.0004723587,6.200925e-05,1,1
0.0003062417,5.504044e-05,1,1
0.0001587623,4.369587e-05,1,1
5.390598e-05,3.154097e-05,1,1
-1.092015e-05,2.684107e-05,1,1
-5.22468e-05,3.478228e-05,1,1
-8.384954e-05,5.455425e-05,1,1
-0.0001162626,7.821578e-05,1,1
-0.0001509446,9.004655e-05,1,1
-0.0001799543,8.080883e-05,1,1
-0.0001945401,5.406805e-05,1,1
-0.0001938919,1.711715e-05,1,1
-0.0001875713,-2.501983e-05,1,1
-0.0001888679,-6.521203e-05,1,1
-0.0002123673,-9.568031e-05,1,1
-0.0002595283,-0.0001143178,1,1
-0.0003188442,-0.0001274451,1,1
-0.0003786463,-0.0001396,1,1
-0.0004311555,-0.0001431655,1,1
-0.0004682684,-0.0001185315,1,1
-0.0004826922,-4.80331e-05,1,1
-0.0004685925,6.200925e-05,1,1
-0.0004261314,0.0001812893,1,1
-0.0003626019,0.0002731804,1,1
-0.0002865932,0.0003145071,1,1
-0.0002032917,0.0003007315,1,1
-0.0001178833,0.0002495189,1,1
-3.911951e-05,0.0001856651,1,1
2.084466e-05,0.0001247285,1,1
4.418206e-05,7.821578e-05,1,1
2.39239e-05,5.309566e-05,1,1
-2.437157e-05,5.163707e-05,1,1
-7.104638e-05,6.962632e-05,1,1
-8.595638e-05,9.442231e-05,1,1
-4.398147e-05,0.0001132219,1,1
5.763349e-05,0.0001164632,1,1
0.0002143507,0.0001038221,1,1
0.0004235771,8.323981e-05,1,1
0.0006887161,6.687121e-05,1,1
0.001000854,6.379197e-05,1,1
0.001325147,7.6271e-05,1,1
0.001593204,9.879808e-05,1,1
0.001735174,0.0001239182,1,1
0.001710864,0.0001446626,1,1
0.001530647,0.0001571416,1,1
0.001253514,0.0001598967,1,1
0.0009673066,0.0001511452,1,1
0.0007548388,0.0001313732,1,1
0.000661327,9.977047e-05,1,1
0.0006746164,5.957827e-05,1,1
0.0007477079,1.987227e-05,1,1
0.0008253373,-1.027188e-05,1,1
0.0008624502,-2.939559e-05,1,1
0.0008353853,-4.544006e-05,1,1
0.0007399287,-6.683268e-05,1,1
0.0005866149,-9.778715e-05,1,1
0.0003984569,-0.0001306864,1,1
0.0001994406,-0.0001579134,1,1
1.371378e-05,-0.0001759026,1,1
-0.0001459206,-0.0001854645,1,1
-0.0002739521,-0.000184168,1,1
-0.0003720016,-0.0001724993,1,1
-0.0004470379,-0.000151917,1,1
-0.0005082985,-0.0001310105,1,1
-0.0005655076,-0.0001162626,1,1
-0.0006272545,-0.0001076731,1,1
-0.0006935392,-0.0001054042,1,1
-0.0007479931,-0.0001104282,1,1
-0.0007708443,-0.0001211246,1,1
-0.0007468587,-0.0001313347,1,1
-0.0006755499,-0.000137007,1,1
-0.0005817142,-0.000132145,1,1
-0.0005032745,-0.0001170729,1,1
-0.00047232,-9.486997e-05,1,1
-0.0004987367,-6.845333e-05,1,1
-0.0005682627,-4.025397e-05,1,1
-0.0006528608,-1.610624e-05,1,1
-0.0007329211,-7.100305e-07,1,1
-0.0007977472,6.582909e-06,1,1
-0.0008411807,8.689758e-06,1,1
-0.0008625733,1.063454e-05,1,1
-0.0008666249,1.679302e-05,1,1
-0.0008590078,2.878586e-05,1,1
-0.000837129,4.320967e-05,1,1
-0.0007979092,5.811968e-05,1,1
-0.0007484793,7.546067e-05,1,1
-0.0007082871,9.63671e-05,1,1
-0.0007113663,0.0001213252,1,1
-0.0007901301,0.0001464453,1,1
-0.000953654,0.0001675138,1,1
-0.00117698,0.0001824238,1,1
-0.001405978,0.0001902029,1,1
-0.001584574,0.0001874478,1,1
-0.001668038,0.000173024,1,1
-0.001630601,0.0001511452,1,1
-0.001470642,0.0001250527,1,1
-0.001198211,9.798775e-05,1,1
-0.0008244879,7.562274e-05,1,1
-0.0003728119,6.346784e-05,1,1
0.0001187321,6.200925e-05,1,1
0.0006013628,6.719535e-05,1,1
0.001043802,7.659513e-05,1,1
0.001429031,8.956036e-05,1,1
0.001748301,0.0001099806,1,1
0.00199772,0.0001351007,1,1
0.002165782,0.0001564933,1,1
0.002235633,0.0001667035,1,1
0.00219771,0.0001642725,1,1
0.002058171,0.0001508211,1,1
0.001838085,0.0001318594,1,1
0.001578294,0.0001146805,1,1
0.001328389,0.0001033359,1,1
0.001126455,9.442231e-05,1,1
0.0009874027,8.372601e-05,1,1
0.0008953495,6.962632e-05,1,1
0.0008118858,5.423012e-05,1,1
0.0006994124,3.964424e-05,1,1
0.0005433434,2.554455e-05,1,1
0.0003498373,8.203562e-06,1,1
0.0001312112,-1.529591e-05,1,1
-0.0001005423,-4.268495e-05,1,1
-0.000330675,-6.748094e-05,1,1
-0.0005439529,-8.287715e-05,1,1
-0.0007390795,-8.514606e-05,1,1
-0.0009205926,-7.914964e-05,1,1
-0.001094813,-7.282909e-05,1,1
-0.001259309,-7.218083e-05,1,1
-0.001399334,-7.882551e-05,1,1
-0.001487821,-8.903562e-05,1,1
-0.001505973,-9.875954e-05,1,1
-0.001451843,-0.0001045939,1,1
-0.001344718,-0.0001063766,1,1
-0.001213607,-0.0001054042,1,1
-0.00108201,-0.0001034594,1,1
-0.0009578677,-0.0001039456,1,1
-0.0008403703,-0.0001067007,1,1
-0.0007254661,-0.0001107524,1,1
-0.0006000275,-0.0001139937,1,1
-0.0004457413,-0.0001131834,1,1
-0.0002585559,-0.0001088076,1,1
-5.176061e-05,-0.0001088076,1,1
0.0001438522,-0.0001164247,1,1
0.0002940868,-0.0001342519,1,1
0.0003775505,-0.0001583996,1,1
0.0004002396,-0.0001799543,1,1
0.0003840331,-0.0001953505,1,1
0.0003593992,-0.0002029675,1,1
0.0003493511,-0.0002006986,1,1
0.0003582647,-0.0001921092,1,1
0.0003696093,-0.0001874093,1,1
0.0003477304,-0.0001968091,1,1
0.0002654013,-0.000221605,1,1
0.0001167873,-0.0002533699,1,1
-7.590833e-05,-0.0002705488,1,1
-0.0002702246,-0.0002528836,1,1
-0.0004196489,-0.0001968091,1,1
-0.0004929024,-0.0001128592,1,1
-0.0004810716,-2.0482e-05,1,1
-0.0003966356,6.41161e-05,1,1
-0.0002609869,0.0001273216,1,1
-0.0001065387,0.0001615174,1,1
3.202716e-05,0.0001691344,1,1
0.000128294,0.0001600588,1,1
0.0001718896,0.0001548727,1,1
0.0001733481,0.0001665414,1,1
0.000162976,0.0001947408,1,1
0.0001752929,0.0002294227,1,1
0.0002289366,0.0002579462,1,1
0.0003154794,0.0002718839,1,1
0.0004093153,0.0002725321,1,1
0.0004838654,0.0002678322,1,1
0.0005258403,0.000262322,1,1
0.000547395,0.0002561635,1,1
0.0005777013,0.0002477361,1,1
0.0006399344,0.0002378501,1,1
0.0007467355,0.0002310434,1,1
0.0008969702,0.0002282883,1,1
0.001072487,0.0002316917,1,1
0.001250111,0.000239957,1,1
0.001403101,0.000244981,1,1
0.001502771,0.000239957,1,1
0.001521895,0.0002190506,1,1
0.001444752,0.000185341,1,1
0.001278148,0.000150659,1,1
0.001045584,0.0001269974,1,1
0.0007778521,0.0001132219,1,1
0.0005073649,0.0001026876,1,1
0.0002641047,9.377406e-05,1,1
6.962632e-05,8.372601e-05,1,1
-7.250496e-05,7.124698e-05,1,1
-0.0001786577,5.52025e-05,1,1
-0.0002652006,3.915804e-05,1,1
-0.000345585,2.39239e-05,1,1
-0.0004340726,1.22552e-05,1,1
-0.0005300153,7.23117e-06,1,1
-0.000618503,9.013889e-06,1,1
-0.0006753879,1.533444e-05,1,1
-0.0006870566,2.01964e-05,1,1
-0.0006635571,1.889987e-05,1,1
-0.0006327647,7.717366e-06,1,1
-0.0006165582,-1.027188e-05,1,1
-0.0006202856,-2.615429e-05,1,1
-0.0006457299,-3.296103e-05,1,1
-0.0006896496,-2.534396e-05,1,1
-0.0007324349,-3.627206e-06,1,1
-0.000737783,2.457216e-05,1,1
-0.0006676087,4.515445e-05,1,1
-0.0005031124,4.790957e-05,1,1
-0.0002617972,2.943412e-05,1,1
6.90704e-06,-6.220252e-06,1,1
0.0002404432,-5.22468e-05,1,1
0.0003914881,-9.778715e-05,1,1
0.0004427008,-0.0001402483,1,1
0.00040105,-0.0001776853,1,1
0.0002869559,-0.0002084778,1,1
0.0001362352,-0.000236353,1,1
-9.299493e-06,-0.0002652006,1,1
-0.0001173971,-0.0002948586,1,1
-0.0001801163,-0.0003193304,1,1
-0.0002052365,-0.000328082,1,1
-0.0002071812,-0.0003160891,1,1
-0.00019924,-0.0002916173,1,1
-0.0001934057,-0.0002663351,1,1
-0.0001927574,-0.0002517492,1,1
-0.0001943781,-0.0002444563,1,1
-0.0001849783,-0.0002271153,1,1
-0.0001507825,-0.0001791439,1,1
-8.757704e-05,-0.0001018388,1,1
-6.868513e-06,-2.485776e-05,1,1
7.043665e-05,2.052053e-05,1,1
0.0001214872,2.052053e-05,1,1
0.0001278078,-1.643037e-05,1,1
8.453633e-05,-6.780507e-05,1,1
-1.520357e-06,-0.000112211,1,1
-0.000112373,-0.0001336036,1,1
-0.0002203085,-0.0001245279,1,1
-0.0003065273,-8.465986e-05,1,1
-0.0003732982,-1.918548e-05,1,1
-0.0004339106,6.152305e-05,1,1
-0.0004982505,0.0001462832,1,1
-0.0005669662,0.0002224539,1,1
-0.0006206098,0.0002773941,1,1
-0.0006309819,0.0003008936,1,1
-0.0005778245,0.0002905214,1,1
-0.0004695649,0.0002555152,1,1
-0.0003420196,0.0002132162,1,1
-0.0002441321,0.0001803169,1,1
-0.0002107467,0.0001636242,1,1
-0.0002434839,0.0001551968,1,1
-0.0003066893,0.0001427178,1,1
-0.0003520676,0.0001161391,1,1
-0.0003446126,7.594687e-05,1,1
-0.0002716832,2.959619e-05,1,1
-0.0001381414,-8.165035e-06,1,1
4.158902e-05,-2.210265e-05,1,1
0.0002472499,-8.327101e-06,1,1
0.000455666,1.906194e-05,1,1
0.0006438239,4.304761e-05,1,1
0.0007958413,4.888196e-05,1,1
0.0008953495,3.688912e-05,1,1
0.000923711,2.327564e-05,1,1
0.0008765499,2.505836e-05,1,1
0.0007765555,5.957827e-05,1,1
0.0006755888,0.0001373696,1,1
0.0006294001,0.0002508154,1,1
0.0006631098,0.000371392,1,1
0.0007541905,0.0004689553,1,1
0.0008571021,0.0005272989,1,1
0.0009318143,0.0005441537,1,1
0.0009621205,0.0005209784,1,1
0.0009554758,0.0004616624,1,1
0.0009204697,0.0003783608,1,1
0.0008684467,0.0002913317,1,1
0.0007992447,0.0002161334,1,1
0.0007094605,0.0001613553,1,1
0.0005956905,0.0001252147,1,1
0.0004585832,9.782569e-05,1,1
0.0003078624,7.157111e-05,1,1
0.0001576278,4.82337e-05,1,1
2.262738e-05,3.040651e-05,1,1
-9.405965e-05,1.987227e-05,1,1
-0.0001938919,1.760335e-05,1,1
-0.0002888622,2.052053e-05,1,1
-0.0003972838,2.052053e-05,1,1
-0.0005235327,1.047248e-05,1,1
-0.0006525366,-1.594417e-05,1,1
-0.0007619307,-5.921561e-05,1,1
-0.000836967,-0.0001136696,1,1
-0.0008640318,-0.0001715269,1,1
-0.0008299981,-0.000226467,1,1
-0.0007206041,-0.0002733039,1,1
-0.0005317981,-0.0003081479,1,1
-0.0002788141,-0.0003316474,1,1
6.90704e-06,-0.0003462333,1,1
0.0002817699,-0.000355471,1,1
0.0005062304,-0.0003591985,1,1
0.0006551685,-0.0003497987,1,1
0.0007170775,-0.0003217614,1,1
0.000701033,-0.000281083,1,1
0.0006383138,-0.0002368392,1,1
0.0005665187,-0.0001914609,1,1
0.000507527,-0.0001405724,1,1
0.0004597176,-7.201877e-05,1,1
0.0004166082,2.489629e-05,1,1
0.0003715541,0.0001459591,1,1
0.0003205035,0.0002626462,1,1
0.000252436,0.0003402755,1,1
0.0001537382,0.0003556717,1,1
1.193106e-05,0.0003101313,1,1
-0.0001700683,0.0002273159,1,1
-0.0003611433,0.0001354248,1,1
-0.0005121881,5.747142e-05,1,1
-0.0005836589,1.234753e-06,1,1
-0.0005575664,-3.539201e-05,1,1
-0.0004460655,-6.051213e-05,1,1
-0.0002896725,-8.271508e-05,1,1
-0.0001384655,-0.0001084835,1,1
-3.247483e-05,-0.0001368449,1,1
1.338965e-05,-0.0001637477,1,1
1.558884e-06,-0.0001880575,1,1
-5.986387e-05,-0.0002050744,1,1
-0.0001635857,-0.0002086398,1,1
-0.0002976137,-0.0001971332,1,1
-0.0004582204,-0.0001716889,1,1
-0.0006467023,-0.0001326312,1,1
-0.0008458805,-8.336335e-05,1,1
-0.001019128,-2.988179e-05,1,1
-0.001131602,2.230325e-05,1,1
-0.001169687,7.124698e-05,1,1
-0.00113776,0.0001114392,1,1
-0.001044897,0.000135911,1,1
-0.0008933656,0.0001448246,1,1
-0.000685436,0.0001430419,1,1
-0.0004308313,0.0001373696,1,1
-0.0001509446,0.0001302388,1,1
0.0001237561,0.000120839,1,1
0.0003684748,0.0001075496,1,1
0.0005700842,9.361199e-05,1,1
0.0007263153,8.405014e-05,1,1
0.0008455954,8.518459e-05,1,1
0.0009348936,9.63671e-05,1,1
0.0009921027,0.0001090082,1,1
0.001002313,0.0001141943,1,1
0.0009626067,0.0001098185,1,1
0.0008891911,9.912221e-05,1,1
0.0008031343,8.583286e-05,1,1
0.0007271256,7.351589e-05,1,1
0.0006759129,6.346784e-05,1,1
0.0006551685,5.974033e-05,1,1
0.0006553305,6.346784e-05,1,1
0.0006485239,7.335383e-05,1,1
0.0006055765,8.210535e-05,1,1
0.0005026649,8.242948e-05,1,1
0.0003279585,7.465034e-05,1,1
9.442231e-05,6.427817e-05,1,1
-0.0001661787,5.260946e-05,1,1
-0.0004118697,4.013043e-05,1,1
-0.0006052136,2.619281e-05,1,1
-0.0007225489,5.610517e-06,1,1
-0.000772465,-1.853722e-05,1,1
-0.0007854302,-4.122636e-05,1,1
-0.0007888335,-5.743289e-05,1,1
-0.000789968,-6.796714e-05,1,1
-0.0007865646,-7.65566e-05,1,1
-0.0007744097,-8.838737e-05,1,1
-0.0007509103,-0.0001029732,1,1
-0.0007194696,-0.0001224211,1,1
-0.0006804119,-0.0001460826,1,1
-0.0006382749,-0.0001731475,1,1
-0.0005990551,-0.0001959987,1,1
-0.0005668041,-0.0002032917,1,1
-0.0005429805,-0.0001922712,1,1
-0.0005222362,-0.0001720131,1,1
-0.0005037607,-0.0001546721,1,1
-0.0004899852,-0.0001454344,1,1
-0.000477182,-0.0001430034,1,1
-0.000462272,-0.0001413827,1,1
-0.0004436345,-0.0001352242,1,1
-0.0004266177,-0.0001243659,1,1
-0.0004246728,-0.000112211,1,1
-0.0004407173,-0.0001020008,1,1
-0.0004635685,-9.811128e-05,1,1
-0.0004794509,-0.0001021629,1,1
-0.0004729683,-0.0001118868,1,1
-0.0004282383,-0.000119666,1,1
-0.0003373197,-0.0001224211,1,1
-0.0002050744,-0.0001211246,1,1
-4.706071e-05,-0.0001139937,1,1
0.0001167873,-0.0001054042,1,1
0.0002595669,-0.0001010285,1,1
0.0003572923,-0.0001031353,1,1
0.0004046154,-0.0001041077,1,1
0.0004052637,-8.660465e-05,1,1
0.000371392,-3.928157e-05,1,1
0.0003127243,3.13789e-05,1,1
0.0002310434,0.0001046324,1,1
0.0001274836,0.0001564933,1,1
1.322759e-05,0.0001744826,1,1
-9.081835e-05,0.0001654069,1,1
-0.0001712027,0.0001412592,1,1
-0.0002229016,0.0001122495,1,1
-0.0002478596,8.648112e-05,1,1
-0.0002426735,7.20573e-05,1,1
-0.0001976194,7.52986e-05,1,1
-0.0001117248,9.393612e-05,1,1
5.934648e-06,0.0001193804,1,1
0.0001362352,0.0001399627,1,1
0.0002534084,0.0001545486,1,1
0.0003269861,0.0001691344,1,1
0.0003396272,0.0001893926,1,1
0.0003005694,0.0002111094,1,1
0.0002428742,0.0002281262,1,1
0.0002054371,0.0002318537,1,1
0.0002140265,0.000220023,1,1
0.0002827423,0.0001965235,1,1
0.0004080188,0.0001717275,1,1
0.0005815908,0.0001550348,1,1
0.0007945448,0.0001470936,1,1
0.00102954,0.0001479039,1,1
0.001258863,0.0001543865,1,1
0.00144929,0.0001650828,1,1
0.001582994,0.0001759412,1,1
0.001660623,0.0001837203,1,1
0.001698061,0.0001835583,1,1
0.001715402,0.0001788584,1,1
0.001718805,0.000170431,1,1
0.001704219,0.0001608691,1,1
0.001660137,0.0001504969,1,1
0.00158348,0.0001425557,1,1
0.001485268,0.0001394765,1,1
0.001369067,0.000140773,1,1
0.001224991,0.000140773,1,1
0.001045098,0.0001378558,1,1
0.0008381404,0.0001291043,1,1
0.0006214589,0.0001146805,1,1
0.0004062361,9.474644e-05,1,1
0.0001945787,6.930219e-05,1,1
-6.544382e-06,3.964424e-05,1,1
-0.0001781716,6.420843e-06,1,1
-0.0003099306,-2.501983e-05,1,1
-0.0004023079,-5.143648e-05,1,1
-0.0004632444,-7.056019e-05,1,1
-0.0005115399,-8.271508e-05,1,1
-0.0005672903,-8.887356e-05,1,1
-0.0006387612,-9.081835e-05,1,1
-0.000725304,-8.757704e-05,1,1
-0.0008168708,-7.995997e-05,1,1
-0.0008987138,-7.104638e-05,1,1
-0.0009570573,-6.472583e-05,1,1
-0.0009923875,-6.39155e-05,1,1
-0.001019128,-6.699475e-05,1,1
-0.001048786,-7.704279e-05,1,1
-0.001080713,-9.19528e-05,1,1
-0.00109854,-0.0001057284,1,1
-0.001079417,-0.0001125351,1,1
-0.001003246,-0.0001096179,1,1
-0.000864518,-0.0001034594,1,1
-0.0006813843,-9.438378e-05,1,1
-0.0004980884,-8.368748e-05,1,1
-0.0003634122,-7.444975e-05,1,1
-0.0002903207,-6.602235e-05,1,1
-0.0002596904,-6.245691e-05,1,1
-0.0002489941,-6.342931e-05,1,1
-0.0002397564,-6.650855e-05,1,1
-0.0002366771,-7.056019e-05,1,1
-0.0002519113,-7.639453e-05,1,1
-0.0002987481,-8.239095e-05,1,1
-0.0003732982,-8.628052e-05,1,1
-0.0004624341,-8.660465e-05,1,1
-0.000546708,-8.384954e-05,1,1
-0.0006066722,-7.785312e-05,1,1
-0.0006369784,-6.731888e-05,1,1
-0.0006497815,-5.775702e-05,1,1
-0.0006588572,-5.192267e-05,1,1
-0.0006702017,-5.030202e-05,1,1
-0.0006721465,-4.965376e-05,1,1
-0.0006578848,-4.576419e-05,1,1
-0.0006288751,-3.668853e-05,1,1
-0.0005886829,-2.404744e-05,1,1
-0.0005319601,-1.108221e-05,1,1
-0.0004515757,2.369211e-06,1,1
-0.0003415334,1.744129e-05,1,1
-0.0002036158,3.445814e-05,1,1
-5.22468e-05,5.374392e-05,1,1
9.344993e-05,7.384002e-05,1,1
0.0002141886,9.442231e-05,1,1
0.000294573,0.000113384,1,1
0.0003264999,0.0001257009,1,1
0.0003067279,0.0001295905,1,1
0.0002373639,0.0001260251,1,1
0.0001373696,0.0001175977,1,1
4.223728e-05,0.0001052807,1,1
-6.868513e-06,9.247754e-05,1,1
1.047248e-05,8.79397e-05,1,1
8.956036e-05,0.000103498,1,1
0.0002099749,0.0001414213,1,1
0.0003488649,0.0001934442,1,1
0.0004801379,0.000247412,1,1
0.000574622,0.0002910076,1,1
0.0006115729,0.000316776,1,1
0.0005935837,0.0003208276,1,1
0.0005420469,0.00030689,1,1
0.0004796517,0.0002859836,1,1
0.0004239012,0.0002642668,1,1
0.0003867882,0.0002431983,1,1
0.0003679886,0.0002190506,1,1
0.0003632887,0.0001863134,1,1
0.0003681507,0.0001448246,1,1
0.0003762539,0.0001017153,1,1
0.0003872744,6.557468e-05,1,1
0.0004016982,4.02925e-05,1,1
0.0004080188,2.34377e-05,1,1
0.0003851676,9.500085e-06,1,1
0.0003247172,-5.409925e-06,1,1
0.0002386605,-2.210265e-05,1,1
0.000145635,-3.814712e-05,1,1
6.200925e-05,-4.884343e-05,1,1
8.203562e-06,-5.516398e-05,1,1
2.100672e-05,-6.699475e-05,1,1
0.0001380179,-9.584238e-05,1,1
0.0003503235,-0.0001430034,1,1
0.0005883976,-0.0001921092,1,1
0.0007572698,-0.0002256567,1,1
0.0007882243,-0.0002436459,1,1
0.0006718613,-0.0002580697,1,1
0.0004692795,-0.0002721694,1,1
0.0002731804,-0.0002765452,1,1
0.0001404489,-0.0002639041,1,1
6.622294e-05,-0.0002355427,1,1
1.290346e-05,-0.0001972953,1,1
-4.657452e-05,-0.0001541859,1,1
-0.000122259,-0.000114804,1,1
-0.0002099363,-8.530812e-05,1,1
-0.0002995585,-6.715681e-05,1,1
-0.0003801049,-5.613637e-05,1,1
-0.0004394208,-4.106429e-05,1,1
-0.0004645409,-7.354709e-06,1,1
-0.0004570859,4.82337e-05,1,1
-0.0004339106,0.0001146805,1,1
-0.0004121938,0.0001642725,1,1
-0.0003909633,0.0001731861,1,1
-0.0003507711,0.0001315353,1,1
-0.0002734659,5.098881e-05,1,1
-0.0001567789,-4.576419e-05,1,1
-1.075808e-05,-0.0001332795,1,1
0.0001611932,-0.0001887058,1,1
0.0003525924,-0.0002062088,1,1
0.0005389676,-0.000191785,1,1
0.0006817472,-0.0001621271,1,1
0.0007477079,-0.0001303623,1,1
0.0007276118,-0.0001010285,1,1
0.0006459308,-7.65566e-05,1,1
0.0005467468,-5.743289e-05,1,1
0.0004699278,-4.47918e-05,1,1
0.000428439,-3.847125e-05,1,1
0.0004055878,-3.296103e-05,1,1
0.0003697714,-2.080613e-05,1,1
0.000292142,-7.100305e-07,1,1
0.0001715654,2.359977e-05,1,1
3.073064e-05,5.050261e-05,1,1
-8.984595e-05,7.513654e-05,1,1
-0.0001572651,9.490851e-05,1,1
-0.0001618029,0.0001064152,1,1
-0.0001144799,0.000106091,1,1
-3.344723e-05,9.377406e-05,1,1
5.1475e-05,7.416415e-05,1,1
0.0001033359,5.795762e-05,1,1
9.377406e-05,5.536457e-05,1,1
1.987227e-05,6.800567e-05,1,1
-9.632857e-05,8.923623e-05,1,1
-0.0002100984,0.0001078737,1,1
-0.0002783279,0.0001112771,1,1
-0.0002827037,9.409818e-05,1,1
-0.0002381357,6.41161e-05,1,1
-0.0001770371,3.526847e-05,1,1
-0.0001266348,2.084466e-05,1,1
-0.0001057284,2.651694e-05,1,1
-0.0001287416,4.547859e-05,1,1
-0.0002073433,6.816773e-05,1,1
-0.0003421817,8.907416e-05,1,1
-0.000519481,0.0001077117,1,1
-0.0007078009,0.0001192183,1,1
-0.0008726213,0.0001197045,1,1
-0.0009844464,0.0001033359,1,1
-0.001034038,8.275361e-05,1,1
-0.001025773,7.513654e-05,1,1
-0.0009658089,9.231547e-05,1,1
-0.0008573871,0.0001323456,1,1
-0.0007069906,0.0001756171,1,1
-0.0005240189,0.0001997648,1,1
-0.0003209511,0.0001949028,1,1
-0.0001170729,0.0001652449,1,1
7.238143e-05,0.0001232699,1,1
0.0002312055,8.113296e-05,1,1
0.0003454615,4.888196e-05,1,1
0.0004114222,3.13789e-05,1,1
0.0004307079,3.008238e-05,1,1
0.0004091532,3.850978e-05,1,1
0.0003542131,5.390598e-05,1,1
0.00027707,6.962632e-05,1,1
0.0001955511,7.918817e-05,1,1
0.0001244044,8.129502e-05,1,1
7.254349e-05,7.659513e-05,1,1
4.223728e-05,6.670914e-05,1,1
2.732727e-05,5.244739e-05,1,1
1.501031e-05,3.462021e-05,1,1
-6.220252e-06,1.387585e-05,1,1
-4.706071e-05,-8.327101e-06,1,1
-0.0001185315,-3.425755e-05,1,1
-0.0002159328,-6.035007e-05,1,1
-0.0003222476,-8.060823e-05,1,1
-0.0004214316,-9.227693e-05,1,1
-0.0005164018,-9.778715e-05,1,1
-0.0006078067,-0.0001020008,1,1
-0.0006796016,-0.0001110765,1,1
-0.0007078009,-0.0001261486,1,1
-0.0006736051,-0.0001468929,1,1
-0.0005666421,-0.0001713648,1,1
-0.0003869116,-0.0001908126,1,1
-0.0001524032,-0.0001984297,1,1
0.0001007429,-0.000191623,1,1
0.0003284447,-0.0001713648,1,1
0.0004717105,-0.0001439758,1,1
0.0004783552,-0.0001170729,1,1
0.0003388169,-9.470791e-05,1,1
9.782569e-05,-7.882551e-05,1,1
-0.0001650443,-6.667062e-05,1,1
-0.0003775118,-5.354332e-05,1,1
-0.0005031124,-3.522994e-05,1,1
-0.0005433047,-1.059602e-05,1,1
-0.0005160777,1.484824e-05,1,1
-0.0004407173,3.60788e-05,1,1
-0.0003345645,4.742337e-05,1,1
-0.0002149604,4.904402e-05,1,1
-0.0001037836,4.612685e-05,1,1
-1.983374e-05,3.591673e-05,1,1
2.81376e-05,1.808955e-05,1,1
4.175109e-05,-3.789272e-06,1,1
2.732727e-05,-2.42095e-05,1,1
-7.840905e-06,-4.203669e-05,1,1
-4.608832e-05,-5.856735e-05,1,1
-5.840528e-05,-7.169464e-05,1,1
-2.015787e-05,-7.088431e-05,1,1
7.691926e-05,-5.078821e-05,1,1
0.000215161,-1.497178e-05,1,1
0.000359075,2.538249e-05,1,1
0.0004743035,6.055066e-05,1,1
0.0005470709,8.567078e-05,1,1
0.0005908285,9.620504e-05,1,1
0.0006449584,9.588091e-05,1,1
0.0007421977,8.923623e-05,1,1
0.0008851394,7.67572e-05,1,1
0.001046395,6.589881e-05,1,1
0.001188526,6.184718e-05,1,1
0.001279121,6.589881e-05,1,1
0.001297596,7.513654e-05,1,1
0.001243466,8.777764e-05,1,1
0.001136989,0.0001020394,1,1
0.001006202,0.0001120874,1,1
0.0008763879,0.0001146805,1,1
0.0007736384,0.0001103047,1,1
0.000708326,0.0001033359,1,1
0.0006781818,9.993253e-05,1,1
0.0006739681,9.896015e-05,1,1
0.0006776956,9.652917e-05,1,1
0.0006738061,9.134307e-05,1,1
0.0006528996,8.275361e-05,1,1
0.0006151384,7.108491e-05,1,1
0.0005705704,5.633696e-05,1,1
0.0005420469,4.158902e-05,1,1
0.0005410745,3.170304e-05,1,1
0.0005527431,2.748934e-05,1,1
0.0005530673,3.089271e-05,1,1
0.000532485,3.93201e-05,1,1
0.0005010443,4.758544e-05,1,1
0.0004712243,5.244739e-05,1,1
0.0004415663,5.455425e-05,1,1
0.0004005638,5.455425e-05,1,1
0.0003328204,5.682316e-05,1,1
0.0002240746,6.41161e-05,1,1
7.562274e-05,7.546067e-05,1,1
-9.535618e-05,8.79397e-05,1,1
-0.0002629317,9.442231e-05,1,1
-0.0004016596,8.923623e-05,1,1
-0.0005013297,6.978839e-05,1,1
-0.0005638869,3.526847e-05,1,1
-0.0006006758,-1.043395e-05,1,1
-0.0006240131,-5.64605e-05,1,1
-0.0006481609,-9.503204e-05,1,1
-0.0006828429,-0.0001251762,1,1
-0.0007287074,-0.0001489998,1,1
-0.0007792717,-0.0001656925,1,1
-0.000822219,-0.0001771992,1,1
-0.0008504183,-0.0001818991,1,1
-0.0008565768,-0.000176713,1,1
-0.0008364808,-0.0001596961,1,1
-0.0007917507,-0.0001300382,1,1
-0.0007374589,-8.887356e-05,1,1
-0.000693053,-4.47918e-05,1,1
-0.0006723086,-7.516774e-06,1,1
-0.0006744154,1.679302e-05,1,1
-0.0006958081,3.073064e-05,1,1
-0.0007366485,4.661304e-05,1,1
-0.0008061745,7.108491e-05,1,1
-0.0008987138,0.0001007429,1,1
-0.00098866,0.0001245665,1,1
-0.001045707,0.0001339663,1,1
-0.001052352,0.000120839,1,1
-0.001001787,8.567078e-05,1,1
-0.0008990379,3.348575e-05,1,1
-0.0007620928,-2.583016e-05,1,1
-0.0006144513,-8.287715e-05,1,1
-0.0004753993,-0.0001305243,1,1
-0.000358064,-0.0001674752,1,1
-0.0002643903,-0.0001935677,1,1
-0.0001794681,-0.0002076674,1,1
-8.141856e-05,-0.0002094502,1,1
3.996837e-05,-0.0001971332,1,1
0.000178048,-0.0001666649,1,1
0.0003025142,-0.000117235,1,1
0.0003819262,-5.808115e-05,1,1
0.0004101256,9.106227e-07,1,1
0.0004096394,5.957827e-05,1,1
0.0004243874,0.0001232699,1,1
0.000497803,0.0001940925,1,1
0.0006491721,0.0002571359,1,1
0.0008634226,0.0002944109,1,1
0.001100038,0.0002940868,1,1
0.001302296,0.0002603772,1,1
0.001419145,0.0002119197,1,1
0.001425304,0.0001671896,1,1
0.001329037,0.0001398006,1,1
0.001167782,0.0001325077,1,1
0.0009848097,0.0001415833,1,1
0.0008139926,0.0001628139,1,1
0.0006772094,0.0001885823,1,1
0.000586939,0.0002096508,1,1
0.0005469088,0.0002209954,1,1
0.0005420469,0.0002196988,1,1
0.0005460985,0.0002072198,1,1
0.000530054,0.0001895547,1,1
0.0004768966,0.0001735102,1,1
0.0003798194,0.0001634622,1,1
0.000244981,0.0001598967,1,1
8.826383e-05,0.000158114,1,1
-6.261898e-05,0.0001524417,1,1
-0.0001831956,0.0001380179,1,1
-0.0002634179,0.0001169494,1,1
-0.0003117133,9.68533e-05,1,1
-0.0003485022,8.032264e-05,1,1
-0.0003961493,6.816773e-05,1,1
-0.0004658375,6.071273e-05,1,1
-0.000556756,5.471631e-05,1,1
-0.0006522125,4.645098e-05,1,1
-0.0007356761,3.008238e-05,1,1
-0.000797261,8.365628e-06,1,1
-0.0008546321,-1.25408e-05,1,1
-0.00094393,-2.664048e-05,1,1
-0.001079579,-3.117831e-05,1,1
-0.001235648,-3.036798e-05,1,1
-0.001360438,-3.101625e-05,1,1
-0.001411326,-3.620233e-05,1,1
-0.001374213,-4.284701e-05,1,1
-0.001262226,-4.625038e-05,1,1
-0.001106806,-4.641245e-05,1,1
-0.0009424714,-4.884343e-05,1,1
-0.0007911025,-5.727083e-05,1,1
-0.0006632329,-6.942573e-05,1,1
-0.0005580526,-8.271508e-05,1,1
-0.0004664857,-9.470791e-05,1,1
-0.0003741085,-0.000104756,1,1
-0.0002569353,-0.0001149661,1,1
-9.357346e-05,-0.0001267968,1,1
0.0001138702,-0.0001366828,1,1
0.0003420582,-0.0001434896,1,1
0.0005564707,-0.0001473791,1,1
0.0007321496,-0.0001502963,1,1
0.0008546711,-0.0001499722,1,1
0.0009258178,-0.0001455964,1,1
0.0009611481,-0.0001389517,1,1
0.0009780029,-0.0001336036,1,1
0.0009839993,-0.0001298761,1,1
0.0009724927,-0.0001298761,1,1
0.0009288971,-0.0001349001,1,1
0.0008436506,-0.0001457585,1,1
0.0007235601,-0.0001588858,1,1
0.0005871011,-0.000166827,1,1
0.000458259,-0.000161965,1,1
0.0003542131,-0.0001408965,1,1
0.0002799871,-0.0001062146,1,1
0.0002328261,-6.634648e-05,1,1
0.0002088404,-2.939559e-05,1,1
0.0002067336,-8.720959e-07,1,1
0.0002190506,1.857574e-05,1,1
0.0002331503,2.76514e-05,1,1
0.0002302331,2.927205e-05,1,1
0.0001944166,2.700314e-05,1,1
0.0001190562,2.084466e-05,1,1
8.689758e-06,1.047248e-05,1,1
-0.0001211246,-2.654814e-06,1,1
-0.000246401,-1.221667e-05,1,1
-0.0003493125,-1.3027e-05,1,1
-0.0004245108,-3.465141e-06,1,1
-0.0004781544,1.144487e-05,1,1
-0.0005123502,2.878586e-05,1,1
-0.0005256396,5.406805e-05,1,1
-0.00052175,9.620504e-05,1,1
-0.0005097571,0.0001547106,1,1
-0.0005003574,0.0002094887,1,1
-0.0004997091,0.0002414156,1,1
-0.0005102433,0.0002420638,1,1
-0.0005254775,0.000220023,1,1
-0.0005317981,0.0001906891,1,1
-0.0005220741,0.0001686482,1,1
-0.0004938748,0.0001608691,1,1
-0.0004468758,0.0001709172,1,1
-0.0003812394,0.0001947408,1,1
-0.0002980999,0.0002235884,1,1
-0.0002026434,0.0002430362,1,1
-9.616651e-05,0.0002422259,1,1
1.889987e-05,0.0002205092,1,1
0.00013818,0.0001837203,1,1
0.0002584324,0.0001409351,1,1
0.0003827366,9.879808e-05,1,1
0.0005305402,6.362991e-05,1,1
0.0007436562,4.045456e-05,1,1
0.001051905,3.056858e-05,1,1
0.001436649,3.13789e-05,1,1
0.001818313,3.98063e-05,1,1
0.00209658,4.677511e-05,1,1
0.002192686,4.709924e-05,1,1
0.002072919,4.223728e-05,1,1
0.001758349,3.397195e-05,1,1
0.001321096,2.505836e-05,1,1
0.0008640709,1.663096e-05,1,1
0.0004815964,8.689758e-06,1,1
0.0002258573,7.485573e-07,1,1
9.101894e-05,-7.354709e-06,1,1
3.170304e-05,-1.432352e-05,1,1
-3.858999e-07,-1.918548e-05,1,1
-3.441962e-05,-2.372331e-05,1,1
-7.882551e-05,-3.117831e-05,1,1
-0.0001230693,-3.830919e-05,1,1
-0.0001455964,-3.911951e-05,1,1
-0.0001384655,-3.020592e-05,1,1
-0.0001201522,-1.318906e-05,1,1
-0.0001195039,7.069105e-06,1,1
-0.0001588858,2.052053e-05,1,1
-0.0002408908,2.311357e-05,1,1
-0.0003485022,1.371378e-05,1,1
-0.0004577342,-5.734056e-06,1,1
-0.0005458977,-3.409549e-05,1,1
-0.0005958138,-6.650855e-05,1,1
-0.0006013241,-9.260107e-05,1,1
-0.0005747453,-0.0001105903,1,1
-0.0005405495,-0.0001253383,1,1
-0.0005175362,-0.0001428413,1,1
-0.0005125122,-0.0001629374,1,1
-0.0005245051,-0.0001827094,1,1
-0.000546546,-0.0001971332,1,1
-0.0005661559,-0.0002026434,1,1
-0.0005711799,-0.0002034537,1,1
-0.0005556216,-0.0002042641,1,1
-0.0005230465,-0.0002070192,1,1
-0.0004791268,-0.0002128535,1,1
-0.0004254832,-0.0002191741,1,1
-0.0003632501,-0.0002198223,1,1
-0.0002938862,-0.0002100984,1,1
-0.0002227395,-0.0001888679,1,1
-0.0001549962,-0.0001611547,1,1
-9.600444e-05,-0.0001337657,1,1
-4.754691e-05,-0.0001107524,1,1
-1.610624e-05,-9.29252e-05,1,1
-9.137427e-06,-7.931171e-05,1,1
-2.534396e-05,-6.942573e-05,1,1
-5.435365e-05,-6.359137e-05,1,1
-8.692878e-05,-5.953974e-05,1,1
-0.0001232314,-5.629844e-05,1,1
-0.0001635857,-5.192267e-05,1,1
-0.0002005366,-4.009191e-05,1,1
-0.0002182017,-1.610624e-05,1,1
-0.0001998883,2.408596e-05,1,1
-0.0001412206,7.610894e-05,1,1
-5.840528e-05,0.0001261871,1,1
1.808955e-05,0.0001613553,1,1
5.747142e-05,0.000177886,1,1
4.936815e-05,0.0001783722,1,1
1.072688e-06,0.0001683241,1,1
-6.942573e-05,0.0001564933,1,1
-0.0001498101,0.0001446626,1,1
-0.0002331117,0.0001320215,1,1
-0.0003099306,0.0001153287,1,1
-0.0003676259,0.0001028497,1,1
-0.0003932322,0.0001041462,1,1
-0.0003792946,0.0001213252,1,1
-0.0003271096,0.0001453108,1,1
-0.0002483458,0.0001689724,1,1
-0.0001600202,0.000187934,1,1
-7.995997e-05,0.0001994406,1,1
-1.805102e-05,0.0002017096,1,1
2.748934e-05,0.000195227,1,1
6.152305e-05,0.0001835583,1,1
8.956036e-05,0.000173024,1,1
0.0001200286,0.0001663793,1,1
0.0001579519,0.0001628139,1,1
0.0002017096,0.0001563313,1,1
0.000242388,0.0001483901,1,1
0.0002666978,0.0001396385,1,1
0.0002728562,0.0001295905,1,1
0.0002654013,0.0001197045,1,1
0.000257298,0.0001091703,1,1
0.0002589186,9.68533e-05,1,1
0.0002725321,8.388807e-05,1,1
0.0002916559,7.20573e-05,1,1
0.0003023522,5.99024e-05,1,1
0.0002927903,4.402e-05,1,1
0.0002631324,2.278944e-05,1,1
0.0002192126,-1.034161e-06,1,1
0.0001561692,-2.129233e-05,1,1
6.217132e-05,-3.425755e-05,1,1
-6.521203e-05,-4.236082e-05,1,1
-0.000204102,-4.722278e-05,1,1
-0.0003165753,-5.2733e-05,1,1
-0.0003689224,-5.872941e-05,1,1
-0.0003501228,-6.602235e-05,1,1
-0.0002723315,-7.428769e-05,1,1
-0.0001726613,-7.850138e-05,1,1
-0.0001015147,-7.639453e-05,1,1
-9.778715e-05,-7.072225e-05,1,1
-0.0001627754,-6.748094e-05,1,1
-0.0002527216,-6.780507e-05,1,1
-0.0003130099,-7.299116e-05,1,1
-0.0002968033,-8.287715e-05,1,1
-0.0001859507,-9.130454e-05,1,1
-3.303076e-06,-9.373552e-05,1,1
0.0001950649,-8.676672e-05,1,1
0.0003496752,-7.509801e-05,1,1
0.0004235771,-6.407757e-05,1,1
0.0004140152,-5.840528e-05,1,1
0.0003440029,-6.083626e-05,1,1
0.0002514636,-7.33153e-05,1,1
0.0001686482,-9.049421e-05,1,1
0.0001172735,-0.0001055663,1,1
0.0001049566,-0.0001131834,1,1
0.000128294,-0.000114804,1,1
0.0001775618,-0.000117235,1,1
0.0002456293,-0.0001203142,1,1
0.0003337929,-0.0001209625,1,1
0.0004427008,-0.0001141558,1,1
0.0005658705,-9.811128e-05,1,1
0.0006937401,-7.380149e-05,1,1
0.0008089686,-4.754691e-05,1,1
0.0008953495,-2.550602e-05,1,1
0.0009447795,-1.270286e-05,1,1
0.0009679549,-5.57199e-06,1,1
0.0009825408,4.151929e-06,1,1
0.0009985853,2.133085e-05,1,1
0.001017871,4.645098e-05,1,1
0.001041371,7.67572e-05,1,1
0.001070866,0.0001069013,1,1
0.001094366,0.0001316974,1,1
0.001081401,0.0001504969,1,1
0.00100134,0.0001616794,1,1
0.0008446231,0.0001620036,1,1
0.0006349103,0.000155683,1,1
0.000413529,0.0001467694,1,1
0.0002167816,0.0001401247,1,1
5.633696e-05,0.0001420695,1,1
-7.65566e-05,0.0001553589,1,1
-0.0001972953,0.0001769136,1,1
-0.0003094444,0.0001989545,1,1
-0.0003982562,0.0002182402,1,1
-0.0004494688,0.0002363916,1,1
-0.0004664857,0.0002553532,1,1
-0.0004760476,0.0002726942,1,1
-0.0005058676,0.0002811216,1,1
-0.0005645352,0.0002760976,1,1
-0.0006337371,0.0002585945,1,1
-0.0006865704,0.0002339606,1,1
-0.0007063423,0.0002072198,1,1
-0.0006982391,0.0001833962,1,1
-0.0006828429,0.0001715654,1,1
-0.0006901358,0.0001722137,1,1
-0.0007445897,0.0001759412,1,1
-0.0008473391,0.000175455,1,1
-0.0009688881,0.0001673517,1,1
-0.001063858,0.0001548727,1,1
-0.001090113,0.000145797,1,1
-0.001017994,0.0001483901,1,1
-0.0008398842,0.0001623277,1,1
-0.0005719902,0.0001782101,1,1
-0.0002457528,0.000180479,1,1
0.0001026876,0.0001587623,1,1
0.0004350837,0.0001106288,1,1
0.0007120535,4.596478e-05,1,1
0.0009010218,-1.529591e-05,1,1
0.0009874027,-6.0188e-05,1,1
0.000973303,-8.547019e-05,1,1
0.0008848152,-9.697683e-05,1,1
0.000765373,-0.0001032974,1,1
0.0006550064,-0.0001139937,1,1
0.0005661946,-0.0001313347,1,1
0.000483055,-0.0001527273,1,1
0.0003897054,-0.0001700683,1,1
0.000279663,-0.0001797922,1,1
0.0001543865,-0.0001830335,1,1
1.614476e-05,-0.0001836818,1,1
-0.0001302002,-0.0001848162,1,1
-0.0002673075,-0.0001919471,1,1
-0.0003804291,-0.0002053985,1,1
-0.0004677822,-0.0002199844,1,1
-0.0005424943,-0.0002293842,1,1
-0.0006282268,-0.0002276015,1,1
-0.0007407002,-0.0002159328,1,1
-0.0008771592,-0.0001989159,1,1
-0.001022694,-0.0001835197,1,1
-0.001161098,-0.0001733096,1,1
-0.001271464,-0.000169258,1,1
-0.001335318,-0.0001663408,1,1
-0.001338721,-0.0001630995,1,1
-0.00127195,-0.0001588858,1,1
-0.001136302,-0.0001536997,1,1
-0.000946361,-0.0001434896,1,1
-0.0007280591,-0.0001259865,1,1
-0.000511864,-0.0001018388,1,1
-0.0003272716,-8.060823e-05,1,1
-0.0001877334,-6.942573e-05,1,1
-8.806324e-05,-7.33153e-05,1,1
-1.108221e-05,-9.065628e-05,1,1
6.071273e-05,-0.0001157764,1,1
0.0001346145,-0.0001436516,1,1
0.0002072198,-0.0001695821,1,1
0.0002676702,-0.0001896782,1,1
0.0003041349,-0.0001971332,1,1
0.0003130485,-0.0001857886,1,1
0.0002983005,-0.0001551583,1,1
0.0002688046,-0.0001115627,1,1
0.0002337985,-6.586029e-05,1,1
0.0001984683,-2.46957e-05,1,1
0.0001657311,8.527692e-06,1,1
0.0001449867,4.45062e-05,1,1
0.0001435281,9.68533e-05,1,1
0.0001564933,0.000168162,1,1
0.0001665414,0.0002420638,1,1
0.0001537382,0.0002979764,1,1
0.0001054428,0.0003195311,1,1
2.214118e-05,0.0003064038,1,1
-8.125649e-05,0.0002713977,1,1
-0.0001815749,0.0002305572,1,1
-0.0002532078,0.000195389,1,1
-0.0002763831,0.0001697827,1,1
-0.0002491561,0.0001522796,1,1
-0.000181737,0.0001394765,1,1
-8.417367e-05,0.0001318594,1,1
3.18651e-05,0.000133318,1,1
0.0001470936,0.0001410971,1,1
0.0002386605,0.0001521176,1,1
0.0002963557,0.0001621656,1,1
0.0003200173,0.000168,1,1
0.0003208276,0.0001658931,1,1
0.0003112658,0.0001587623,1,1
0.0002999212,0.0001479039,1,1
0.0002856594,0.0001346145,1,1
0.0002618358,0.0001250527,1,1
0.0002221298,0.0001269974,1,1
0.0001692965,0.0001389903,1,1
0.0001140322,0.0001514693,1,1
7.562274e-05,0.0001571416,1,1
6.606088e-05,0.0001529279,1,1
8.567078e-05,0.0001425557,1,1
0.0001257009,0.0001279698,1,1
0.0001757791,0.0001090082,1,1
0.000225047,9.101894e-05,1,1
0.0002610255,8.291568e-05,1,1
0.0002809595,9.588091e-05,1,1
0.0002850112,0.0001274836,1,1
0.0002795009,0.0001568175,1,1
0.0002684805,0.0001595726,1,1
0.0002477361,0.0001240803,1,1
0.000217592,5.876794e-05,1,1
0.0001867996,-1.821308e-05,1,1
0.0001688103,-8.82253e-05,1,1
0.0001696206,-0.0001384655,1,1
0.0001876099,-0.0001674752,1,1
0.0002172679,-0.0001807646,1,1
0.0002561635,-0.0001825473,1,1
0.0002955454,-0.0001739578,1,1
0.0003211517,-0.0001588858,1,1
0.0003195311,-0.0001426792,1,1
0.0002861456,-0.0001289037,1,1
0.0002320158,-0.0001182074,1,1
0.000178048,-0.0001128592,1,1
0.0001410971,-0.0001154523,1,1
0.0001195424,-0.0001263107,1,1
9.717743e-05,-0.0001413827,1,1
6.670914e-05,-0.0001559686,1,1
4.061663e-05,-0.0001663408,1,1
3.867184e-05,-0.0001665028,1,1
7.254349e-05,-0.0001558065,1,1
0.0001365593,-0.0001366828,1,1
0.0002120818,-0.0001178833,1,1
0.0002817699,-0.0001036215,1,1
0.000339303,-9.130454e-05,1,1
0.0003898674,-7.752899e-05,1,1
0.000435732,-6.164659e-05,1,1
0.0004752759,-4.689865e-05,1,1
0.0005047718,-3.733679e-05,1,1
0.0005229231,-3.522994e-05,1,1
0.000534754,-4.349527e-05,1,1
0.000544964,-5.937768e-05,1,1
0.000562143,-7.137051e-05,1,1
0.0005905044,-7.250496e-05,1,1
0.0006334517,-6.099833e-05,1,1
0.000688392,-3.911951e-05,1,1
0.0007407391,-1.448558e-05,1,1
0.0007618076,6.258778e-06,1,1
0.0007269635,2.068259e-05,1,1
0.0006344241,3.18651e-05,1,1
0.0004968306,4.337174e-05,1,1
0.0003358997,5.358185e-05,1,1
0.0001735102,6.071273e-05,1,1
2.878586e-05,6.379197e-05,1,1
-8.417367e-05,6.865393e-05,1,1
-0.0001648822,8.161915e-05,1,1
-0.0002266291,0.0001022015,1,1
-0.0002848105,0.0001201907,1,1
-0.0003515814,0.0001273216,1,1
-0.0004288866,0.0001222976,1,1
-0.0005105674,0.0001094944,1,1
-0.0005893312,9.68533e-05,1,1
-0.00065594,9.118101e-05,1,1
-0.0007003459,9.831188e-05,1,1
-0.0007248178,0.0001171115,1,1
-0.0007444277,0.0001419075,1,1
-0.0007787855,0.0001678379,1,1
-0.0008290258,0.0001885823,1,1
-0.0008784557,0.0002015475,1,1
-0.0009034137,0.0002041406,1,1
-0.000889314,0.0002023578,1,1
-0.0008379394,0.0002005751,1,1
-0.0007560964,0.0002034923,1,1
-0.0006512401,0.000210137,1,1
-0.0005329325,0.0002184023,1,1
-0.0004073319,0.000222616,1,1
-0.0002838381,0.0002171058,1,1
-0.0001690959,0.0002033302,1,1
-6.423963e-05,0.0001827479,1,1
3.235129e-05,0.0001592484,1,1
0.0001141943,0.0001355869,1,1
0.0001701068,0.0001090082,1,1
0.0001911753,7.918817e-05,1,1
0.0001793446,4.77475e-05,1,1
0.0001477418,2.084466e-05,1,1
0.0001175977,3.665733e-06,1,1
0.0001130598,-6.220252e-06,1,1
0.0001547106,-1.448558e-05,1,1
0.0002451431,-2.518189e-05,1,1
0.0003657197,-3.749886e-05,1,1
0.0004861343,-4.835724e-05,1,1
0.0005765668,-5.305713e-05,1,1
0.0006148142,-5.386745e-05,1,1
0.0005841838,-5.402952e-05,1,1
0.0004880791,-5.64605e-05,1,1
0.0003436788,-6.261898e-05,1,1
0.0001741585,-7.250496e-05,1,1
3.017472e-06,-8.579432e-05,1,1
-0.000147055,-0.0001021629,1,1
-0.0002627696,-0.0001208004,1,1
-0.0003410472,-0.0001430034,1,1
-0.0003898288,-0.0001695821,1,1
-0.0004194868,-0.000199078,1,1
-0.0004400691,-0.0002269532,1,1
-0.0004564377,-0.0002480217,1,1
-0.0004728062,-0.0002577456,1,1
-0.0004958195,-0.000253856,1,1
-0.0005290429,-0.0002417012,1,1
-0.0005719902,-0.0002267911,1,1
-0.0006259579,-0.0002138259,1,1
-0.0006914323,-0.0002060468,1,1
-0.0007622549,-0.000201509,1,1
-0.0008280533,-0.000194216,1,1
-0.0008781315,-0.0001797922,1,1
-0.0009074653,-0.0001522411,1,1
-0.0009107067,-0.0001136696,1,1
-0.0008855865,-7.153257e-05,1,1
-0.0008285395,-3.441962e-05,1,1
-0.0007442656,-9.785688e-06,1,1
-0.0006415162,-8.720959e-07,1,1
-0.0005337428,-2.330684e-06,1,1
-0.00042759,-3.303076e-06,1,1
-0.0003241924,7.485573e-07,1,1
-0.0002203085,1.063454e-05,1,1
-0.0001178833,2.570662e-05,1,1
-1.99958e-05,4.45062e-05,1,1
8.275361e-05,6.476436e-05,1,1
0.0002083542,8.145709e-05,1,1
0.0003678266,9.26396e-05,1,1
0.0005614947,9.977047e-05,1,1
0.000775421,0.0001028497,1,1
0.0009878889,0.0001030118,1,1
0.001171347,0.0001041462,1,1
0.00130651,0.0001122495,1,1
0.00139516,0.000128294,1,1
0.001462741,0.0001469315,1,1
0.001543612,0.0001644345,1,1
0.001663378,0.0001801549,1,1
0.001817017,0.0001944166,1,1
0.001964173,0.000207706,1,1
0.002044557,0.000217754,1,1
0.002010686,0.0002211574,1,1
0.001845864,0.0002172679,1,1
0.001564518,0.0002068957,1,1
0.001211701,0.000195227,1,1
0.0008462437,0.0001845306,1,1
0.0005230852,0.0001738343,1,1
0.0002733424,0.0001623277,1,1
9.426025e-05,0.0001529279,1,1
-3.377136e-05,0.0001462832,1,1
-0.0001334415,0.0001410971,1,1
-0.0002220912,0.0001363972,1,1
-0.0003102548,0.0001310491,1,1
-0.0004024699,0.0001244044,1,1
-0.000496954,0.0001164632,1,1
-0.0005917621,0.0001057669,1,1
-0.0006990494,9.101894e-05,1,1
-0.0008382635,7.367795e-05,1,1
-0.001019777,5.455425e-05,1,1
-0.001240185,4.045456e-05,1,1
-0.001477287,3.251336e-05,1,1
-0.00169332,2.829966e-05,1,1
-0.001848093,2.424803e-05,1,1
-0.001918267,1.889987e-05,1,1
-0.001906112,1.468618e-05,1,1
-0.001827024,9.013889e-06,1,1
-0.001694293,2.207145e-06,1,1
-0.001523476,-9.947754e-06,1,1
-0.001332563,-2.874733e-05,1,1
-0.001137112,-5.046408e-05,1,1
-0.0009549505,-7.088431e-05,1,1
-0.0007917507,-8.935975e-05,1,1
-0.0006356818,-0.0001084835,1,1
-0.0004705373,-0.0001274451,1,1
-0.0002838381,-0.0001436516,1,1
-7.23429e-05,-0.0001540238,1,1
0.0001587623,-0.0001546721,1,1
0.0003929467,-0.0001509446,1,1
0.0006071971,-0.0001465688,1,1
0.0007815796,-0.0001473791,1,1
0.0009071803,-0.0001538618,1,1
0.0009839993,-0.000161965,1,1
0.001030188,-0.0001656925,1,1
0.00108367,-0.0001661787,1,1
0.001191767,-0.0001639098,1,1
0.001379439,-0.0001558065,1,1
0.001616704,-0.0001366828,1,1
0.001838734,-0.0001060525,1,1
0.001983945,-6.407757e-05,1,1
0.002023003,-1.529591e-05,1,1
0.001957528,2.878586e-05,1,1
0.001800162,5.844381e-05,1,1
0.001562249,6.476436e-05,1,1
0.001263076,4.855783e-05,1,1
0.0009331108,1.630683e-05,1,1
0.0006135177,-2.080613e-05,1,1
0.0003456236,-5.338126e-05,1,1
0.0001475797,-7.866345e-05,1,1
1.209313e-05,-9.29252e-05,1,1
-8.725291e-05,-9.357346e-05,1,1
-0.0001752544,-8.271508e-05,1,1
-0.0002715212,-6.375344e-05,1,1
-0.0003797808,-4.041603e-05,1,1
-0.000489661,-1.367526e-05,1,1
-0.0005865761,1.436204e-05,1,1
-0.0006564262,3.850978e-05,1,1
-0.0006948357,5.374392e-05,1,1
-0.0007048837,5.779555e-05,1,1
-0.0006943495,5.536457e-05,1,1
-0.0006627468,4.969229e-05,1,1
-0.0006129927,4.645098e-05,1,1
-0.0005538389,4.82337e-05,1,1
-0.0005016539,5.504044e-05,1,1
-0.0004651892,6.492643e-05,1,1
-0.0004463896,7.270556e-05,1,1
-0.0004467137,7.708133e-05,1,1
-0.0004643789,7.918817e-05,1,1
-0.0004938748,8.064677e-05,1,1
-0.0005350393,8.145709e-05,1,1
-0.0005940311,8.242948e-05,1,1
-0.0006765223,8.405014e-05,1,1
-0.0007744097,8.696731e-05,1,1
-0.0008734317,9.26396e-05,1,1
-0.0009539781,0.0001038221,1,1
-0.001002436,0.0001257009,1,1
-0.001009404,0.0001610312,1,1
-0.0009690502,0.0002054371,1,1
-0.0008695421,0.0002508154,1,1
-0.0007060182,0.0002861456,1,1
-0.0004935506,0.0003004074,1,1
-0.0002664971,0.0002911697,1,1
-5.856735e-05,0.0002655633,1,1
0.000113546,0.0002363916,1,1
0.0002446569,0.0002119197,1,1
0.0003410858,0.0001960373,1,1
0.0004093153,0.0001869616,1,1
0.0004597176,0.0001825859,1,1
0.0004994237,0.0001786963,1,1
0.0005323229,0.0001683241,1,1
0.0005600362,0.0001477418,1,1
0.000577053,0.000118408,1,1
0.0005799701,8.939829e-05,1,1
0.0005728393,6.897806e-05,1,1
0.000567167,5.730935e-05,1,1
0.0005708945,5.131294e-05,1,1
0.0005838597,4.239934e-05,1,1
0.0005976353,2.311357e-05,1,1
0.0006055765,-4.923729e-06,1,1
0.0005995801,-3.21507e-05,1,1
0.0005739738,-4.365734e-05,1,1
0.000522599,-2.988179e-05,1,1
0.0004438352,6.582909e-06,1,1
0.0003360618,5.050261e-05,1,1
0.0001974959,8.129502e-05,1,1
3.883391e-05,8.42122e-05,1,1
-0.0001167488,6.233338e-05,1,1
-0.0002446183,2.829966e-05,1,1
-0.0003313232,-4.113403e-06,1,1
-0.0003752429,-3.004385e-05,1,1
-0.0003823738,-4.916756e-05,1,1
-0.0003661673,-6.423963e-05,1,1
-0.0003418575,-7.801519e-05,1,1
-0.0003222476,-9.584238e-05,1,1
-0.0003125237,-0.0001162626,1,1
-0.000310741,-0.0001389517,1,1
-0.0003110651,-0.000164396,1,1
-0.0003105789,-0.0001919471,1,1
-0.0003162512,-0.0002217671,1,1
-0.0003326198,-0.0002528836,1,1
-0.0003587123,-0.0002789762,1,1
-0.0003870737,-0.0002922655,1,1
-0.0004144627,-0.0002880518,1,1
-0.000435045,-0.0002674695,1,1
-0.0004378002,-0.0002370013,1,1
-0.0004019837,-0.0002026434,1,1
-0.0003128478,-0.0001723372,1,1
-0.0001804405,-0.000151917,1,1
-3.620233e-05,-0.0001431655,1,1
8.696731e-05,-0.0001392759,1,1
0.0001689724,-0.0001319829,1,1
0.0002184023,-0.0001169109,1,1
0.0002628082,-9.66527e-05,1,1
0.0003282826,-7.526008e-05,1,1
0.0004298976,-5.710876e-05,1,1
0.0005618189,-4.236082e-05,1,1
0.0007028158,-2.955766e-05,1,1
0.0008180443,-1.270286e-05,1,1
0.0008773603,6.90704e-06,1,1
0.0008702294,2.327564e-05,1,1
0.0007989206,3.283749e-05,1,1
0.0006819093,3.640293e-05,1,1
0.0005522569,3.850978e-05,1,1
0.0004443214,4.645098e-05,1,1
0.0003811159,6.379197e-05,1,1
0.0003624784,8.810177e-05,1,1
0.000371392,0.0001083599,1,1
0.0003845193,0.0001163011,1,1
0.000378685,0.000111115,1,1
0.0003331446,9.750156e-05,1,1
0.0002409294,8.648112e-05,1,1
0.0001167873,8.729144e-05,1,1
-8.813297e-06,0.0001015532,1,1
-0.0001032974,0.0001226217,1,1
-0.0001478653,0.0001399627,1,1
-0.0001399241,0.0001461212,1,1
-8.887356e-05,0.000138342,1,1
-1.529591e-05,0.0001226217,1,1
5.56887e-05,0.0001046324,1,1
0.0001015532,8.615699e-05,1,1
0.0001096565,6.816773e-05,1,1
8.016057e-05,5.001642e-05,1,1
1.906194e-05,3.316162e-05,1,1
-6.213279e-05,2.133085e-05,1,1
-0.0001472171,1.9224e-05,1,1
-0.0002133397,2.748934e-05,1,1
-0.0002449425,4.077869e-05,1,1
-0.0002310048,5.082674e-05,1,1
-0.0001660166,5.61749e-05,1,1
-6.456377e-05,6.427817e-05,1,1
3.364782e-05,8.712937e-05,1,1
8.664318e-05,0.0001315353,1,1
7.497447e-05,0.0001919856,1,1
5.448452e-06,0.0002462775,1,1
-9.405965e-05,0.000269777,1,1
-0.0001984297,0.000250005,1,1
-0.0002945344,0.0001921477,1,1
-0.0003720016,0.0001185701,1,1
-0.0004327761,5.325772e-05,1,1
-0.0004817198,1.014835e-05,1,1
-0.000524343,-8.327101e-06,1,1
-0.0005570802,-8.165035e-06,1,1
-0.0005706937,-3.858999e-07,1,1
-0.0005478425,4.313994e-06,1,1
-0.0004752372,2.623614e-07,1,1
-0.0003483401,-1.027188e-05,1,1
-0.0001825473,-2.161646e-05,1,1
-1.399939e-05,-3.279896e-05,1,1
0.0001203528,-4.544006e-05,1,1
0.0001923098,-5.710876e-05,1,1
0.0001944166,-6.504996e-05,1,1
0.0001409351,-7.088431e-05,1,1
5.666109e-05,-7.801519e-05,1,1
-3.036798e-05,-9.081835e-05,1,1
-9.681477e-05,-0.0001058904,1,1
-0.0001280934,-0.000119666,1,1
-0.0001224211,-0.0001264727,1,1
-9.098041e-05,-0.0001238797,1,1
-4.80331e-05,-0.0001104282,1,1
-1.010982e-05,-9.324933e-05,1,1
9.986281e-06,-7.785312e-05,1,1
4.47606e-06,-6.748094e-05,1,1
-3.652646e-05,-5.840528e-05,1,1
-0.0001157764,-4.706071e-05,1,1
-0.0002251705,-3.344723e-05,1,1
-0.0003459091,-2.0482e-05,1,1
-0.0004527101,-1.448558e-05,1,1
-0.0005240189,-2.145439e-05,1,1
-0.0005399013,-3.960571e-05,1,1
-0.0004901472,-6.294311e-05,1,1
-0.0003789705,-8.628052e-05,1,1
-0.0002222533,-0.0001067007,1,1
-4.608832e-05,-0.0001233935,1,1
0.000123432,-0.000134576,1,1
0.0002657254,-0.0001407345,1,1
0.0003678266,-0.0001451102,1,1
0.0004268184,-0.0001488377,1,1
0.0004527488,-0.0001540238,1,1
0.0004616624,-0.0001582375,1,1
0.0004608521,-0.0001577513,1,1
0.0004548557,-0.0001515928,1,1
0.0004464283,-0.0001426792,1,1
0.000435894,-0.0001318209,1,1
0.000420984,-0.000119666,1,1
0.0004028327,-0.000104918,1,1
0.0003754436,-8.174268e-05,1,1
0.0003274723,-4.495386e-05,1,1
0.0002543808,2.693341e-06,1,1
0.0001626518,5.52025e-05,1,1
7.432621e-05,0.0001093323,1,1
9.986281e-06,0.0001654069,1,1
-1.416145e-05,0.0002190506,1,1
1.64689e-05,0.0002691288,1,1
0.000103498,0.0003078624,1,1
0.0002344468,0.0003331446,1,1
0.0003747954,0.0003436788,1,1
0.0004861343,0.0003443271,1,1
0.0005415607,0.0003383307,1,1
0.0005371849,0.0003294171,1,1
0.0004794896,0.0003195311,1,1
0.0003754436,0.0003086727,1,1
0.000232502,0.0002950592,1,1
6.476436e-05,0.0002848491,1,1
-0.0001044318,0.0002848491,1,1
-0.0002515871,0.0002963557,1,1
-0.0003598467,0.0003146691,1,1
-0.0004233763,0.000329255,1,1
-0.0004405553,0.0003315239,1,1
-0.0004164075,0.0003128864,1,1
-0.0003567675,0.0002705873,1,1
-0.0002733039,0.0002132162,1,1
-0.000179306,0.000155521,1,1
-8.660465e-05,0.0001028497,1,1
-3.789272e-06,5.601284e-05,1,1
6.573675e-05,1.338965e-05,1,1
0.0001224596,-2.161646e-05,1,1
0.0001684862,-4.673658e-05,1,1
0.0002034923,-6.099833e-05,1,1
0.0002122438,-7.137051e-05,1,1
0.0001796687,-8.303922e-05,1,1
0.0001013911,-0.0001008664,1,1
-1.124428e-05,-0.0001303623,1,1
-0.0001365208,-0.0001713648,1,1
-0.000258718,-0.0002149604,1,1
-0.0003684362,-0.0002496423,1,1
-0.0004642168,-0.0002684419,1,1
-0.0005420081,-0.000271197,1,1
-0.0005979206,-0.0002632558,1,1
-0.0006304958,-0.0002486699,1,1
-0.0006340612,-0.0002305186,1,1
-0.0006071584,-0.0002120432,1,1
-0.0005585388,-0.0001979435,1,1
-0.0005005194,-0.0001885437,1,1
-0.0004441207,-0.0001835197,1,1
-0.0003937184,-0.0001799543,1,1
-0.000350447,-0.0001731475,1,1
-0.0003156029,-0.0001600202,1,1
-0.0002843243,-0.0001462447,1,1
-0.0002480217,-0.000134576,1,1
-0.0002010227,-0.0001242038,1,1
-0.0001498101,-0.000112373,1,1
-0.0001067007,-9.811128e-05,1,1
-8.984595e-05,-7.995997e-05,1,1
-9.616651e-05,-5.581224e-05,1,1
-9.065628e-05,-2.761287e-05,1,1
-1.934754e-05,-2.978945e-06,1,1
0.0001514693,1.322759e-05,1,1
0.0004117463,2.197911e-05,1,1
0.000720643,2.684107e-05,1,1
0.001021761,3.283749e-05,1,1
0.001259187,3.948217e-05,1,1
